wrist_ACC_1,wrist_ACC_2,wrist_ACC_3,wrist_BVP_1,wrist_EDA_1,wrist_TEMP_1,label
0.47887071880163135,0.48407040558977166,0.9254854602853486,0.3612918178994701,0.0028932954324773635,0.015151515151529793,1
0.5717563594951867,0.5162268765897926,0.8652662431655633,0.7049622702201783,0.003306577190142948,0.0,1
0.606314479734855,0.5179316117089865,0.8642929289528587,0.47294559110304335,0.002893295432477419,0.0,1
0.7491915052449356,0.48645954112060746,0.7014487726906343,0.4928271894187067,0.0037198589478087823,0.0,1
0.8293267084699139,0.5296660135731385,0.38867424079375573,0.4906165843494206,0.0024800136748118207,7.105427357601002e-15,1
0.8660845817311125,0.4760473896041588,0.1412399317660466,0.6031331627969254,0.0,0.015151515151529793,1
0.8458760018818026,0.547406568551333,0.44954114167991616,0.5367162060707751,0.0008265635153315021,0.015151515151522688,1
0.46551024725677803,0.5389116342516389,0.866302574208612,0.5363614891093553,0.012813350131723675,0.015151515151519135,1
0.4870720681458068,0.4685257684052423,0.9207138445044964,0.45834502089550805,0.00537330910728899,0.015151515151529793,1
0.514556727801448,0.49499736507517733,0.9151378872426437,0.37979131545090494,0.005373309107288768,0.015151515151522688,1
0.5237812262488657,0.47272704922839126,0.9089429190428255,0.6077809813274422,0.004133140705474422,0.015151515151522688,1
0.4849656918203237,0.5136904959723161,0.9312552793526558,0.26205026428362443,0.0037198589478085464,0.015151515151522688,1
0.4665715052309104,0.465622185865954,0.9204247342551437,0.4870014687680564,0.07274728321368441,0.015151515151536898,1
0.48829051634765774,0.4876076022577662,0.9175582945105045,0.7512737552252662,0.03141361425721888,0.030303030303034717,1
0.508446639817479,0.4695343027544397,0.9095634454908115,0.5114324542111357,0.020666672913824027,0.030303030303031164,1
0.49715187970186225,0.4844058571372853,0.9129755111400273,0.4507994095463663,0.015706645564200886,0.030303030303034717,1
0.5166463229686789,0.47158115142975554,0.9109845744459852,0.6516647972298821,0.014880082048869661,0.030303030303041822,1
0.5024419395417973,0.4826484917139641,0.9104952270167668,0.3342207523819104,0.01281335013172362,0.045454545454543194,1
0.5180656295691304,0.4708622027701197,0.9134009373735477,0.38329157190646085,0.011986786616392506,0.045454545454543194,1
0.501779515934378,0.4764606472053216,0.9085202306043194,0.42454916402384757,0.011159899972243467,0.045454545454543194,1
0.5189509809112492,0.4627720141502558,0.9108636212248131,0.46307676111841245,0.00992005469924613,0.04545454545455385,1
0.501715907655756,0.47595501125683953,0.9058232404116764,0.47820615054254817,0.009093491183915184,0.04545454545453609,1
0.5231503398306849,0.4626339680216512,0.91381913681517,0.44395860906160256,0.006613477509103502,0.04545454545453609,1
0.49443198696381985,0.4761042772246498,0.8975721986005185,0.4765860411051173,0.007026759266769031,0.04545454545453609,1
0.5429273223515394,0.45960094199828666,0.9306974199844402,0.5009831314980369,0.006613477509103335,0.04545454545453609,1
0.4619739670012286,0.5064420782789502,0.9416210268530372,0.47699154219990086,0.006613477509103335,0.0303030303030134,1
0.40748101149558513,0.506975081870122,0.8998595529438833,0.49102913152179767,0.007026759266769295,0.0303030303030134,1
0.426442833587958,0.4814112666731537,0.9600190860482325,0.5161914834395751,0.004546745591957835,0.0303030303030134,1
0.5266358656225715,0.5177931155587836,0.8730862659223743,0.46885412065244153,0.00537330910728899,0.030303030303020506,1
0.7273070129393548,0.5161466101696683,0.7600584003454308,0.4263772779634267,0.004133140705474103,0.030303030303034717,1
0.8445828665060346,0.5229688713876098,0.4390539639811527,0.580415673489458,0.002893295432477197,0.030303030303031164,1
0.8336230419238011,0.5254902413900603,0.3591920293122862,0.5133057479303834,0.0012398452729974058,0.030303030303034717,1
0.8740427581993029,0.4943575560059317,0.6420725116871572,0.38760282011341163,0.0008265635153312245,0.030303030303041822,1
0.6605118990895182,0.5533583039422206,0.7818867284731099,0.6926005705875906,0.002893295432477197,0.015151515151480055,1
0.5501193231440621,0.5336051613990948,0.8506229635662239,0.32422677129800265,0.009920054699246408,0.015151515151476502,1
0.46428970276788983,0.49203831432580564,0.9228841567948114,0.5077850920289391,0.002893295432477322,0.015151515151480055,1
0.5047115017798675,0.5142593841170862,0.9252968369543897,0.7109855367260065,0.003719858947808949,0.01515151515148716,1
0.5274384280517159,0.4923558841917394,0.918331551390414,0.33561236384390647,0.004546745591957849,0.03030303030302406,1
0.43707099819442663,0.5161662378700784,0.9014027080691889,0.16210644847111205,0.00496002734962335,0.03030303030302406,1
0.4625617130438857,0.483084432411609,0.9365839463849879,0.43670573384546946,0.004546745591957613,0.030303030303020506,1
0.5341878451738487,0.47832488987615074,0.9019087275420963,0.7678981494134964,0.003719858947808727,0.030303030303031164,1
0.5882212326302898,0.4918103302064081,0.8837028101539606,0.6647707526335456,0.0037198589478085603,0.030303030303031164,1
0.6268305194579787,0.5036672135163135,0.8372063419822648,0.31272976263470154,0.00578659086495463,0.030303030303031164,1
0.6106724360372946,0.49488658189724316,0.8541499106669759,0.36623920567891066,0.011986786616392062,0.030303030303031164,1
0.5943456385873238,0.4948026480489645,0.8584664563675408,0.6508132185033814,0.0074400410244346155,0.030303030303041822,1
0.606410629625592,0.49134524842316585,0.8596629956468819,0.6738745644371433,0.007026759266768878,0.045454545454532536,1
0.6034495768194318,0.49368323362203875,0.8549326092833249,0.43520231185530267,0.0057865908649546716,0.04545454545453609,1
0.6054491189531118,0.49249676777777934,0.8590453986751292,0.4886688642117665,0.004133140705474311,0.04545454545453609,1
0.6033660283480882,0.4967989831380361,0.854409356831795,0.37618052776880884,0.003719858947808727,0.045454545454543194,1
0.6042188327359456,0.49782571679087434,0.8601063900720423,0.39865734145353354,0.0037198589478087823,0.045454545454546746,1
0.6019805486000038,0.49605937549288864,0.8547760080002116,0.4978142298375396,0.003306577190143184,0.045454545454546746,1
0.602025712856384,0.49263031158824133,0.8599394431055197,0.475620555737752,0.002893295432477197,0.045454545454546746,1
0.5991594280609176,0.49542087022989384,0.8547887200843856,0.49752706581929096,0.0033065771901430036,0.04545454545456096,1
0.5957405601047399,0.49680447843588244,0.8619545307841361,0.5068136608812953,0.0028932954324773635,0.030303030303034717,1
0.5923599729436093,0.497039483213853,0.8625802579316151,0.453022327204359,0.0028932954324773635,0.030303030303034717,1
0.570080507344652,0.4960840649908607,0.8790476222320542,0.5106439588788735,0.0016531270306628654,0.030303030303034717,1
0.5634690131436171,0.4927520013796283,0.8794335075870037,0.48361602018688493,0.0033065771901427954,0.030303030303034717,1
0.5688154585171681,0.49287478236938187,0.87967525575204,0.459037550592219,0.0028932954324774607,0.06060606060605522,1
0.568358394314006,0.4922543091611366,0.8771821073092338,0.5351748410353705,0.0028932954324772525,0.06060606060605522,1
0.5700877129480084,0.4937760607838516,0.8810963489959667,0.48988308442987855,0.0024800136748116958,0.06060606060605522,1
0.5689676387326632,0.4910110267866505,0.8754760540977188,0.4498484249404069,0.0033065771901430036,0.06060606060606588,1
0.5633534732853938,0.4924086090412589,0.8824216497306774,0.5102664029221059,0.0024800136748117235,0.07575757575757791,1
0.5647902613007496,0.49213968272292913,0.8814478562451508,0.4606825406082335,0.0033065771901430036,0.07575757575757791,1
0.5675573978575335,0.49261041886499635,0.8801436267304963,0.5086312958401893,0.0033065771901432117,0.07575757575758502,1
0.567272256830724,0.49224378918772904,0.8765687224570078,0.49371104726755904,0.0024800136748114876,0.07575757575758502,1
0.5695589687120598,0.4922335863851508,0.8787565203245964,0.44402110576558684,0.0020667319171457366,0.04545454545453609,1
0.5800412787992894,0.4950934400989418,0.8707823797144034,0.4900738172275194,0.0008265635153315853,0.04545454545453609,1
0.5933494549769016,0.5008014872276254,0.8599175798260257,0.5465773172383612,0.002480013674811654,0.04545454545453609,1
0.599560501122664,0.504138992443034,0.8575494857447858,0.4466877579199653,0.0024800136748118207,0.045454545454546746,1
0.614545612185087,0.5167881301308141,0.8514407305554001,0.5097503771555304,0.003306577190142948,0.06060606060606588,1
0.6196817604074278,0.5110303208061684,0.8412539942430772,0.4976028396435652,0.013226631889389176,0.06060606060606233,1
0.6064439376939981,0.5093278180576642,0.8535421570533421,0.5016303449920306,0.011159899972243412,0.06060606060605522,1
0.6064699366512334,0.5045594419990045,0.8460989548393708,0.5361816854699695,0.009093491183915184,0.06060606060606588,1
0.6063551595742417,0.5021632726132098,0.8525268088806145,0.42009656690674296,0.00785332278210056,0.04545454545453609,1
0.6134160922935548,0.49908514113541325,0.8468617673630772,0.5575774179200799,0.007440041024435032,0.04545454545453609,1
0.6036944706320675,0.5011886543616482,0.8537242187464373,0.46482999365056454,0.00537330910728899,0.04545454545453609,1
0.6142796127110729,0.49929202759458297,0.8489294627070216,0.40507234011766113,0.00578659086495463,0.045454545454543194,1
0.5048793441228487,0.5043151514160088,0.9061037531093277,0.42541228591742525,0.004546745591957349,0.06060606060604812,1
0.4687382749074267,0.5008706845944985,0.9225523432239058,0.5210650536667446,0.04918699173856585,0.06060606060604812,1
0.48246177958696157,0.5067162921929323,0.9210595991015504,0.4693456025403046,0.07853419720745637,0.06060606060604812,1
0.4914115038368565,0.5073249129407683,0.9159653044186291,0.5025558617507521,0.07274728321368419,0.06060606060605522,1
0.5221123280886819,0.5141137381795351,0.9066246247093024,0.3701868221267153,0.06696069234872977,0.060606060606044565,1
0.5182352796040971,0.5080546698732751,0.9023382725914062,0.3873226981420702,0.05786720116481493,0.060606060606044565,1
0.531596082536112,0.5072299823383158,0.9019907154453368,0.6556542330541599,0.05042716014038008,0.060606060606044565,1
0.528141729290442,0.5071230557953855,0.9000185796706344,0.6062725212464821,0.04546713279075705,0.06060606060604812,1
0.5319332454737917,0.5091792793764002,0.8988908206113726,0.5727577369898712,0.041333668956465244,0.08333333333336768,1
0.5286101595709702,0.5051196529634485,0.8964911236711852,0.5393109025221284,0.03678692336450788,0.08333333333337123,1
0.5318149655544409,0.5043807291840275,0.8988126707571475,0.46104895212022623,0.0367869233645081,0.08333333333336768,1
0.5347395310237155,0.5005431424052701,0.8936817478716961,0.426314183313613,0.03389362793203056,0.08333333333336768,1
0.5357822504566212,0.5006536862532003,0.8967904528353374,0.45996936710756003,0.03389362793203056,0.07575757575756015,1
0.5357591873879339,0.4995470775720692,0.8955545446850246,0.44445239393931774,0.032653782659033834,0.07575757575756015,1
0.5386930863036465,0.5009507695633498,0.897987116707986,0.48663688799145094,0.03058705074188768,0.07575757575756015,1
0.5305674461645932,0.5005421534186566,0.8950221579384976,0.4997190965854529,0.02976016409773881,0.07575757575756725,1
0.5389040408110257,0.5069121148819097,0.8964299563561191,0.46379552226023635,0.029346882340072836,0.06060606060607654,1
0.5329470303415069,0.5076217165966105,0.8968620854455915,0.5046443105614475,0.028520318824741667,0.06060606060607654,1
0.5333282997690473,0.5086190383306256,0.8996071257820981,0.4946033673410337,0.02728015042292732,0.060606060606083645,1
0.5375394083866367,0.5073278422220229,0.8926695552194247,0.4657736716630352,0.026866868665261404,0.060606060606083645,1
0.5393186757239148,0.5087569834694133,0.8956144424770585,0.5019751951610204,0.02604030514993015,0.04545454545452543,1
0.5375799047938536,0.5072428693292018,0.8919418495567975,0.4860478625618428,0.0252134185057815,0.04545454545452543,1
0.5393599007641756,0.5088136679249535,0.8953112892784321,0.4627954127977036,0.023973573232784415,0.04545454545452543,1
0.5375292711976075,0.5072092767389278,0.8920861809773215,0.5065735042070272,0.024386854990450055,0.04545454545453609,1
0.5394250064833952,0.5088163556426106,0.895226604052201,0.4648198582230971,0.023973573232784304,0.06060606060606233,1
0.53741454917769,0.5072771231894138,0.8921396115756652,0.469795254793167,0.02314700971745305,0.06060606060605522,1
0.5405429137045242,0.5083569712466366,0.8951924459654084,0.5152286570028469,0.022320123073304235,0.06060606060604812,1
0.5376698463664683,0.506451283182734,0.8921605400059844,0.4688206643421458,0.022733404830969903,0.06060606060606233,1
0.5393554318043472,0.5075950044986338,0.895181333728531,0.46988854150418824,0.022320123073304096,0.07575757575757791,1
0.5375109088625374,0.5046586958889275,0.8921639522488221,0.5156278882667997,0.021906841315638484,0.07575757575757791,1
0.5394449782034711,0.5090548514897363,0.8951841588906824,0.471619842392501,0.019840109398492442,0.07575757575757791,1
0.5374330633376174,0.5068408940026792,0.8921560870507739,0.4879711292427209,0.021493559557973038,0.07575757575759923,1
0.5395260772790897,0.5092450836559465,0.8951957978882421,0.5117953525362036,0.019013545883160995,0.06060606060604812,1
0.5373363158205762,0.5067401185841693,0.8921424551182215,0.4689016437995276,0.020253391156158276,0.06060606060604812,1
0.5396656208353504,0.5093629607890157,0.8952083189456201,0.49218226488691236,0.020666672913823833,0.06060606060605522,1
0.5370137554042493,0.5064364063086146,0.8921368535745846,0.4898900185946813,0.020253391156158276,0.06060606060606233,1
0.5385309156168621,0.5058970830968607,0.896340510440611,0.4535220382747984,0.020253391156158276,0.06060606060606233,1
0.5374329751513766,0.5025919734656872,0.8938542109487797,0.5034102101370671,0.01984010939849272,0.06060606060606233,1
0.5382607372928366,0.5030480111422461,0.8974944026388305,0.4847930873122043,0.01984010939849272,0.06060606060606233,1
0.5376619546373611,0.4986310388367573,0.8942645125797698,0.45812791812685655,0.01984010939849233,0.06060606060607299,1
0.5386750027909152,0.5019240195018267,0.8985713673301885,0.5035587628008147,0.01942682764082708,0.07575757575756015,1
0.5309302365095101,0.499786529902273,0.8952418245407505,0.4752963877559009,0.019013545883161162,0.07575757575756015,1
0.5358282246781272,0.5034480649507449,0.8982602124869652,0.4821188407232664,0.01901354588316119,0.07575757575756015,1
0.5377422752015495,0.5025415894098643,0.8925773573220801,0.5151880358551995,0.01942682764082672,0.07575757575756015,1
0.5393501862263328,0.5061838594667223,0.8965784040923268,0.4757395524893744,0.0173600957236809,0.07575757575754949,1
0.5375064440095749,0.5042698899657094,0.8912059734616636,0.49379973468776167,0.019013545883161384,0.07575757575754949,1
0.539442888357318,0.5102033588865346,0.897644669825586,0.5212003451156838,0.018186659239012457,0.07575757575754949,1
0.5370352781494678,0.507721920848844,0.8929963371371243,0.48350760055319575,0.01860026412549569,0.07575757575756015,1
0.5392289221241264,0.5129874588154826,0.8992004278306154,0.5049863428420759,0.019013545883160995,0.06060606060605522,1
0.5371664462028816,0.4982805098955334,0.8898398637324215,0.4833103816229112,0.019426827640826858,0.06060606060604812,1
0.5385026695421836,0.5031035056026048,0.8977205237137436,0.47703551694396495,0.01612025045068423,0.06060606060605522,1
0.5409119790343719,0.4969380739742928,0.8891026167847955,0.6332157271578174,0.014466800291203522,0.06060606060606588,1
0.5427489786924405,0.5038917293946421,0.8991022567129683,0.4773796236459988,0.014466800291203799,0.07575757575753883,1
0.548328906776635,0.4959159404209446,0.8867747013070493,0.312298136386689,0.013639913647054927,0.07575757575753528,1
0.5384798993430566,0.5048845199454535,0.9031813686901438,0.38710583664636566,0.013639913647054872,0.07575757575754594,1
0.6169523011882827,0.4907962242347625,0.8314908345151086,0.4270338924802015,0.012400068374058201,0.07575757575754949,1
0.8064945517344138,0.49990901811707095,0.6786069911932054,0.5060883157013429,0.013639913647054927,0.07575757575757791,1
0.7647961706536395,0.5150403344488067,0.27894572973264775,0.5691897257521686,0.010333336456911993,0.07575757575757436,1
0.9236889385739253,0.5287390980102497,0.1750639057391898,0.5080414436535116,0.007853322782100505,0.07575757575756725,1
0.7056331600615351,0.5737461657210909,0.6966815924588825,0.579623495162586,0.009093491183915156,0.07575757575758502,1
0.44172589418887437,0.4701187254108642,0.8951995193648683,0.5025292915074339,0.005786590864954408,0.07575757575756015,1
0.4808547459833875,0.5174196823378927,0.9521133504480022,0.45957045275725034,0.007440041024434782,0.07575757575756015,1
0.4571094912181284,0.5073435174555353,0.9502191044863564,0.3929232527982046,0.008266604539765979,0.07575757575756015,1
0.43957939833283266,0.5214049677903277,0.9058335938643789,0.2701161400121985,0.008266604539765951,0.07575757575757791,1
0.4230978512255218,0.5254650764068476,0.9294489732137123,0.3247425096614122,0.007853322782100172,0.07575757575756015,1
0.44411159598842587,0.4949821834170549,0.956921383297709,0.8082474417121384,0.006613477509103544,0.0757575757575566,1
0.4981050281754762,0.5087459587548055,0.9048857630786498,0.7353692924037805,0.005373309107288879,0.07575757575756725,1
0.5960069088796974,0.5220204242294487,0.8681192114151997,0.6708108132790844,0.005786590864954519,0.07575757575756725,1
0.752802869687025,0.5477329564216051,0.7349503397116558,0.25343572445254886,0.006199872622620312,0.07575757575758502,1
0.6107009582746916,0.5270078198306493,0.8421778502332272,0.22007535811046813,0.004546745591957668,0.07575757575758502,1
0.5368670774202647,0.5099071391324133,0.8796023986406165,0.6215910601614802,0.0041331407054742975,0.07575757575758502,1
0.657135590055286,0.5296872640505886,0.8152442408295272,0.6815166924105923,0.004133140705474311,0.07575757575759567,1
0.7425607016953727,0.5206711365390738,0.7161459254596925,0.43081651586612574,0.003306577190143045,0.07575757575754949,1
0.8582114422258893,0.5349888985180289,0.4757054575140007,0.20723345459595333,0.004960027349623378,0.0757575757575566,1
0.8074495274382347,0.5246197951770811,0.2888818471639746,0.4029610037043131,0.002893295432477419,0.07575757575754949,1
0.8224700017199531,0.47634693636910597,0.1413853763651548,0.7569815464462848,0.002480013674811543,0.07575757575754949,1
0.8749678834709251,0.48426668391784117,0.18957257566014346,0.6900279007459662,0.002066731917146014,0.045454545454543194,1
0.7646248154064037,0.5621084005359992,0.5849906577011984,0.3901894929875347,0.0020667319171458892,0.045454545454543194,1
0.4114837473690389,0.5033846082294101,0.9308913071448404,0.27929167610536143,0.0016531270306626988,0.045454545454543194,1
0.38904585060559704,0.5145816907472318,0.9382350085475035,0.38912658263976696,0.004546745591957557,0.045454545454546746,1
0.4166742990913816,0.5138196384792478,0.9575594751704302,0.5770474071053332,0.00578659086495463,0.06060606060606588,1
0.44675711080669345,0.5005887017286271,0.933826546410359,0.4820527900655541,0.005786590864954463,0.06060606060606588,1
0.4098534203470816,0.5070139940119618,0.9244961684414257,0.2117557395900997,0.005786590864954727,0.06060606060607299,1
0.41198261767945143,0.4888319045570271,0.9555692178472805,0.7760792160435184,0.005373309107288657,0.06060606060607654,1
0.4663641996969641,0.4848139487468433,0.9303861638182966,0.707487709183337,0.005786590864954297,0.06060606060606588,1
0.481872083973977,0.4921451370372036,0.925779206693903,0.5630874518900807,0.005373309107288865,0.06060606060606588,1
0.5065420584761215,0.501251382134779,0.9067720898078235,0.45921097697345964,0.0070267592667690865,0.06060606060606588,1
0.527828259342625,0.4991613032499187,0.9014918044303557,0.24869334755465644,0.008266604539766256,0.06060606060607654,1
0.5546445074032713,0.5000479544851701,0.8860510662860352,0.5301554370145206,0.006199872622620048,0.08333333333333925,1
0.5535480826340651,0.5061701043025885,0.8909992110714651,0.658455318622927,0.005786590864954519,0.0833333333333357,1
0.5303616137129857,0.4947585507718601,0.8941433586890426,0.3715837906258078,0.006613477509103391,0.0833333333333286,1
0.5645194952793631,0.5036689626676717,0.8865213382401673,0.414809792270427,0.006199872622620367,0.08333333333333925,1
0.5543377324976146,0.4961822871246486,0.8840484402510083,0.48710006949915496,0.005373309107288879,0.0757575757575566,1
0.5692897727975356,0.5014763667642445,0.8820488093725067,0.4470331517991783,0.005373309107289045,0.07575757575756015,1
0.562261122725243,0.49870485802032505,0.8832829510138842,0.5092867580003598,0.004546745591957516,0.07575757575756015,1
0.5666407999885312,0.5015982828344087,0.8836437431099324,0.4883286405837446,0.0041331407054744085,0.07575757575756725,1
0.5582760323245024,0.49890666183386495,0.8822366091978597,0.45423492346693256,0.004546745591957349,0.0833333333333357,1
0.5631937275029221,0.5013919572668084,0.8855566571714057,0.44657361455943534,0.004133140705474422,0.0833333333333357,1
0.555806171420578,0.49909175707359565,0.8837925939800818,0.47780228102108047,0.004133140705474311,0.08333333333333925,1
0.5582697742346647,0.5012287978719957,0.8855217938306623,0.5081108567369823,0.0016531270306626988,0.08333333333333925,1
0.5447186198272633,0.4992361107322597,0.88813973777506,0.49385112460727815,0.004546745591957557,0.07575757575756015,1
0.5529450132521231,0.5010998243513178,0.8903673456095238,0.477940942495515,0.004546745591957668,0.07575757575756725,1
0.5456252250644871,0.49935280701857104,0.8932936107768186,0.5068278383897107,0.0045467455919574185,0.07575757575756015,1
0.550276953877578,0.5009925765131742,0.8941124830075576,0.45421381390570625,0.004546745591957557,0.07575757575757436,1
0.5455676216898229,0.49945345692130166,0.8924174832300504,0.5014523193795583,0.004546745591957349,0.06060606060607299,1
0.5502293963681244,0.500895049003598,0.8935603666328484,0.4743962765686469,0.004546745591957585,0.06060606060607654,1
0.5455462581776029,0.499553413930253,0.8924660286308553,0.494700335908844,0.004546745591957724,0.06060606060607299,1
0.5505219343587542,0.5007804526119907,0.8937865448806763,0.5074696639576083,0.004546745591957349,0.06060606060607299,1
0.542268552017872,0.49972257432031963,0.8935481202152629,0.4770707495228781,0.0041331407054741864,0.07575757575754949,1
0.5430182907000618,0.5002758250705054,0.8937939235950774,0.513677847031501,0.004546745591957738,0.07575757575754949,1
0.5432142371315223,0.4940269990408795,0.8935660801568523,0.4995135090711634,0.002066731917145931,0.07575757575754949,1
0.545960678190538,0.49833447473360637,0.8937472755849355,0.48186563499848234,0.004133140705474367,0.07575757575756015,1
0.5461942836151246,0.49595959158789255,0.8936740532020171,0.5038311028237993,0.00454674559195721,0.08333333333334636,1
0.5481858560101782,0.5000553210424589,0.8933446801628013,0.47286178006977114,0.004133140705474256,0.08333333333334636,1
0.5467961715936422,0.49983289097144784,0.8925760189001456,0.5112106782995204,0.004133140705474422,0.08333333333334991,1
0.5491427875683765,0.5006125113314295,0.8941245145414478,0.5025462244983491,0.004133140705474145,0.08333333333335702,1
0.5454465530158219,0.4997805832069749,0.8933205694461996,0.4766343124018962,0.004133140705474242,0.07575757575756725,1
0.5419971801992145,0.5006085230853948,0.893985905042427,0.5047236179514667,0.0041331407054744085,0.07575757575756725,1
0.5400146848940031,0.4998005356227369,0.8933786589272678,0.4784867861988046,0.00413314070547445,0.07575757575756725,1
0.5399517085859177,0.5005827303593036,0.8939563719728072,0.4786808685549167,0.004546745591957516,0.07575757575757436,1
0.5372401009788388,0.49982860324244865,0.8933940768136931,0.4991433712398751,0.004133140705474367,0.07575757575758857,1
0.5395790183687172,0.5005538776997812,0.8939494274985949,0.45209463331742133,0.0033065771901428925,0.07575757575758502,1
0.5373987560011342,0.49985756052469826,0.8933951772733153,0.504234757401635,0.004546745591957613,0.07575757575758502,1
0.5394723168923866,0.5005251346833582,0.8939528197997557,0.4825347552081622,0.0041331407054744085,0.07575757575758857,1
0.5374763993419625,0.499885948267364,0.8933880140801331,0.4745686649972458,0.004133140705474367,0.07575757575758502,1
0.5394280973463927,0.5004971488548879,0.8939633818651642,0.4966913951997887,0.004133140705474367,0.07575757575758502,1
0.5374473311673893,0.49991353901909563,0.8933742070405579,0.45759737406095763,0.004546745591957405,0.07575757575758502,1
0.5398109084830609,0.5004699139057845,0.893980433536685,0.48804236455132455,0.0041331407054746305,0.07575757575759567,1
0.5401626581149652,0.49994047877674586,0.8933537877867809,0.4917592314481275,0.0041331407054741864,0.06060606060606588,1
0.5410984216136354,0.5004431931975326,0.8940044563993053,0.4652180154786942,0.004546745591957793,0.06060606060606588,1
0.5399011748532139,0.4999670692583504,0.8933258084017335,0.5142043419663095,0.004133140705474478,0.06060606060606588,1
0.540422212051502,0.5004166326205178,0.8940368782393222,0.4789392020530273,0.004546745591957682,0.06060606060607299,1
0.5379706399571487,0.49999371138386556,0.8932882954221513,0.4926294035642533,0.002893295432477516,0.06060606060604812,1
0.5386691527890843,0.5003897867506157,0.8940803414555383,0.4922599984919228,0.004546745591957668,0.06060606060604812,1
0.5395105079369277,0.5000208922544629,0.8932377381503576,0.4666160241655943,0.004133140705474589,0.06060606060604812,1
0.5414563884688444,0.5003621361115058,0.8941395388726872,0.506340088617729,0.004546745591957349,0.06060606060606233,1
0.5390849182444029,0.5000491356406702,0.8931677586764575,0.47149390154528903,0.004133140705474478,0.07575757575756725,1
0.5390256115878834,0.5003332283853357,0.894223378070022,0.48833337351012285,0.004133140705474478,0.07575757575756725,1
0.5407523686820568,0.5000786250834287,0.8930653883314711,0.5045536991901324,0.004133140705474367,0.07575757575756725,1
0.5405134575956967,0.5003036759258744,0.8943520242116878,0.4616237729396821,0.004133140705474145,0.07575757575756725,1
0.5409709871340511,0.5001064252991952,0.8928954069832744,0.50509950168259,0.004546745591957516,0.08333333333330017,1
0.5398944369166041,0.5002839053355846,0.8946043493108968,0.4776715854396065,0.004546745591957779,0.08333333333330017,1
0.5446592083785157,0.5000910559618776,0.8922871956667074,0.4786305017700278,0.004546745591957779,0.08333333333330017,1
0.5546879076865323,0.5005715991103661,0.8871347175219424,0.5076362175630653,0.0012398452729972947,0.08333333333330728,1
0.5712610610902855,0.5050877942339651,0.878764133770326,0.47925080805456877,0.004546745591957405,0.07575757575757436,1
0.5658454609317332,0.510367198770205,0.8807800503629049,0.5030730280530773,0.00454674559195746,0.07575757575756725,1
0.5717266465854531,0.5130499344661468,0.875997607904166,0.5057249610848964,0.004133140705474589,0.07575757575757436,1
0.5658012321346625,0.5037684200863356,0.8841269178769433,0.47864061536321423,0.0037198589478085187,0.07575757575758502,1
0.6013646609338723,0.47417983209747355,0.8593063846524233,0.49438245862011937,0.003306577190143045,0.06060606060604812,1
0.5559716167939769,0.47377749027277793,0.8845817205350446,0.4713380905061231,0.004133140705474422,0.060606060606044565,1
0.5249296185769554,0.46296681817187646,0.9034201678698626,0.4841298279703099,0.004546745591957557,0.06060606060604812,1
0.5514311478106358,0.4463055966322072,0.8844295539009619,0.5051162626758064,0.005373309107289254,0.06060606060605522,1
0.5601217835736096,0.45698328249077264,0.8807164235712597,0.44101710131415184,0.005373309107289198,0.07575757575758502,1
0.5914884663874058,0.4533502968035844,0.8667825524457622,0.5674072259544447,0.004546745591957724,0.07575757575757791,1
0.6533006021874727,0.4619715128254635,0.8156885200854893,0.6114089104384863,0.003306577190143156,0.07575757575757436,1
0.6741554284907461,0.4801664392152937,0.7988821666262542,0.47634198475399625,0.003719858947808838,0.07575757575758502,1
0.5908198169995956,0.5315740581544512,0.8650829694322413,0.2818674046627505,0.0024800136748115986,0.07575757575757791,1
0.5597911339626136,0.5238482725372692,0.8824163767784236,0.3514712017047794,0.004133140705474367,0.07575757575757791,1
0.5899344464406537,0.49985550152366826,0.8620070183819537,0.6247654943798371,0.004133140705474422,0.07575757575757791,1
0.5918750397406283,0.4869073176976829,0.8599854261969264,0.47269538625357516,0.0033065771901430036,0.07575757575758857,1
0.5982105436131877,0.5014624521139597,0.8581016268448338,0.4410605971006036,0.0037198589478083105,0.06060606060606233,1
0.5864984424683868,0.5042334838573557,0.8648356064928688,0.45062527006525,0.0033065771901432117,0.06060606060606233,1
0.5626118867768317,0.5016716657153274,0.88210014739728,0.4534157172914889,0.0028932954324774607,0.06060606060606588,1
0.5460247053610442,0.5019046730646426,0.8889268225334562,0.4636766417844944,0.0037198589478085464,0.06060606060606588,1
0.5338108630653958,0.5028011738206626,0.8963355094265029,0.4632086606255954,0.003306577190143156,0.07575757575757436,1
0.5371261594945946,0.5080737612781645,0.8968336266696164,0.430817871858383,0.0033065771901432117,0.07575757575757436,1
0.5299429232415674,0.507969809650626,0.8979810980539862,0.4196720588243914,0.004546745591957405,0.07575757575757436,1
0.5000028663204512,0.5075444128090854,0.9102360787048618,0.5630701693411455,0.004546745591957557,0.07575757575758502,1
0.4815757692362099,0.5033213806571616,0.9159754552507353,0.5773259053992911,0.007853322782100616,0.06060606060605522,1
0.510691577984645,0.5048037979972932,0.9100903221262513,0.6051992970706339,0.008266604539766312,0.06060606060606233,1
0.5053670226110261,0.5039723945738661,0.9113398561579245,0.5117329229596705,0.007026759266769184,0.06060606060605522,1
0.5169442185190147,0.5035328168881352,0.9031678414689581,0.45687966595798585,0.006613477509103419,0.06060606060605522,1
0.5165128425816432,0.504996657501172,0.9034321671862258,0.4565674309995438,0.006613477509103585,0.07575757575757791,1
0.5226447025555069,0.5045765225955705,0.9018709807068019,0.5813097352504307,0.006199872622620312,0.07575757575757791,1
0.5204792010082782,0.5036080565641189,0.903879082078656,0.5460136261775203,0.005786590864954574,0.07575757575757791,1
0.5332714153683571,0.49996444489291825,0.8998585130429733,0.47761347009089533,0.0037198589478087823,0.07575757575758502,1
0.536648100041567,0.5003801271264109,0.8943661409345853,0.4912691927172966,0.004546745591957724,0.07575757575758502,1
0.5624687683530626,0.5018093769397934,0.8847240603748622,0.47676343824601863,0.005373309107288879,0.07575757575758502,1
0.5368289503140926,0.5027348197918163,0.8958820652131643,0.4770891360939369,0.004546745591957835,0.07575757575758857,1
0.5283334182296286,0.5044098922893872,0.9018502592747795,0.5033376679092663,0.004546745591957516,0.07575757575759567,1
0.5315316783067447,0.5045632285749667,0.8991917971538881,0.4955356806019656,0.004546745591957405,0.07575757575756725,1
0.5289188523395592,0.5014174387634021,0.9021812730799907,0.5009271415630033,0.0057865908649546716,0.07575757575756725,1
0.5286069346032716,0.5023116554081171,0.9021947781056598,0.35636952712567493,0.004960027349623294,0.07575757575756725,1
0.5296501646376393,0.5030803443827156,0.9008812519124911,0.48444050754517454,0.004960027349623447,0.07575757575757791,1
0.5282278310344973,0.5017730446700358,0.9012862854213621,0.5706525520915359,0.005373309107288823,0.07575757575759567,1
0.5298760134665332,0.5016820785287202,0.903056545562785,0.42174199096461007,0.004960027349623239,0.07575757575759567,1
0.5280839809533684,0.5026476035226509,0.9014780895846091,0.44834039969365935,0.004960027349623294,0.07575757575758857,1
0.5299710416041621,0.5044777993139045,0.9027373392478211,0.46919673560414765,0.0033065771901431285,0.07575757575759567,1
0.5280200601965424,0.5025783386249332,0.9026595280488476,0.49167017460841594,0.004960027349623447,0.07575757575757436,1
0.5300141886082111,0.505433227197034,0.9029041797574175,0.47710795612542883,0.005373309107289129,0.07575757575757436,1
0.5279912642869027,0.5069907605373933,0.9015958661804031,0.4954193663625723,0.0037198589478087823,0.07575757575757436,1
0.5300328241434735,0.5057212566218444,0.9026278440943956,0.47925410958839654,0.004546745591957668,0.07575757575758502,1
0.5279799445347495,0.5053617163622476,0.9016789962523892,0.48432426075090945,0.004133140705474103,0.06060606060605522,1
0.5300388265681402,0.5040426447500951,0.9019915692910905,0.4935374200555164,0.004960027349623433,0.06060606060605522,1
0.5279778081371711,0.5056125211808001,0.8997516327794834,0.47987312801191245,0.0045467455919576405,0.06060606060606233,1
0.5300381904033966,0.5041313571182405,0.9016255569804061,0.4935681125228142,0.004960027349623322,0.06060606060606588,1
0.5279803523210582,0.5047199535540066,0.901882597448938,0.4838780613695951,0.004133140705474311,0.07575757575757436,1
0.5300344725971922,0.5021730935802609,0.9027932642899155,0.49271161406544645,0.004960027349623322,0.07575757575757436,1
0.5279845465953705,0.4997782333105976,0.9017896746872194,0.4954177375106868,0.0037198589478086574,0.07575757575757436,1
0.5300305794931444,0.5011525797512757,0.9018427474725508,0.4712063952483512,0.004546745591957668,0.07575757575758502,1
0.5279870761523403,0.5025165646298627,0.9020511127681168,0.4953468519632652,0.004546745591957613,0.07575757575758502,1
0.5300312215342213,0.5028730193314187,0.90333232564933,0.46319268404316677,0.004546745591957738,0.07575757575758502,1
0.5279793856180193,0.5034465680222227,0.90091432290947,0.5122243497036858,0.004546745591957849,0.07575757575758502,1
0.5300570903519312,0.5042257702980508,0.9017509903385144,0.482160776483652,0.004546745591957557,0.07575757575758502,1
0.5278798092443986,0.502973717298423,0.9030675177555734,0.4756513736666434,0.004960027349623225,0.07575757575753528,1
0.5288129659022389,0.5063648347093493,0.9025709362829764,0.5096572036279295,0.0041331407054746305,0.07575757575753528,1
0.5281906802210581,0.5024962562496307,0.9028472203040985,0.481721118720535,0.004960027349623294,0.07575757575753528,1
0.5298739951074996,0.5044188350678059,0.9026867089227177,0.4885485120721838,0.004133140705474478,0.07575757575754594,1
0.5281386405976554,0.5053485274825552,0.9027655467555169,0.49063976738800463,0.004546745591957405,0.0833333333333286,1
0.5298593702393136,0.5055550816994665,0.9027596210203428,0.46662950548657695,0.003306577190142962,0.0833333333333286,1
0.5282282775384828,0.5056140553155164,0.902680431951363,0.503254395666646,0.004133140705474353,0.0833333333333357,1
0.5289980732453701,0.506171865268918,0.9029095080958489,0.47519518026223906,0.004546745591957557,0.08333333333333925,1
0.5265786970995661,0.5034818951063613,0.9017545020009909,0.48236375485613914,0.002480013674811807,0.0833333333333357,1
0.5299184475716205,0.5061817775392224,0.9023780845161615,0.4950897022724636,0.004960027349623405,0.0833333333333357,1
0.5280679262074948,0.49986047302167147,0.9029144762990944,0.47037311787454994,0.004960027349623405,0.0833333333333357,1
0.5299478307439617,0.5006606063022313,0.9026228007201234,0.4927877283195126,0.004546745591957668,0.08333333333333925,1
0.5280730730204951,0.4997897838425611,0.9028596650377354,0.4991743817409887,0.004960027349623128,0.07575757575757791,1
0.5299398651512559,0.500547943207935,0.9025650647280996,0.4624587113641822,0.004960027349623294,0.07575757575757436,1
0.5280803960974205,0.49991183734961286,0.9016468980863548,0.5018225507338919,0.004546745591957682,0.07575757575756725,1
0.529933859821255,0.5003942210370992,0.9028680707654011,0.4871472873680771,0.00413314070547445,0.07575757575757791,1
0.5280848051725218,0.5008792534355009,0.9026760849884488,0.48082661314890734,0.002893295432477308,0.06060606060606233,1
0.5299313603459914,0.502279782095673,0.9027819979809384,0.5045091904194068,0.004546745591957738,0.06060606060606233,1
0.5280848923767854,0.5042630879481278,0.9027668194437399,0.4814499986744199,0.0037198589478085603,0.06060606060606233,1
0.5299345360277132,0.5054871110032492,0.9017352189274588,0.4790498188308731,0.004546745591957835,0.060606060606083645,1
0.528076961746575,0.504920934154893,0.9025150713822889,0.49459128102437744,0.0037198589478084354,0.07575757575756725,1
0.5299500140101481,0.5054848762046853,0.9026808995901607,0.47041340686477817,0.004133140705474478,0.07575757575756725,1
0.5280481261129117,0.5040837694553776,0.9007322244898781,0.5018096976103166,0.0037198589478087823,0.07575757575756725,1
0.5300065648542678,0.5006926732622924,0.9027622158226842,0.4673917001472926,0.004133140705474617,0.07575757575757436,1
0.5279153120286603,0.49985865441524446,0.9015877139286146,0.48478954877139974,0.004133140705474478,0.0833333333333286,1
0.5305975461662051,0.5004888602936259,0.8990900441969589,0.4944236508125377,0.004133140705474589,0.0833333333333286,1
0.5289288043249889,0.4999429277806384,0.9001244627228815,0.4681640647610894,0.004546745591957724,0.0833333333333286,1
0.5307650700270943,0.5004197008281375,0.9017766045466673,0.5016130084393403,0.002893295432477308,0.08333333333333925,1
0.528338296042215,0.5000216793073932,0.901058730916906,0.49043636808377566,0.004133140705474672,0.08333333333333925,1
0.5297165205315807,0.5002928589755017,0.9026413295558471,0.48774990620938713,0.00413314070547445,0.08333333333333925,1
0.52827984731081,0.5004443541585802,0.9016454753336571,0.5029154970588089,0.0037198589478087685,0.08333333333333925,1
0.5297544471720628,0.5048678482256134,0.902374394853102,0.4646667729476188,0.0041331407054742975,0.08333333333333925,1
0.5282287808342154,0.5031097941020218,0.9003376420598692,0.5010092589370044,0.0037198589478086713,0.07575757575754949,1
0.5299511767299111,0.5055191702718415,0.8988898843687403,0.47024420480831597,0.004133140705474533,0.07575757575754949,1
0.5295563783237174,0.507506300044033,0.8991568589821648,0.4880460279230017,0.0037198589478089905,0.07575757575754949,1
0.5291470802567249,0.5037306182821539,0.8996656436121877,0.48698831774937895,0.003719858947808838,0.0757575757575566,1
0.5298261210757799,0.4993107099619018,0.8979590723673467,0.4763784665563327,0.0037198589478085603,0.0833333333333286,1
0.5320881542688545,0.5008025317634992,0.8985074463074227,0.5029114639800382,0.0037198589478085187,0.08333333333332149,1
0.5356972971197422,0.49969649259592896,0.8947714927409363,0.4688660979478487,0.0028932954324775856,0.08333333333332149,1
0.5373354363950025,0.5006513107472133,0.8950978764447703,0.4948951625114236,0.0037198589478085464,0.08333333333333925,1
0.5311342803815957,0.4997711530513277,0.8989009173199292,0.49505128623255346,0.004133140705474367,0.08333333333330728,1
0.530998209113902,0.5006153567151944,0.9014856119475074,0.4723333690207881,0.004133140705474422,0.08333333333330728,1
0.5278108291165878,0.49977772667772996,0.9023705374325091,0.5096476566889093,0.003719858947808727,0.08333333333330728,1
0.5301141316984694,0.500646234348887,0.9029872885394281,0.47030108983316893,0.004133140705474686,0.08333333333331794,1
0.5279433842097161,0.4996575614701753,0.9025397762821725,0.5002029065902465,0.0037198589478088934,0.0833333333333286,1
0.5300503379464737,0.5013987450313079,0.9028231119191477,0.47724128185689635,0.0045467455919576405,0.08333333333332149,1
0.5279807566594725,0.5031948443335662,0.9003061514942827,0.47560325761615735,0.004133140705474478,0.08333333333332149,1
0.5300274900199871,0.506509930538444,0.9031206691073499,0.5046217293644999,0.004133140705474533,0.0833333333333357,1
0.5279941834788513,0.5054475103989308,0.9023559150386029,0.4791819898411414,0.004133140705474367,0.07575757575758857,1
0.5300208336720018,0.5035967184486954,0.9020081055248088,0.5053631858578793,0.002893295432477322,0.07575757575758857,1
0.5279955911843173,0.4997010019418003,0.9023355315090147,0.48356739730866877,0.003719858947808616,0.07575757575758857,1
0.5300237537036445,0.50061519037873,0.9031598554592908,0.4753945317537022,0.0037198589478086574,0.07575757575759923,1
0.5279889106201209,0.49980465540523167,0.902351719521159,0.5015494836384224,0.004960027349623017,0.07575757575757436,1
0.5300338528434398,0.5005899132872055,0.9022024732918681,0.4614702585521778,0.0041331407054746305,0.07575757575757436,1
0.5279755810970546,0.4997985734549543,0.9019302359088299,0.5135112691022021,0.004546745591957668,0.07575757575757791,1
0.5300503368319105,0.5006149616190005,0.9020557377563434,0.47639889761919013,0.004133140705474311,0.07575757575758502,1
0.5279559307463548,0.49976033305562356,0.8997077125423263,0.5057096514443998,0.00413314070547445,0.08333333333333925,1
0.5300732391522534,0.500640564258874,0.9017203950183565,0.5037604194193851,0.005373309107289045,0.08333333333333925,1
0.5279296244893611,0.5003877214218364,0.9000719026508053,0.46289290257770815,0.004133140705474256,0.08333333333333925,1
0.5301031650849362,0.5060824000573861,0.9012030751146245,0.4947108599739737,0.004960027349623225,0.08333333333334636,1
0.5278957982787424,0.5052843034065084,0.9016692087228386,0.4797309562983939,0.002893295432477516,0.07575757575756015,1
0.5301412412680528,0.5033468691944087,0.9032101081479778,0.47905199136546267,0.004960027349623239,0.07575757575756725,1
0.5278530461574509,0.5053171232199214,0.9023134297905213,0.4990453636944277,0.004133140705474533,0.07575757575756015,1
0.5301891817521285,0.5024721899033364,0.9022296084053567,0.4582719349338489,0.004133140705474256,0.07575757575756015,1
0.5277993049851141,0.5017579818192979,0.9019820928241753,0.5008671005931123,0.004546745591957585,0.0833333333333286,1
0.5302494529230386,0.5001854539413632,0.9032449840398125,0.4684762955299226,0.0041331407054742975,0.0833333333333286,1
0.5277316362972616,0.5001474563806173,0.9001682779420392,0.4800776691061368,0.0024800136748117513,0.0833333333333286,1
0.530325550831063,0.5003240025763437,0.9024078904859589,0.48536635000644746,0.004133140705474478,0.08333333333333925,1
0.5276458815573823,0.49996713390091335,0.9008956152569645,0.4852688576344727,0.004133140705474506,0.07575757575758502,1
0.5304224263183772,0.5007656898654802,0.9032107019235585,0.4960830794629752,0.004133140705474353,0.07575757575758502,1
0.5275361233683207,0.5027904200716368,0.9002161090428242,0.48640435324717635,0.0041331407054746305,0.07575757575758857,1
0.5305472723624716,0.5038457611274351,0.8988659965901005,0.4766254484895649,0.003719858947808616,0.07575757575759567,1
0.5273929766357404,0.503725945233906,0.898943595808015,0.510369511593495,0.004133140705474145,0.0833333333333357,1
0.5307161048332287,0.5025634196297478,0.9024396844581901,0.46828624928997703,0.004960027349623294,0.0833333333333357,1
0.5271607125266282,0.5034354524405997,0.9005247489010824,0.5017453285976146,0.004133140705474478,0.0833333333333357,1
0.5316543366849089,0.5034740754789647,0.8994615442690181,0.4714931613476777,0.004546745591957613,0.08333333333333925,1
0.5452827508428242,0.5094269158376656,0.8870195238685121,0.48405445526782204,0.004133140705474367,0.08333333333333925,1
0.5618427344804511,0.5170185793981378,0.8861325690809971,0.4891168655737646,0.004546745591957613,0.0833333333333357,1
0.5585361918030515,0.5172710472685957,0.8771497882241663,0.4738080860893793,0.004546745591957613,0.0833333333333286,1
0.5846139932105658,0.5323662139162005,0.8711589798517694,0.49568379232570364,0.004960027349623225,0.08333333333333925,1
0.5815565433480905,0.5320157985595273,0.8616964519088467,0.500718815319775,0.01033333645691216,0.07575757575754949,1
0.5894152004701574,0.5313678409170016,0.8711299372449063,0.5163547002796657,0.01198678661639234,0.07575757575754949,1
0.581338455148058,0.5313254921176289,0.8607663516250517,0.556369997508949,0.00992005469924627,0.07575757575754949,1
0.5907185491747861,0.5276639728267221,0.8743355748178514,0.6456886471444867,0.00950677294158088,0.07575757575756015,1
0.5797995884898268,0.5248463995815782,0.8505791488720879,0.4790730954446313,0.009506772941580463,0.07575757575757436,1
0.77762157162243,0.5164361057452725,0.7339060499269314,0.24793309711922562,0.009506772941580824,0.07575757575757436,1
0.7848561806390757,0.5011195801998432,0.3692732673279457,0.435370470224335,0.007026759266769239,0.07575757575757791,1
0.8831607084973032,0.512115343844786,0.08751215551360086,0.4575536259056515,0.0045467455919576405,0.07575757575758502,1
0.785117974347959,0.5878269852723117,0.521169397173642,0.6003083938478351,0.009093491183915017,0.06060606060604812,1
0.4236915550713527,0.4816801435747592,0.8914015096943876,0.49684644029207387,0.002893295432477516,0.06060606060604812,1
0.509952714879953,0.5118918907430399,0.9641077521392676,0.42441708514461185,0.005786590864954477,0.06060606060604812,1
0.48479381287630136,0.5077352289939389,0.9037030155192802,0.39938003175885567,0.006613477509103502,0.06060606060605522,1
0.4425256980050468,0.5185605704761728,0.9078765729359983,0.3573028806229635,0.004960027349623239,0.07575757575759567,1
0.4728714369061945,0.4880247916749571,0.938333254866422,0.1694418487677331,0.005373309107288962,0.07575757575759923,1
0.5830854289903877,0.5051502601834944,0.88826093294753,1.0,0.005786590864954838,0.07575757575759567,1
0.5804772348022071,0.5129939910529845,0.8591184310467151,0.8307586924460306,0.00454674559195746,0.07575757575759567,1
0.6325353315232178,0.5147708664116553,0.8393978084709132,0.08930907660170828,0.005786590864954644,0.07575757575753883,1
0.6900309480763173,0.5195035177710574,0.7802619397152819,0.24462821664536763,0.006613477509103821,0.07575757575753883,1
0.7208249016154413,0.5133729803029948,0.7759146004337111,0.7443732778081069,0.00578659086495463,0.07575757575753883,1
0.5441439831360182,0.5122469839530153,0.8736297564433952,0.5569877549850906,0.004133140705474478,0.07575757575754949,1
0.49920721983830796,0.5043153494758523,0.9117429441745792,0.5124358089949315,0.004133140705474103,0.07575757575757436,1
0.5489218636703328,0.5085596128891573,0.8877794801790306,0.6587172737163789,0.004960027349623294,0.07575757575757436,1
0.5308266544273187,0.5009985533898627,0.8983084266803911,0.27291822866017446,0.0037198589478087823,0.07575757575757791,1
0.5544861102196581,0.5007610542747508,0.8876736115364692,0.23605725307012015,0.004133140705474256,0.07575757575758502,1
0.5522992721922338,0.49783892135661656,0.8865786593670626,0.5800106324929091,0.0024800136748116958,0.07575757575758502,1
0.5591749605352379,0.49893485486817074,0.8846130185537133,0.6730461344681591,0.00413314070547445,0.07575757575757791,1
0.5529350538004201,0.5005986789147076,0.8891095095732992,0.4320305551819992,0.003719858947808727,0.07575757575758502,1
0.5580968449855086,0.49998657523310264,0.882730286825522,0.4156630934309018,0.004133140705474506,0.07575757575758502,1
0.5542670035570998,0.5003322257444852,0.8863444169585373,0.4471898115280051,0.002066731917146028,0.07575757575757791,1
0.5572172553139199,0.5001054809520586,0.8829166538075877,0.5380697924613025,0.004546745591957668,0.07575757575757436,1
0.5531701641926003,0.5002675384488989,0.8867311332209667,0.4540615886403819,0.004133140705474422,0.07575757575756725,1
0.5571079030971788,0.5001447284760301,0.8846243152739259,0.5280412693622519,0.004133140705474367,0.07575757575757791,1
0.5545634439355825,0.500241941532854,0.8862560718919132,0.4665814669908599,0.004133140705474353,0.08333333333333925,1
0.5585843418257244,0.5001623322961761,0.8832599571769589,0.5102329662617934,0.004133140705474367,0.08333333333333925,1
0.5553161651067962,0.5002293213944441,0.8858420634764883,0.48855973323619195,0.004546745591957405,0.08333333333333925,1
0.5579262314640114,0.500171691301707,0.8834259578408457,0.4813414206628732,0.0033065771901432256,0.08333333333333925,1
0.5566371906630547,0.500222181371585,0.8857229147863318,0.50441606184272,0.004133140705474256,0.08333333333333925,1
0.5580896570163367,0.5001772710525964,0.8835247291991253,0.4879658405885644,0.004546745591957779,0.08333333333333925,1
0.5566385364074792,0.5002177304084949,0.8856366208579447,0.48794323555814656,0.004546745591957557,0.08333333333333925,1
0.5580585500312647,0.5001808844386231,0.8836020070769215,0.5072317776089457,0.0045467455919576405,0.08333333333334636,1
0.5566767156044498,0.5002147529888201,0.8855664379814508,0.46340954410859314,0.004133140705474478,0.0833333333333357,1
0.5580198779895291,0.5001833685804824,0.883666335949838,0.5135211053878401,0.004960027349623405,0.0833333333333357,1
0.5567136256190239,0.500212659177602,0.8855070791766435,0.47161866243501577,0.0024800136748118484,0.0833333333333357,1
0.5579854800416224,0.5001851475956626,0.8837213955067134,0.49290650000792935,0.004960027349623017,0.08333333333334636,1
0.5567453584000015,0.500211138719407,0.8854557878414318,0.4905933836583849,0.004546745591957779,0.0757575757575566,1
0.5579563145951913,0.5001864518977638,0.8837693513985585,0.47304270556706823,0.004546745591957557,0.0757575757575566,1
0.5567721594135102,0.5002100182733179,0.8854108072320699,0.4933242623222488,0.003719858947808616,0.0757575757575566,1
0.5579316348350196,0.5001874132880195,0.88381166118251,0.47288132202243244,0.00454674559195746,0.0757575757575566,1
0.5567949726308212,0.5002091968033637,0.8853709077521552,0.4859874142040296,0.004960027349623183,0.07575757575754949,1
0.5579104333554188,0.5001881096185251,0.8838493754790742,0.49005005954650654,0.004546745591957668,0.07575757575754949,1
0.5568148149053713,0.5002086142428681,0.8853351825233376,0.46632752560983715,0.004546745591957835,0.07575757575754949,1
0.5578916969129912,0.5001885870498362,0.8838832836688943,0.5084459863663324,0.004546745591957779,0.07575757575756015,1
0.5568327070975845,0.5002082355341245,0.8853029395689787,0.45918596343352874,0.004546745591957405,0.07575757575758502,1
0.5578743672400188,0.5001888715637662,0.8839139960500282,0.5073044163691591,0.004960027349623183,0.07575757575757791,1
0.5568497944550079,0.500208042315921,0.8852736377424689,0.4759744470032756,0.004960027349623447,0.07575757575758502,1
0.557857134837562,0.5001889749249195,0.8839419947438059,0.4930810088482727,0.004546745591957363,0.07575757575758857,1
0.5568676734211703,0.5002080287316604,0.8852468456616734,0.49938342603320046,0.00454674559195746,0.08333333333332149,1
0.5578379120286937,0.500188897499381,0.8839676672444314,0.4824866541224042,0.004133140705474478,0.08333333333331794,1
0.5568892847846777,0.5002081997184387,0.8852222140043129,0.5064642184981636,0.004546745591957474,0.08333333333332149,1
0.5578122138668982,0.5001886290268023,0.8839913295087647,0.47376584608571026,0.004960027349623405,0.0833333333333286,1
0.5569221074805634,0.5002085710798047,0.8851994561089735,0.49656363376796187,0.004546745591957668,0.07575757575757791,1
0.5577661170499282,0.5001881477341033,0.8840132423706473,0.4767394869823021,0.004133140705474367,0.07575757575757436,1
0.556996397237626,0.500209171211961,0.8851783339978149,0.48497684896825394,0.004546745591957668,0.07575757575756725,1
0.5576139460389629,0.5001874176839527,0.8840336235113591,0.4952410396655305,0.004133140705474367,0.07575757575758502,1
0.5576113234406369,0.5002100448329952,0.8851586480711999,0.4673480113817203,0.004960027349623128,0.07575757575757436,1
0.5585878580526371,0.5001863837327509,0.8840526563740689,0.5097952655617047,0.004960027349623128,0.07575757575757436,1
0.5567384747741935,0.5002112596814922,0.8851402293622561,0.4630101071838867,0.0033065771901430036,0.07575757575757436,1
0.5601445076515681,0.500184962681958,0.8840704969213086,0.5073325625140555,0.004133140705474367,0.07575757575758502,1
0.5568837909988865,0.5002129182217825,0.8851229336186147,0.48346754696510685,0.003719858947808463,0.08333333333331794,1
0.557915241089505,0.500183027698076,0.8840872788370262,0.4836383823732025,0.004960027349623405,0.08333333333331794,1
0.5567972947435282,0.5002151785841225,0.8851066367142219,0.49442973784406996,0.0041331407054744085,0.08333333333332149,1
0.557913922519129,0.5001803798097008,0.8841031175865417,0.4685895567671793,0.004546745591957557,0.08333333333332149,1
0.5568066938340713,0.5002182939616457,0.8850912310456149,0.5045396997695178,0.004546745591957668,0.06060606060606588,1
0.5579045457957708,0.5001766924608775,0.8841181136248658,0.4786881433811004,0.004960027349623405,0.06060606060606588,1
0.5568147495850164,0.5002226923013251,0.8850766226673725,0.48434049779613064,0.004546745591957349,0.06060606060606588,1
0.557897905843012,0.5001713941444247,0.884132354961502,0.4888671056626022,0.004960027349623183,0.06060606060607299,1
0.5568201208100764,0.5002291541624992,0.8850627289893882,0.4617802173774139,0.00496002734962335,0.07575757575757436,1
0.557893627287771,0.5001633896264464,0.8841459192334721,0.5063250981474214,0.004546745591957585,0.07575757575757791,1
0.5568234626926951,0.5002392677403976,0.885049476905612,0.4558894593262493,0.004960027349623405,0.07575757575757436,1
0.5578910939733968,0.5001502793346855,0.8841588753989914,0.5002030178821338,0.0037198589478085603,0.07575757575757436,1
0.5568252902536568,0.5002568552651114,0.8850368012569386,0.4835045722936485,0.0049600273496232805,0.07575757575757791,1
0.5578898900336893,0.500125525441875,0.8841712851363581,0.48305457222526665,0.004960027349623239,0.07575757575757791,1
0.5568259363401019,0.500294315487719,0.8850246435544804,0.511568075095095,0.004960027349623239,0.07575757575757791,1
0.5578897488685148,0.5000612447595596,0.8841832040126498,0.47588615169551324,0.004960027349623239,0.07575757575758502,1
0.556825615430508,0.5004434438885335,0.8850129509064171,0.509861886917615,0.004546745591957557,0.07575757575757791,1
0.5578904969818487,0.5009594433884675,0.8841946824723904,0.480179277896805,0.0045467455919575295,0.07575757575757791,1
0.5568244686227045,0.500698458666027,0.8850016751039431,0.4903523033255715,0.004546745591957668,0.07575757575758502,1
0.5578920190986374,0.5008935116433291,0.8842057666858504,0.4925279948861826,0.004960027349623072,0.07575757575758502,1
0.5568225904141821,0.49993574251456485,0.884990771830726,0.4687385089171274,0.002480013674811432,0.060606060606044565,1
0.5578942376066536,0.50036950419997,0.8842164992890922,0.5059892382905745,0.004960027349623239,0.060606060606044565,1
0.5568200445568353,0.5000682093966653,0.8849801999667004,0.4627165229005572,0.003719858947808727,0.060606060606044565,1
0.5578971002440216,0.5003057009897611,0.884226920042501,0.49845591903198955,0.004546745591957738,0.06060606060604812,1
0.5568168736960919,0.5001061092616141,0.884969920961441,0.4783744338154987,0.004960027349623128,0.07575757575758502,1
0.5579005724875443,0.5002806037025985,0.8842370664309673,0.4793364520128661,0.004546745591957585,0.07575757575757791,1
0.5568131054355459,0.5001238794899255,0.8849598982551872,0.4994828250144967,0.005373309107288907,0.07575757575757436,1
0.5579046326760858,0.5002674403977617,0.8842469742267736,0.47121580934210255,0.004960027349623294,0.07575757575758502,1
0.5568087562957922,0.5001339480537312,0.8849500967269692,0.5024229758047483,0.004960027349623433,0.07575757575756725,1
0.557909268764293,0.5002595559716078,0.884256678035561,0.47575832071932755,0.004960027349623294,0.07575757575756725,1
0.5568038344056458,0.5001402306788038,0.8849404821492981,0.4859780766956696,0.0049600273496231695,0.07575757575756725,1
0.5579144760640875,0.5002544847485964,0.8842662118464892,0.4837052502663866,0.004960027349623405,0.07575757575757791,1
0.5567983414243691,0.5001443624309981,0.8849310206273046,0.46853976675522707,0.0045467455919572936,0.07575757575756725,1
0.5579202555814013,0.5002510969057437,0.8842756096101287,0.5004547531485927,0.004133140705474478,0.07575757575756725,1
0.5567922740092677,0.5001471509182842,0.8849216779968286,0.46090314635477225,0.0049600273496232805,0.07575757575757436,1
0.5579266126910706,0.5002487982912602,0.8842849058722018,0.503760774511462,0.005373309107288879,0.07575757575757791,1
0.5567856250443974,0.5001490444573021,0.8849124191500186,0.4750547560781516,0.0049600273496232805,0.07575757575756725,1
0.5579335559631171,0.5002472427229843,0.8842941364987715,0.48402092912219224,0.00496002734962335,0.07575757575756725,1
0.5567783847980646,0.5001503163226919,0.8849032072475893,0.49937465916859397,0.004960027349623128,0.07575757575756725,1
0.5579410959835645,0.500246209650926,0.8843033395403102,0.467502936013722,0.004546745591957516,0.07575757575757791,1
0.5567705421623408,0.5001511487319273,0.8848940027621617,0.5089971299957837,0.00496002734962335,0.06060606060607654,1
0.5579492440136049,0.5002455445595888,0.8843125563003501,0.47289876472490616,0.005373309107288907,0.060606060606083645,1
0.5567620861401694,0.5001516766895551,0.8848847622742975,0.49813407284967043,0.004960027349623433,0.06060606060607654,1
0.55795801030556,0.5002451252932284,0.8843218327029962,0.49388142730891127,0.004960027349623239,0.06060606060607654,1
0.5567530077846403,0.5001520153154756,0.8848754369070118,0.48264189241912175,0.004133140705474367,0.07575757575756725,1
0.5579674018402452,0.5002448382326321,0.8843312210986924,0.5001464083246722,0.004960027349623544,0.07575757575756725,1
0.5567433028654101,0.5001522825484825,0.884865970227377,0.4638557210377071,0.004960027349623183,0.07575757575756725,1
0.5579774191612565,0.5002445543547843,0.8843407827205021,0.5040145471195177,0.00537330910728899,0.07575757575757436,1
0.5567329756473377,0.5001526271022483,0.8848562953503897,0.46935865906084717,0.004546745591957349,0.07575757575758502,1
0.5579880518485287,0.5002440934415271,0.8843505911238663,0.49710106976780555,0.005373309107288768,0.07575757575758502,1
0.5567220443236458,0.5001532779716393,0.8848463308231425,0.4864929705739638,0.004546745591957668,0.07575757575758857,1
0.5579992719940292,0.5002431510372407,0.88436073714901,0.4770172188351192,0.005373309107288657,0.07575757575759567,1
0.5567105488396824,0.5001546585349381,0.8848359745942893,0.5017674781983099,0.005373309107288865,0.06060606060606588,1
0.5580110248547163,0.5002411099820839,0.8843713363103041,0.4669389878207889,0.004960027349623378,0.06060606060606588,1
0.5566985619803877,0.5001577172252428,0.8848250948804245,0.5048504206524743,0.005373309107289045,0.06060606060606588,1
0.5580232158639157,0.5002364173147028,0.8843825401909694,0.47697419067145863,0.00413314070547445,0.06060606060607654,1
0.556686204260115,0.5001652134686391,0.8848135158087995,0.4871170356190849,0.004960027349623183,0.07575757575756725,1
0.5580356942138214,0.5002235757745795,0.8843945547277452,0.48746859603774334,0.004960027349623294,0.07575757575756015,1
0.5566736606887918,0.5001902560363334,0.8848009938591354,0.47301130356814364,0.004960027349623239,0.0757575757575566,1
0.5580482386085752,0.5001580623252466,0.8844076709504685,0.49915638047436034,0.004960027349623239,0.07575757575756725,1
0.5566611861013624,0.5010843163009555,0.8847871771916482,0.46098583966255885,0.004960027349623239,0.06060606060606588,1
0.5580605747336665,0.5004023113997439,0.8844223196292409,0.5050822226042266,0.005373309107289018,0.06060606060606588,1
0.5566490346924623,0.5000660111879806,0.8847715309570816,0.4696743180086556,0.004960027349623017,0.06060606060606588,1
0.5580725660382946,0.5003101146886956,0.884439175330032,0.4873076890135549,0.004960027349623558,0.06060606060607299,1
0.5566369919409913,0.5000964090015406,0.8847531891686571,0.4905266811043574,0.00496002734962292,0.06060606060606588,1
0.558085351085399,0.5002951838234886,0.8844593725166132,0.46930654496122104,0.005373309107289045,0.06060606060606588,1
0.5566214848882283,0.500105805884167,0.8847306304395173,0.5096583423873794,0.0037198589478085603,0.06060606060606588,1
0.5581094798913122,0.5002856430297482,0.8844850082395749,0.4669777910978812,0.004960027349623447,0.06060606060607299,1
0.5565675224503379,0.500134995050357,0.8847008682650743,0.5128463461099834,0.00537330910728899,0.07575757575758502,1
0.5583250473292956,0.501788236395781,0.8845205073498585,0.48195154458809814,0.005373309107289045,0.07575757575758502,1
0.5578478982408626,0.502289013467634,0.8846570177962746,0.49344641141285245,0.005373309107289045,0.07575757575758502,1
0.5576572334744767,0.5049853719983078,0.8845772702202257,0.49016347526190396,0.0049600273496229474,0.07575757575759567,1
0.5570629122111896,0.503360550927363,0.8845785879860464,0.4743321678239676,0.005373309107289045,0.06060606060605522,1
0.5575176710831664,0.5047658041948486,0.8846965639120619,0.4991568616376327,0.005373309107288823,0.06060606060605522,1
0.5575146757911407,0.5053263233996418,0.884367026634594,0.4651398797889145,0.005786590864954574,0.06060606060605522,1
0.5563797627816658,0.5059652817527466,0.8851923405726438,0.503525954182621,0.004960027349623114,0.06060606060605522,1
0.5691453178907302,0.5097600987096067,0.8778347961339386,0.4700265618005247,0.005373309107288657,0.07575757575754949,1
0.5897974680235432,0.5113778512977246,0.8648875973779109,0.4911868798808996,0.004546745591957668,0.07575757575754949,1
0.5955735603234446,0.5062968348613676,0.8581848391823539,0.5065321724917042,0.004133140705474561,0.07575757575754949,1
0.6071054529096682,0.5084207866886481,0.8533244151559236,0.5218863821847864,0.004960027349623239,0.0757575757575566,1
0.6030714304958515,0.5029364472329033,0.8553050181046895,0.663775031110444,0.004546745591957405,0.04545454545453609,1
0.5894185524032962,0.5060572850102979,0.8645031383833324,0.4651730243203006,0.004960027349623017,0.04545454545453609,1
0.5784823569682541,0.5065886213758142,0.8690564956987594,0.2694380423926829,0.004546745591957668,0.045454545454543194,1
0.5825557926119578,0.505077169835094,0.8742235109222593,0.3837328038991705,0.004960027349623017,0.045454545454546746,1
0.5770760175942641,0.5049458331210458,0.872269780139026,0.4662727878094225,0.004960027349623128,0.060606060606044565,1
0.581416897362568,0.5036168929469054,0.873905629910461,0.526477282511516,0.004960027349623239,0.06060606060603746,1
0.5787852856690413,0.5022123187888075,0.8702209090335,0.5064379743571124,0.0045467455919575295,0.060606060606044565,1
0.5860256106670751,0.5025732438954559,0.8703360273852772,0.5223138887528744,0.004546745591957668,0.06060606060604812,1
0.5814619583056484,0.501854841643138,0.8721864666156768,0.4645058908378272,0.004133140705474533,0.07575757575756725,1
0.5857682545068807,0.5009701593648566,0.8693067890531746,0.5106741899233738,0.005373309107288934,0.07575757575756725,1
0.5829715796562145,0.5014180227653708,0.8694737743164935,0.47228799081447603,0.004960027349623294,0.07575757575756015,1
0.5862001494737525,0.5010290781419529,0.8686452271418529,0.49960329887044597,0.004133140705474311,0.07575757575757436,1
0.5836539198884412,0.4995428059662518,0.8683795835860573,0.4944100745527576,0.004133140705474256,0.06060606060606588,1
0.5872496710009425,0.5011767914421307,0.8669090040567375,0.4818522235692027,0.004546745591957516,0.06060606060606588,1
0.5814657680589098,0.5008540776962261,0.8675376135923007,0.5144927781198382,0.004133140705474311,0.06060606060606588,1
0.5898834595914721,0.5068817924527209,0.8656812710676106,0.4633648300862262,0.004960027349623128,0.06060606060607654,1
0.5823737693930973,0.5051672484485514,0.8671808242407462,0.5134867321835367,0.004960027349622975,0.06060606060604812,1
0.5894002801944345,0.505116641576889,0.8657327765086309,0.4687512836297192,0.004960027349623378,0.06060606060604812,1
0.5815818888062977,0.5062289275101803,0.8672167983626659,0.501868843355971,0.004960027349623294,0.06060606060605522,1
0.5903716498864411,0.5075248595678559,0.8656325304059302,0.4829411910931987,0.003306577190142948,0.06060606060606233,1
0.5803482160774835,0.5063410258438608,0.8673877583246392,0.48604873957929784,0.004960027349623239,0.06060606060606588,1
0.5919941165310749,0.5045579074081435,0.8653672358230224,0.49779789713550293,0.004546745591957613,0.06060606060606588,1
0.5781235848390367,0.5027905824790941,0.8677920100156529,0.46139220159128624,0.0049600273496230585,0.06060606060606588,1
0.5951976415616884,0.5011284915539197,0.8647561710219587,0.4979036998925632,0.004546745591957557,0.06060606060607654,1
0.5738514276988093,0.5008973381839794,0.868213044263381,0.464210643335543,0.004546745591957613,0.06060606060605522,1
0.6118189856271876,0.5080923389616779,0.8593578984827015,0.5002789680535341,0.004960027349623239,0.06060606060606233,1
0.5480345297522642,0.5138167899991336,0.8766902609678715,0.48104494936790987,0.005373309107288934,0.06060606060605522,1
0.7345625636564109,0.5092743754561184,0.7612668202020727,0.4866535254480941,0.005786590864954422,0.06060606060605522,1
0.8441186760038697,0.5286140197853355,0.46039695098614125,0.5210363446781309,0.005786590864954519,0.07575757575757791,1
0.7938151931155732,0.5276331827159921,0.26830291959826197,0.4796824823822398,0.004546745591957585,0.07575757575757791,1
0.9584107352311917,0.5214710355286217,0.3147257596208741,0.5346195943319721,0.004546745591957557,0.07575757575757791,1
0.7286979286758307,0.5896664433567033,0.6138745927993406,0.42697529486106733,0.006613477509103419,0.07575757575758502,1
0.6370180714725372,0.5014017813561823,0.7881640016414259,0.5319845929436042,0.0028932954324774607,0.07575757575757791,1
0.650911912026976,0.5267078136186235,0.8589201532961903,0.42447399516489687,0.004960027349623183,0.07575757575757791,1
0.6510638865648322,0.5130212780382084,0.840193711597826,0.41626784983499115,0.005786590864954588,0.07575757575758502,1
0.5539816452388431,0.5262919325921134,0.8273940276196874,0.31590953815091793,0.005786590864954408,0.07575757575758502,1
0.5192165737774943,0.5210666664089487,0.921251346660751,0.5763858768233507,0.005786590864954241,0.060606060606044565,1
0.6020233690979907,0.4906993791427154,0.8697254441976817,0.697190626562389,0.005373309107288823,0.060606060606044565,1
0.6239945334228855,0.4968486126801409,0.8472850510349051,0.6546981835103882,0.004133140705474367,0.060606060606044565,1
0.615491524436093,0.4945718101207895,0.8435042116101956,0.23810390095158052,0.0037198589478086713,0.06060606060604812,1
0.6222407262338009,0.4997643653242667,0.845729268260886,0.24747501665059868,0.0028932954324771137,0.045454545454546746,1
0.6223696053247916,0.498547443782491,0.8387417629393215,0.7806013140578518,0.0020667319171459725,0.045454545454546746,1
0.6248428132985084,0.5015337579283449,0.8406950473393463,0.5613759277392999,0.0028932954324772525,0.045454545454543194,1
0.6221460431280795,0.4990410896306136,0.8378732562098581,0.4490182660820725,0.0037198589478086713,0.045454545454546746,1
0.624844985478774,0.5012223210967489,0.8404991966095688,0.4523621732429976,0.0033065771901431285,0.0757575757575566,1
0.6222048002451473,0.49928570830393654,0.8380872723279416,0.48888575157349734,0.003719858947808727,0.0757575757575566,1
0.6247654887723206,0.501005133957811,0.8414452445625838,0.4665941382354093,0.001653127030662685,0.0757575757575566,1
0.6222908979264077,0.4995428820362391,0.8382476390451745,0.48552933468151455,0.003719858947808838,0.07575757575756725,1
0.6246786976272298,0.4985543575779106,0.8401745475042948,0.48707856241046266,0.003719858947808491,0.07575757575754949,1
0.6223756926973059,0.497194601179113,0.8383649027866842,0.4791200753966709,0.003719858947808838,0.07575757575754949,1
0.6245971477774921,0.5004908596620955,0.8400732298504212,0.5019099042880395,0.0037198589478086713,0.07575757575754949,1
0.6224534549868393,0.4996759547466954,0.8384531177001293,0.4685015004034577,0.0037198589478086713,0.0757575757575566,1
0.6245233500506264,0.5007380585304199,0.8399958548688857,0.4974418784552695,0.002893295432477516,0.07575757575756725,1
0.6225233060162937,0.49966948319791543,0.8385214542017356,0.47634664248616754,0.0020667319171461113,0.07575757575756725,1
0.624457323903203,0.5007105707712505,0.8399351150806316,0.48799246549902225,0.0037198589478085464,0.07575757575756725,1
0.6225856825787326,0.4997049705317442,0.8385757594960026,0.48999943654626,0.003306577190142948,0.07575757575757436,1
0.624398396935228,0.5006727598044658,0.8398863000683576,0.4746244350637137,0.0028932954324772664,0.07575757575759567,1
0.6226413679876674,0.49974531964046165,0.8386198573612358,0.49768771549647695,0.0033065771901431285,0.07575757575760633,1
0.6243457466260907,0.500623589080706,0.8398462814609811,0.462278767551939,0.0033065771901432672,0.07575757575759567,1
0.6226911826276198,0.49983389482611396,0.8386563268456886,0.5027302942770513,0.004133140705474367,0.07575757575759923,1
0.6242985781920531,0.5000938899186641,0.8398129174859075,0.4709755285980325,0.003719858947808727,0.07575757575756725,1
0.6227358829418472,0.49831138584138057,0.8386869589234709,0.48721614901028265,0.004133140705474589,0.07575757575756725,1
0.6242561797685762,0.4995309895273114,0.839784700744125,0.4930491052314339,0.0037198589478086713,0.07575757575756725,1
0.622776133926376,0.49992828736855205,0.8387130300687716,0.4702391968469239,0.0024800136748117513,0.07575757575757791,1
0.6242179331405631,0.49954851203574435,0.8397605441390417,0.4994185716263959,0.004133140705474048,0.06060606060606588,1
0.6228125085011986,0.4998564079707705,0.8387354710274504,0.4735233126348278,0.0037198589478085187,0.06060606060606588,1
0.6241833084138972,0.5005445469373406,0.8397396468357381,0.48631738472479624,0.0037198589478086713,0.06060606060607299,1
0.6228454962003036,0.49985230059297203,0.838754974033009,0.4923284019722282,0.0033065771901430036,0.06060606060607654,1
0.6241518535948082,0.5005433132455175,0.8397214079174118,0.46892999414952763,0.004133140705474311,0.06060606060605522,1
0.6228755143014735,0.4998556369143007,0.838772062790287,0.5006439594094801,0.0033065771901431007,0.06060606060605522,1
0.6241231833832208,0.5005391683743695,0.83970536931625,0.4605304381250252,0.0033065771901432256,0.06060606060605522,1
0.6229029187275981,0.49986019599841813,0.8387871392789823,0.49981028561143165,0.004133140705474422,0.06060606060606588,1
0.6240969687976962,0.500533837404851,0.8396911772249099,0.47526126410028136,0.0033065771901429064,0.07575757575759567,1
0.6229280137784301,0.4998679812506647,0.8388005157249755,0.47623135752482454,0.004133140705474256,0.07575757575758857,1
0.6240729281375765,0.5005180588649873,0.8396785554896746,0.5025030942688222,0.0024800136748116264,0.07575757575758502,1
0.622951060465879,0.49991399310318846,0.8388124368304792,0.4642681595901645,0.0033065771901430174,0.07575757575759567,1
0.6240508193330779,0.500263670380798,0.8396672869740722,0.5090216149718436,0.0033065771901430174,0.07575757575757436,1
0.622972283510939,0.4987074024152827,0.8388230954400182,0.4830130193147834,0.0037198589478087823,0.07575757575757436,1
0.6240304335606645,0.4990521840975582,0.8396572003651821,0.49026529860071744,0.002066731917145806,0.07575757575757791,1
0.6229918771604541,0.499463971395557,0.8388326436608169,0.5057645968341326,0.0033065771901433366,0.07575757575759567,1
0.6240115899488131,0.4997556944216691,0.839648160806765,0.47197330838467777,0.003719858947808491,0.07575757575758857,1
0.6230100100032361,0.5000641714440412,0.8388412007319712,0.5122249718777544,0.003719858947808838,0.07575757575758857,1
0.6239941311976172,0.5004370266057788,0.8396400633243182,0.4671921082027876,0.004133140705474311,0.07575757575759567,1
0.6230268289545146,0.4999054043600651,0.8388488584650546,0.49987699545099307,0.0033065771901431007,0.07575757575759567,1
0.6239779199534048,0.5005358369436237,0.8396328283960277,0.4727048542847892,0.0037198589478087685,0.07575757575756725,1
0.6230424625561446,0.4998135408544649,0.8388556847519345,0.4869760110300022,0.002480013674811918,0.07575757575756725,1
0.6239628358027538,0.500646174554951,0.8396263993052244,0.4858107478631715,0.003719858947808838,0.07575757575756725,1
0.6230570237165052,0.4996513789045829,0.8388617253853383,0.47170396373391144,0.0033065771901428925,0.07575757575757791,1
0.6239487727731811,0.5009519691388234,0.8396207411406443,0.5040207017902332,0.0037198589478087823,0.07575757575758502,1
0.623070611992266,0.4984805668568228,0.8388670042162953,0.46736781781593983,0.003719858947808727,0.07575757575758502,1
0.6239356372481368,0.49727147573849356,0.8396158415315554,0.505185512291362,0.0037198589478086713,0.07575757575758502,1
0.6230833154953745,0.4950209391136694,0.8388715214461522,0.47348455077409357,0.0016531270306626017,0.07575757575758502,1
0.6239233462211573,0.4949800787639831,0.8396117134386687,0.49240293806711505,0.003719858947808602,0.0757575757575566,1
0.6230952124929425,0.4987654847788461,0.8388752496179435,0.4933548472967967,0.00413314070547445,0.0757575757575566,1
0.623911825828264,0.4993811989024848,0.8396084005226377,0.47482799618641475,0.003719858947808824,0.0757575757575566,1
0.6231063727548769,0.5005778816587324,0.8388781267850256,0.5116763661765703,0.0033065771901431007,0.07575757575756725,1
0.6239010101092259,0.4999320556215893,0.8396059853880755,0.4686373875229225,0.0024800136748113766,0.06060606060606588,1
0.6231168586937073,0.5004108736453802,0.8388800473292239,0.5054983376307268,0.004133140705474311,0.06060606060606588,1
0.6238908399576424,0.5000126893844175,0.8396045981575231,0.47188545076724325,0.003719858947808838,0.06060606060606588,1
0.6231267263327047,0.5003779959195064,0.8388808581848642,0.4845948088989581,0.0037198589478085187,0.06060606060607654,1
0.6238812622272947,0.5000005415230382,0.8396044046263926,0.49108066853433857,0.0037198589478086713,0.07575757575756015,1
0.6231360261316775,0.5004731535644964,0.8388804144871027,0.4700197743677263,0.003719858947808713,0.07575757575754949,1
0.6238722289682267,0.49937237748581065,0.8396054299682552,0.5088491993996799,0.0037198589478086713,0.0757575757575566,1
0.623144803694432,0.4997997587001149,0.8388791042390713,0.4688936341156044,0.0037198589478088934,0.07575757575756725,1
0.6238636967708335,0.5002823560122823,0.839605915157615,0.4982160569749135,0.0037198589478087823,0.07575757575759567,1
0.6231531003775699,0.49794283857739025,0.8388838508574792,0.492991030259949,0.0037198589478087823,0.07575757575758857,1
0.623855626200143,0.4980537753663339,0.8395711665681955,0.4698478759836257,0.003719858947808838,0.07575757575758502,1
0.6231609538168097,0.4996375685015288,0.8409730843231036,0.5093492974886009,0.002480013674811654,0.07575757575759567,1
0.623847981305558,0.5002941669487684,0.8401094040951089,0.4663112335936589,0.0037198589478087685,0.07575757575757791,1
0.6231683983842169,0.5001699856173841,0.8398124621244994,0.4937238325674303,0.004133140705474145,0.07575757575757791,1
0.6238407291938707,0.5001904211434102,0.8394772000099157,0.4905285506516353,0.003719858947808616,0.07575757575757791,1
0.6231754655874757,0.5002394522908331,0.8389078591437767,0.4676223023648074,0.0037198589478085603,0.07575757575758857,1
0.6238338396553893,0.5001192049646271,0.8396451755919132,0.4997034763898951,0.0037198589478084354,0.06060606060604812,1
0.6231821844204998,0.5003309739810454,0.8387309995234491,0.46219649520083317,0.003719858947808727,0.06060606060604812,1
0.6238272848346353,0.49997769861346464,0.8402427347745718,0.493605842159502,0.0037198589478086713,0.06060606060605522,1
0.6231885816732193,0.5006175366968312,0.8396816658788621,0.4847591018998009,0.004133140705474367,0.06060606060606233,1
0.623821038938416,0.4984641809012781,0.8392879275510661,0.4653149391154132,0.0033065771901430036,0.06060606060606588,1
0.6231946822071768,0.49965506209044286,0.8390988868864675,0.5088133397704256,0.003719858947808727,0.06060606060606588,1
0.6238150779751417,0.49920026209622304,0.8394286165127283,0.46119099018747106,0.002893295432477086,0.06060606060606588,1
0.6232005092026227,0.496987228341499,0.8390350910541922,0.5053641780986915,0.003719858947808616,0.06060606060607299,1
0.6238093795200899,0.5007525316279459,0.8394530519864535,0.4847286029712642,0.002480013674811682,0.06060606060604812,1
0.6232060843820285,0.4998301992493639,0.8391203027131712,0.4820504490920927,0.0033065771901430036,0.06060606060604812,1
0.6238039225020395,0.5004817453399839,0.8412146262561957,0.5071981902670515,0.0041331407054744085,0.06060606060604812,1
0.6232114282143297,0.49996884458438773,0.8395257150916338,0.4678437286994463,0.003719858947808727,0.06060606060604812,1
0.6237986870071881,0.5003876682942405,0.8393541482057898,0.5052720751259503,0.004133140705474367,0.07575757575757436,1
0.6232165601037574,0.5000446287302928,0.8390664513385575,0.4641838979104722,0.003719858947808616,0.07575757575757436,1
0.6237936540966951,0.5003167215675562,0.8394441181127958,0.49175538230855226,0.004133140705474256,0.07575757575757436,1
0.6232214985667612,0.5001235702033429,0.8390275002136662,0.47949155173054037,0.004133140705474422,0.07575757575758502,1
0.6237888056344811,0.49921905137866784,0.8394662333404522,0.4785963880691143,0.003719858947808727,0.06060606060606588,1
0.623226261400289,0.4973909215459988,0.8390130671906403,0.5080168509617504,0.003306577190143156,0.06060606060606588,1
0.6237841241220834,0.49867907344970536,0.8394764784846418,0.4654660838811514,0.004546745591957779,0.06060606060606588,1
0.6232308658445633,0.49950280756605964,0.839005376047623,0.5220165964082379,0.004133140705474311,0.06060606060607299,1
0.6237795925374772,0.5004385407929466,0.8394824893258803,0.472124432421157,0.003719858947808352,0.0757575757575566,1
0.6232353287434486,0.5001326696740426,0.8390005312198991,0.5046924170570659,0.00454674559195746,0.0757575757575566,1
0.6237751941747297,0.4998041378882844,0.8406204528497921,0.4783559146372339,0.003719858947808727,0.0757575757575566,1
0.6232396667055767,0.4993797402323972,0.8389971498609541,0.4783969073757816,0.004133140705474533,0.07575757575756725,1
0.6237709124812598,0.5005762641150103,0.8394894045176161,0.49193381049929785,0.0041331407054742,0.08333333333335702,1
0.623243896269573,0.49992816739906254,0.8389945984721319,0.4712372185229744,0.004546745591957516,0.08333333333334636,1
0.6237667308892154,0.500417287742816,0.839491679315648,0.5001142072760791,0.0045467455919575295,0.08333333333334636,1
0.6232480340770366,0.4998099291862127,0.8389925363833104,0.46182915856200707,0.004546745591957557,0.08333333333335702,1
0.6249438564854306,0.49567468137012316,0.8394935790156,0.5129463906868644,0.003306577190143045,0.060606060606044565,1
0.6232520970573593,0.4945117060963108,0.8389907585995076,0.4713597107652126,0.004133140705474256,0.060606060606044565,1
0.6237586005774056,0.49864009899276535,0.8394952680610194,0.5076998758681178,0.004546745591957557,0.060606060606044565,1
0.6232561026291203,0.4993320678023426,0.8389891306084094,0.48208675480432556,0.003719858947808838,0.06060606060604812,1
0.6237546169646984,0.50058227695266,0.8394968584892085,0.4851118774804754,0.004133140705474103,0.0833333333333357,1
0.62326006892363,0.49988778871674633,0.8389875574845754,0.5029904860361637,0.004546745591957668,0.0833333333333357,1
0.6237506632187801,0.5004748933686656,0.8394984320562843,0.4735406101825322,0.004133140705474422,0.08333333333333925,1
0.623264015037325,0.4999438885680338,0.8389859676847015,0.5039747941092485,0.004546745591957724,0.08333333333333925,1
0.6237467196547879,0.50043837365756,0.8395000523513807,0.4633863309131101,0.004133140705474478,0.07575757575754949,1
0.6232679613212324,0.49996506100617705,0.8389843038175038,0.5027812777481988,0.004546745591957585,0.07575757575754949,1
0.6237427651715539,0.5004507051646656,0.8395017719574529,0.46171228892924576,0.004133140705474242,0.07575757575754949,1
0.6232719297176703,0.4996757019956042,0.8389825169898579,0.49873812013312135,0.0033065771901430036,0.07575757575756015,1
0.6237387768866738,0.4979077656654448,0.839503636994209,0.475315828755278,0.004133140705474478,0.07575757575759567,1
0.6232759441569945,0.4966974372685553,0.8389805630906397,0.48804725234577184,0.004960027349623433,0.07575757575759567,1
0.623734729703906,0.49354803247923623,0.8395056902150917,0.49330588987641133,0.0045467455919578625,0.07575757575759567,1
0.6232800310306306,0.4961909137306079,0.8389784001585314,0.4712142882478333,0.004546745591957557,0.07575757575759567,1
0.6237305957945105,0.49964052001447107,0.8395079732916133,0.5049223273705958,0.004546745591957613,0.07575757575756725,1
0.6232842197612735,0.4998321515443754,0.8389759863552759,0.4651675038923598,0.004546745591957835,0.07575757575756015,1
0.6237263439687748,0.5005212966425314,0.8395105286536898,0.5022661933604788,0.002893295432477308,0.07575757575756015,1
0.6232885434973261,0.49990291460162384,0.8389732782542745,0.4712852143010156,0.004133140705474589,0.07575757575756725,1
0.6237219389068007,0.5004756101053103,0.839513401119812,0.4930814092149304,0.0041331407054742,0.06060606060607299,1
0.6232930399670195,0.4999348307956985,0.8389702292508084,0.4803295917387302,0.0041331407054741864,0.06060606060607299,1
0.6237173402078151,0.500451809452787,0.8395166394826228,0.4807703989056057,0.0033065771901431007,0.06060606060607654,1
0.623297752539113,0.4999534705762449,0.8389667879473628,0.4944763989816879,0.0024800136748115015,0.060606060606083645,1
0.6237125012039062,0.5004366586605032,0.8395202981845613,0.4687010058582196,0.004546745591957557,0.08333333333333925,1
0.6233027315527728,0.4999661462613025,0.8389628963853342,0.5069680809289844,0.004133140705474478,0.08333333333333925,1
0.6237073674655476,0.5004258072447542,0.8395244392114096,0.4647796965294355,0.004546745591957835,0.08333333333333925,1
0.623308036001086,0.49997561122725126,0.8389584879915961,0.5091439148963894,0.004546745591957835,0.08333333333334636,1
0.6237018749004889,0.5004174224736715,0.8395291343434073,0.4732997798002459,0.004133140705474242,0.07575757575758502,1
0.6233137356832226,0.49998313723272336,0.8389534850875775,0.4959959975685767,0.004546745591957405,0.07575757575758502,1
0.6236959473112598,0.5004105905273633,0.8395344679337526,0.49096272938427676,0.00496002734962335,0.07575757575757791,1
0.6233199139834822,0.49998940068441056,0.838947795768237,0.4729492707845082,0.0049600273496232805,0.07575757575758502,1
0.6236894932250647,0.500404797773843,0.8395405404360452,0.5041198320797594,0.0024800136748115986,0.07575757575758502,1
0.6233266714968864,0.49999480033451926,0.8389413098932621,0.4693015130172846,0.0037198589478087823,0.07575757575758502,1
0.6236824017364276,0.5003997286895194,0.8395474729829535,0.4991737669244553,0.0041331407054741864,0.07575757575758502,1
0.6233341308087303,0.4999995898802906,0.8389338938334157,0.4727673649319459,0.004133140705474672,0.07575757575759567,1
0.6236745369981249,0.5003951767178347,0.8395554134402718,0.4833593163967457,0.00454674559195746,0.0833333333333286,1
0.623342442860509,0.5000039388284266,0.8389253834659496,0.4906784339580926,0.004133140705474506,0.0833333333333286,1
0.6236657308474511,0.5003910026365948,0.8395645445421398,0.4641736650899454,0.0045467455919575295,0.0833333333333357,1
0.6233517955098908,0.5000079602700923,0.8389155746924366,0.5049093462382003,0.004133140705474533,0.08333333333333925,1
0.6236557728502626,0.5003871176408056,0.8395750949797807,0.45988941412719037,0.004546745591957516,0.07575757575758502,1
0.6233624251268514,0.5000117181955087,0.8389042104328437,0.49909684374648833,0.0033065771901432117,0.07575757575758502,1
0.6236443967849968,0.5003834859411889,0.8395873546937983,0.48236387070274434,0.004546745591957668,0.07575757575758502,1
0.6233746323407952,0.5000152128756045,0.8388909626135241,0.47923174056163265,0.00454674559195746,0.07575757575759567,1
0.623631262335512,0.5003801560632297,0.8396016961031632,0.5046751058758056,0.003306577190143184,0.0833333333333286,1
0.6233888032197819,0.5000183240270197,0.838875407173987,0.46473815169522237,0.0045467455919575295,0.0833333333333286,1
0.6236159308194416,0.5003773596122723,0.8396186034162288,0.5116264926138915,0.004133140705474367,0.0833333333333286,1
0.6234054366091039,0.5000206392493896,0.8388569899845577,0.46968705548886525,0.004546745591957405,0.0833333333333286,1
0.6235978353656721,0.5003758160320981,0.8396387116017081,0.49175084297122784,0.004546745591957349,0.06060606060605522,1
0.6234251746680899,0.5000208912510425,0.8388349837131408,0.48611158343655525,0.004960027349623294,0.06060606060605522,1
0.6235762539041119,0.5003778305880542,0.839662851031586,0.47295334064822114,0.004546745591957835,0.06060606060605522,1
0.6234488169623469,0.5000146475990561,0.8388084485841013,0.500383913266974,0.004133140705474422,0.06060606060606588,1
0.6235503282982524,0.5003927032935115,0.8396920650045395,0.46264138817084793,0.004960027349622975,0.07575757575757791,1
0.6234772239623567,0.49997939713891565,0.8387762740533822,0.5121237519904435,0.004546745591957585,0.07575757575757791,1
0.6235193367177281,0.500492049290806,0.8397274220193024,0.4660709130088726,0.004546745591957724,0.07575757575758502,1
0.6235106388956153,0.49936480747571826,0.8387377208755517,0.5053119853673345,0.002893295432477322,0.07575757575758502,1
0.6234843506308081,0.4997830438868722,0.839768589733654,0.48660074300748996,0.004960027349623322,0.06060606060604812,1
0.6235444847329854,0.5003629069565182,0.8386962006789087,0.48914128566554194,0.004546745591957613,0.060606060606044565,1
0.6234598786459041,0.5000532289462398,0.839803066392353,0.5042136569115009,0.004546745591957682,0.06060606060604812,1
0.6235315367233393,0.5003964967990171,0.8386948657800477,0.47479485848820513,0.0028932954324775856,0.06060606060605522,1
0.6236415081243767,0.49982601238282154,0.8396478873180576,0.5129341266202613,0.004546745591957779,0.06060606060606588,1
0.6209225641707785,0.4998674065207814,0.8406633272589201,0.466679524580344,0.004960027349623183,0.06060606060606233,1
0.613470697181538,0.5035969285039343,0.8486027468961899,0.5038662375036738,0.004960027349623239,0.06060606060605522,1
0.6206681780233085,0.5024866750350949,0.8404658508134384,0.46680790424889523,0.004960027349623322,0.06060606060606588,1
0.6191027448967523,0.5024181329172241,0.8449580736448752,0.4888619423611194,0.0045467455919576405,0.06060606060606588,1
0.6172198294124448,0.4993718228086217,0.8475781739957884,0.4606069731754499,0.004960027349623128,0.06060606060606588,1
0.6183661863044472,0.5008389224620909,0.8469268047908493,0.46970194856058123,0.0037198589478085603,0.06060606060606588,1
0.6223091969775792,0.49962881258124525,0.8401800774012426,0.5720385666072743,0.004960027349623128,0.060606060606083645,1
0.6207361916306864,0.5005583933634501,0.8416927012802642,0.43618676455612965,0.0033065771901427815,0.07575757575756725,1
0.6263743777243607,0.5052609974249594,0.8372704024799835,0.4622835638862504,0.005373309107289045,0.07575757575756725,1
0.6065644049951502,0.511533094021819,0.8551129350978626,0.4974712995298837,0.005373309107288879,0.07575757575757436,1
0.6140546024503893,0.5263679415038144,0.8452925472562617,0.5228074625652922,0.011573504858726505,0.07575757575757791,1
0.6259280787658236,0.5158512132359659,0.8419611520127857,0.5032835215261453,0.016946813966015453,0.07575757575758502,1
0.6429878560070157,0.4875428966543061,0.8247525439995036,0.5367713907879054,0.016120250450684256,0.07575757575758502,1
0.6372730839830674,0.4796002005151573,0.8278971344112616,0.5637901111044541,0.007853322782100283,0.07575757575758502,1
0.6192418767976793,0.49061332619380293,0.8395930121227348,0.4729956731583914,0.00454674559195746,0.07575757575758857,1
0.647976872642127,0.48952929262452016,0.8267693196769645,0.428567285770037,0.004546745591957682,0.07575757575757436,1
0.6378400096506034,0.49102166134501934,0.8301015111887055,0.2679441211716586,0.0033065771901431007,0.07575757575757791,1
0.6281860852190495,0.48975866030798154,0.8364434386161816,0.4541327586802673,0.0045467455919576405,0.07575757575757436,1
0.6207540402227781,0.4964601475346379,0.8430409066031047,0.5407158755733376,0.004546745591957557,0.07575757575757436,1
0.6235575671057658,0.49776971042435675,0.8423111879699234,0.5170758341614508,0.004133140705474311,0.07575757575757791,1
0.6207392789046746,0.4975689804469813,0.8423655544531143,0.4959602346966231,0.005373309107288865,0.07575757575757791,1
0.6241632989839732,0.5007231177569751,0.8421385668932236,0.5128181728335506,0.004960027349623294,0.07575757575757791,1
0.6208984244223599,0.49939678726995773,0.8417733058938617,0.516101034758719,0.004960027349623183,0.07575757575758502,1
0.6248693705173668,0.49959688409459,0.8382546522781311,0.4873666992230893,0.004960027349623294,0.07575757575758857,1
0.6209373466610182,0.5022327618132073,0.8411337956796427,0.49255873321296256,0.005786590864954519,0.07575757575758857,1
0.6191024018069832,0.5092108428866362,0.8449415954610694,0.4542561118288381,0.00496002734962335,0.07575757575758857,1
0.619989717335679,0.5080516753174513,0.8455247930296342,0.5160828264224094,0.004960027349623128,0.07575757575759567,1
0.6199251837033106,0.5085337226092109,0.8433520177575559,0.44525012050787705,0.003719858947808352,0.06060606060606233,1
0.62031741905481,0.5071947056678967,0.8472253477619398,0.5207199771934495,0.004546745591957557,0.06060606060606233,1
0.6241812267793269,0.5016322007520407,0.8398088700088719,0.4608372850304575,0.004960027349623239,0.06060606060606233,1
0.6188760812726719,0.49680554785170505,0.8444579278216822,0.5152606576103992,0.00496002734962335,0.06060606060606588,1
0.6181917229230671,0.4973748659313482,0.8450456257101855,0.4559835627778457,0.005373309107288768,0.07575757575758502,1
0.613416617110575,0.4999927312598282,0.8466230250146699,0.5155256259775626,0.004960027349623128,0.07575757575757791,1
0.6159370550722567,0.5005372434581927,0.8471494237449764,0.4891898413527774,0.004960027349623114,0.07575757575757436,1
0.6123875060484482,0.49971736452274784,0.8489944229396231,0.4648565270271314,0.004960027349623294,0.07575757575758502,1
0.6157262387102911,0.5011310765926396,0.8477148628694358,0.5363244509724607,0.0049600273496232805,0.0757575757575566,1
0.6123128404276367,0.5004839404757607,0.8489416975936865,0.459079644791978,0.005373309107288823,0.0757575757575566,1
0.6153900544997205,0.5003485510627682,0.8475155954204858,0.49421128043538504,0.0037198589478085464,0.0757575757575566,1
0.6085580717180021,0.49995087139535577,0.8502301508591453,0.5189975839112516,0.004133140705474478,0.07575757575756725,1
0.6122058183295017,0.5004714105237886,0.8492621367202509,0.4517149180026015,0.004960027349622975,0.07575757575756725,1
0.610179090823448,0.5004582580320499,0.8481945529605464,0.4996661486581631,0.00537330910728899,0.07575757575756725,1
0.6120431241061359,0.5032877645497129,0.8482186642684992,0.5002748236916328,0.005373309107289045,0.07575757575757436,1
0.6113761978763087,0.5017182624819249,0.8485640403033513,0.43260674740236094,0.00496002734962335,0.07575757575757791,1
0.6171911339910052,0.5014874208833309,0.8478846085008603,0.48916875776790286,0.00496002734962335,0.0833333333333286,1
0.607675886599994,0.4992952350666306,0.8486523749238216,0.500840612962899,0.00496002734962335,0.0833333333333286,1
0.645381157430871,0.5016506661609147,0.8264741122244638,0.46325144858793715,0.005373309107288823,0.0833333333333286,1
0.6473728690075753,0.49981514931586124,0.818307029048827,0.5097484636913152,0.003719858947808727,0.08333333333333925,1
0.6125761132205202,0.5174501903411506,0.8549554541351592,0.4941857636256209,0.004960027349623183,0.07575757575758857,1
0.6080564356662723,0.5169505472967973,0.8525358169101647,0.45694059397099596,0.008679886297431896,0.07575757575759567,1
0.5840996057109642,0.5125369531446675,0.8645016988070252,0.46448844078733187,0.014880082048869717,0.07575757575758857,1
0.616414184008117,0.5172179980988139,0.8464222652652265,0.45012779117501667,0.014053518533538076,0.07575757575758857,1
0.6084519140980534,0.5137985598723098,0.8485113522309042,0.561063276161453,0.009506772941580657,0.07575757575756725,1
0.6027722690711281,0.5142272635613855,0.8553379947293481,0.4959037945031,0.01033333645691241,0.07575757575756725,1
0.6041465695697337,0.5130512853644076,0.8536619518629411,0.5027423594648706,0.008679886297431758,0.07575757575756725,1
0.6058712968233563,0.5095335629340977,0.8501398059367526,0.5606078514491257,0.008679886297431952,0.07575757575757436,1
0.6074454878159941,0.5081641403176927,0.850192124020632,0.34176852284813375,0.007853322782100117,0.08333333333334636,1
0.6034001828973071,0.5078803566813063,0.8497541375522049,0.4639994438748441,0.0074400410244345044,0.08333333333334636,1
0.6074876004938058,0.5081866394838079,0.8490685997047887,0.5393811795459549,0.007440041024434893,0.08333333333334991,1
0.6086180515937968,0.5077663532257308,0.8519183117944118,0.4770745886934475,0.0070267592667690865,0.08333333333335702,1
0.6045468349846044,0.5086579164287451,0.8479249629261837,0.4857603453093646,0.0074400410244347265,0.08333333333333925,1
0.6067439835861737,0.5088914962276565,0.8498582529100491,0.4627249012070042,0.006199872622620284,0.08333333333333925,1
0.6044331615207004,0.5100279283398456,0.8481123424098105,0.5025409400431506,0.007026759266769406,0.08333333333333925,1
0.6051681815400978,0.5146464669782745,0.8492318302819204,0.47484289304579375,0.005373309107289087,0.08333333333334636,1
0.6055230241022078,0.5163302072345288,0.8498224434468986,0.49880401214456604,0.007026759266769239,0.07575757575758502,1
0.6065186551343451,0.5104287195789662,0.8483010820630624,0.4850907119020642,0.007026759266769045,0.07575757575757791,1
0.6077933953042183,0.5077444557897903,0.8489686300528689,0.47054883089704763,0.007026759266769211,0.07575757575757436,1
0.6072992355710465,0.5081056897529185,0.8491284707430341,0.49074559846017796,0.006613477509103502,0.07575757575758502,1
0.6088608779998907,0.5080024838533312,0.8476959507514333,0.45808734952386915,0.006199872622620312,0.08333333333335702,1
0.6037667820438595,0.5079889807742358,0.850250332680506,0.5315799189557424,0.00785332278210045,0.08333333333335702,1
0.6080180918241601,0.5080733609853918,0.8508350369267257,0.48449391862834934,0.006613477509103391,0.08333333333335702,1
0.6068858598121777,0.5079431654098902,0.8486658352704319,0.514965838428232,0.006613477509103599,0.08333333333333925,1
0.605610062868829,0.508077386029297,0.8485808993734811,0.4701227438192066,0.005786590864954519,0.08333333333332149,1
0.6039608795952227,0.508378376344554,0.8490754380850281,0.49363900002434785,0.006613477509103544,0.08333333333332149,1
0.6052312943277124,0.5120520859516117,0.8498035641303754,0.47946952148765065,0.006613477509103419,0.0833333333333286,1
0.6039660916385448,0.5116218941159718,0.8506983231166649,0.4942760330191451,0.006199872622620367,0.0833333333333357,1
0.6052749904209742,0.5141364803295814,0.8493062213403848,0.4948005224502422,0.006613477509103391,0.07575757575757791,1
0.6039065842565193,0.5158496692583875,0.8502165336053732,0.4707080867280346,0.006199872622620367,0.07575757575757791,1
0.6053374920877419,0.5159272279184646,0.850140267404875,0.5011448310162943,0.006613477509103599,0.07575757575757791,1
0.6038616802967709,0.5150712104293883,0.8510071966439545,0.45609300155847055,0.006613477509103419,0.07575757575758857,1
0.605282349295079,0.5119280420346634,0.8489579260636577,0.5120666606262279,0.007026759266769364,0.08333333333333925,1
0.6057090707123532,0.5081839323778117,0.8502394764344914,0.4733247252464478,0.0066134775091034465,0.08333333333333925,1
0.6074988808029312,0.5081288512707492,0.8491769664811493,0.49455542895915205,0.006613477509103419,0.08333333333333925,1
0.6035969988029176,0.5078019101469848,0.848676053011999,0.5165776437344825,0.005373309107288823,0.08333333333333925,1
0.6074221629154922,0.5083694468883709,0.848640179832542,0.4808039327584829,0.006199872622619992,0.08333333333331083,1
0.601443873568375,0.5073490583018002,0.8498233291868484,0.4571639385923899,0.006613477509103502,0.08333333333331083,1
0.6095268072799425,0.51091749659568,0.8505937051052105,0.5137670658448356,0.006199872622620423,0.08333333333331083,1
0.5971214267027825,0.5111475310977417,0.8588182148099703,0.4858644092689326,0.006199872622620312,0.08333333333332149,1
0.5922243179539619,0.5077075960371882,0.8610537353562886,0.4697527817121687,0.004133140705474145,0.08333333333332149,1
0.5998196127712614,0.5106564365905202,0.8584334913714273,0.4858486590709143,0.007026759266769045,0.08333333333331794,1
0.6089004899105508,0.5143531925418987,0.8495953773633051,0.49450875575774556,0.006613477509103599,0.08333333333332149,1
0.605982458348264,0.5153631607079376,0.8495466170603492,0.3996884756930095,0.0070267592667690865,0.0833333333333286,1
0.6080733810417945,0.5115550240156113,0.851836800429079,0.5108184173215032,0.007026759266769045,0.08333333333331794,1
0.5808749783335638,0.5103370280488411,0.8677432253426138,0.5838348410940132,0.007026759266769156,0.08333333333331083,1
0.5129198980202463,0.5099072714807851,0.9018587566015739,0.46378729052734957,0.0074400410244347265,0.08333333333331794,1
0.5740643420340383,0.513187753733132,0.8773293658618437,0.47145855568829165,0.01322663188938937,0.08333333333332149,1
0.6011607281574518,0.515791501985391,0.8561573845376964,0.44050229948553465,0.010333336456912187,0.07575757575757791,1
0.6004872604520843,0.519772952958018,0.8570821051644562,0.32030093071598864,0.008266604539766034,0.07575757575757436,1
0.6004153970587338,0.5250630990713708,0.8563487524940084,0.4341751843029175,0.00785332278210056,0.07575757575756725,1
0.6046829480811368,0.5253370797125178,0.8530141683822503,0.8266180611637113,0.00867988629743184,0.07575757575758502,1
0.6045650165990959,0.5246106467187543,0.8547927688680124,0.5335685192020142,0.007853322782100505,0.10606060606060197,1
0.6029219359908291,0.5241501435337641,0.8553742195547217,0.38699080948937525,0.00867988629743173,0.10606060606060197,1
0.5922669482892109,0.5237786898241776,0.8585342687454002,0.43457381883701174,0.00826660453976609,0.10606060606060197,1
0.5841401687025153,0.5234967936735584,0.8659730331922175,0.49807000316295447,0.008679886297431674,0.10606060606061263,1
0.5860947666915126,0.5238109094821605,0.8666784173497832,0.521947241156261,0.009506772941580408,0.10606060606059842,1
0.5867585449207775,0.5234977572871208,0.8663147556647688,0.44515821330430344,0.008266604539766256,0.10606060606059842,1
0.5856454702335422,0.5238302304001127,0.8643235640345098,0.457511480188871,0.008679886297431758,0.10606060606060197,1
0.5857094508969944,0.5200692128815642,0.8663595909835292,0.4970586657274907,0.008679886297431813,0.10606060606060908,1
0.5857446027271214,0.5168969951177983,0.8665239732017387,0.5132862053729541,0.00867988629743184,0.10606060606061263,1
0.5856240599079789,0.5217778277600977,0.8663964225825436,0.5098226752889901,0.0082666045397662,0.10606060606061263,1
0.585854357287668,0.5242867369403513,0.8665218336719789,0.46268455067596065,0.009093491183914823,0.10606060606061263,1
0.5854525574867522,0.5232246867725528,0.8663816562323112,0.4778898537802671,0.008679886297431785,0.10606060606061973,1
0.5862112819806127,0.5240051850592135,0.8665630093117211,0.4805949877283979,0.009093491183915017,0.10606060606060908,1
0.5834650668749184,0.5233420329591435,0.8662721716873951,0.4912593209808336,0.009506772941580713,0.10606060606061263,1
0.5821423050862604,0.5239423711015422,0.8692960358038575,0.49473169645527965,0.008266604539766145,0.10606060606060908,1
0.5779288456503957,0.5233807767154286,0.8734384642241477,0.4716146372380065,0.008679886297431674,0.10606060606060908,1
0.5757200628992067,0.5239134103433566,0.8753517719416433,0.49276265437948163,0.0074400410244348375,0.10606060606061263,1
0.5765919970820088,0.5234215325222438,0.8744350446354008,0.4813105585868044,0.009506772941580519,0.10606060606061263,1
0.576013572887899,0.5226889109468243,0.8756484308179677,0.48641306425529246,0.006199872622620159,0.10606060606061263,1
0.5764474494439933,0.517436458911469,0.8754599979580255,0.493653938923329,0.008679886297431896,0.10606060606061973,1
0.5761036386399159,0.5158133426275321,0.875586796487728,0.4676709644342028,0.008679886297431952,0.10606060606061263,1
0.576385140077126,0.5158026449993584,0.875471357481024,0.49954615165176325,0.009506772941580713,0.10606060606061263,1
0.5761484058632567,0.5157696614682961,0.8755963897906593,0.46924601814580136,0.008679886297432007,0.10606060606061973,1
0.5763539851994289,0.5171820267656391,0.8754401525562585,0.5091116125400346,0.008266604539765979,0.10606060606062329,1
0.5761661918715766,0.5229270285777952,0.8756796991870943,0.48414963077339396,0.008679886297431397,0.1060606060605842,1
0.5763531678021676,0.523489738250559,0.8743914939804633,0.4950904667280629,0.008679886297431702,0.1060606060605842,1
0.5761398279674073,0.5238971953622044,0.8754083749397399,0.49725123246905784,0.008679886297431785,0.10606060606059131,1
0.5764297487549472,0.5233774446395849,0.8755771888488484,0.46459253207254325,0.00785332278210056,0.10606060606059842,1
0.576061552874926,0.5239604913428194,0.8730071123755619,0.48319514001446523,0.008679886297431674,0.10606060606060197,1
0.588267077039647,0.5233035321512813,0.8630087486171056,0.47896563286889593,0.00867988629743173,0.10606060606059842,1
0.5972483507443535,0.5240952062336668,0.8581165123485034,0.48108534291266686,0.008679886297431674,0.10606060606059842,1
0.5920344506104038,0.5227884571195032,0.8591535582995349,0.4973551087814276,0.008266604539766062,0.10606060606060197,1
0.5838974755463506,0.5232862309783916,0.8649154866731975,0.48316995795495377,0.00785332278210045,0.10606060606059842,1
0.589358853443035,0.5235920274210775,0.8627032105678912,0.5318816070310771,0.009093491183914906,0.10606060606059842,1
0.595592317166,0.5238185116304286,0.8568391227550691,0.4519960086789985,0.008266604539766007,0.10606060606059842,1
0.5948144857650549,0.5234246472828781,0.857809818358604,0.43451451758806403,0.0082666045397662,0.10606060606060908,1
0.5955295942643446,0.523950395856706,0.85697244845166,0.4691666946658432,0.007853322782100366,0.1060606060605842,1
0.5946852390139228,0.5232419952584544,0.8578667842073012,0.5079278119721301,0.008679886297431952,0.1060606060605842,1
0.5958609921106793,0.524814606593572,0.8566714140694403,0.533353748260958,0.00702675926676935,0.10606060606059131,1
0.5934547294501995,0.5236013571450654,0.8595575351250937,0.4684988981839495,0.008266604539766256,0.10606060606059842,1
0.5910535584067604,0.5239872242917052,0.861891229751188,0.47741218371143374,0.00826660453976609,0.10606060606059842,1
0.5898170588383845,0.5230102965374261,0.8619035451352894,0.49217272210317203,0.008266604539766145,0.10606060606059842,1
0.584931563446622,0.5291525942513481,0.8650437009738623,0.4386106446506291,0.008679886297431674,0.10606060606059842,1
0.5861439576006194,0.5318193397916721,0.8675461545499592,0.48996473462106815,0.009506772941580713,0.10606060606060197,1
0.585414759332012,0.531619189728395,0.8669110411215752,0.45505183567020957,0.010746618214577633,0.08333333333334991,1
0.5859174096877137,0.528868540619353,0.866296019888383,0.4769153522156777,0.010746618214577716,0.08333333333334991,1
0.5855514102788975,0.5256612133203312,0.8665568412972089,0.4765988628688387,0.011573504858726838,0.08333333333334636,1
0.5858232554589241,0.5283106650443653,0.8663848041445037,0.5366175099001151,0.011159899972243245,0.08333333333334991,1
0.585622247531128,0.5293640966260977,0.8665163919355865,0.569705955646016,0.010746618214577744,0.10606060606058065,1
0.5857662453562257,0.5301812236046295,0.8664069083981895,0.49021742992237927,0.009920054699246686,0.10606060606058065,1
0.5856708949990753,0.5316275656323991,0.8665039366917255,0.4879054929952173,0.010746618214577577,0.10606060606058065,1
0.585722291950829,0.5314368431884964,0.866413046878548,0.4850248638798031,0.010746618214577772,0.10606060606059131,1
0.5857131576151335,0.5314578991455734,0.8665027963238437,0.46199665507868865,0.010333336456911826,0.08333333333334636,1
0.5856785033382446,0.5315306688544088,0.8664093999312041,0.4903274124769391,0.011159899972243273,0.08333333333334636,1
0.585763222928053,0.5313431998486227,0.8665120517251672,0.476357055227366,0.010333336456911937,0.08333333333334991,1
0.5856121451304539,0.531789519820047,0.8663919918198413,0.48056851423617386,0.010746618214577605,0.08333333333335702,1
0.5858812300843468,0.5286419582914748,0.8665447802416628,0.4923391343394295,0.010746618214577577,0.10606060606059842,1
0.5844974121265325,0.5265113326922255,0.8663163914545076,0.4689596742683355,0.0111598999722433,0.10606060606059842,1
0.5854409805466216,0.5273777190724724,0.8669468753212359,0.497461915328835,0.010746618214578021,0.10606060606059842,1
0.5785007577585848,0.5272151554575973,0.8687891592100404,0.48391268437044566,0.010333336456912104,0.10606060606060908,1
0.5758186331388436,0.5249274380138479,0.8731847041978684,0.4787478340171402,0.009506772941580602,0.1363636363636438,1
0.5765038531603135,0.5264938426655675,0.875796038145185,0.4991646393200575,0.011573504858726477,0.1363636363636438,1
0.5760812335023209,0.5268535347991415,0.8753900547738133,0.4800203717061027,0.011159899972243412,0.1363636363636367,1
0.5764009135187187,0.5314468337335475,0.875621440882109,0.5044921375035721,0.01115989997224344,0.1363636363636438,1
0.576127588922116,0.5303141814590157,0.8754617906966276,0.4862521575425803,0.011159899972243356,0.12121212121212466,1
0.5763886042037696,0.5303475303697112,0.8755812994977463,0.47438432944839865,0.011159899972243412,0.12121212121212466,1
0.5761044563983349,0.5316553513085209,0.8754882071311181,0.5005162218127286,0.010333336456911882,0.12121212121212466,1
0.5764799508267195,0.5315420983048315,0.8755622733343049,0.4796619329897541,0.011159899972243523,0.12121212121213532,1
0.5757026141318884,0.5275146323190807,0.8755022061387608,0.485507110371196,0.011573504858726366,0.12121212121212466,1
0.5753217376343052,0.5239217631453342,0.8755532847899994,0.4901574701617911,0.0115735048587267,0.12121212121212466,1
0.5765265541867304,0.5239654344032686,0.8755028141649353,0.45125883154313473,0.011159899972243356,0.12121212121213176,1
0.5760883218821781,0.523416944691224,0.875575661030757,0.4936933400323447,0.00950677294158088,0.12121212121213532,1
0.576388702330364,0.5238051631259504,0.8753576202067731,0.5057697668104905,0.01074661821457755,0.12121212121212466,1
0.5761446807733659,0.5246785919775117,0.8733658810335415,0.47931854145351377,0.010333336456912298,0.12121212121212466,1
0.5775409669324709,0.5269472039622465,0.8746921286342353,0.4858876729721512,0.010746618214577716,0.12121212121212466,1
0.5761612879798234,0.5251795117903788,0.8712981050859997,0.4806482438775541,0.010333336456911882,0.12121212121214242,1
0.5763495675582495,0.5289709742479652,0.8748080442054127,0.4917248292860358,0.010746618214577827,0.13636363636362603,1
0.5761678540972897,0.5301023824038963,0.875762373077009,0.4861590834892673,0.01074661821457766,0.13636363636362603,1
0.5763450769802964,0.5322657384377779,0.8754020434727212,0.47224815464309244,0.01074661821457766,0.13636363636362603,1
0.5761711960157572,0.5299244454897972,0.8756233811962368,0.4957478751067999,0.01074661821457766,0.13636363636362603,1
0.5763422641186943,0.5319787507520101,0.8753930219754225,0.4636852354535671,0.010333336456911826,0.1060606060605842,1
0.5761739416512761,0.5286681901563404,0.8743642354050498,0.497446305306298,0.010746618214577716,0.1060606060605842,1
0.5763391969404601,0.5237473073030847,0.875754947991703,0.4780714082984054,0.009093491183915295,0.1060606060605842,1
0.5761777024705863,0.5235701971464987,0.8753031141694267,0.4820960042704362,0.010333336456912132,0.10606060606059842,1
0.576334340480232,0.5236876552003764,0.8758428095199804,0.49792692181688625,0.01074661821457755,0.12121212121212466,1
0.576184135575756,0.524309378541511,0.8747522619702128,0.4733428040599683,0.01074661821457755,0.1212121212121211,1
0.5763257068021628,0.5251598872913018,0.8747240732977708,0.49788739579841945,0.010746618214577827,0.12121212121212466,1
0.5761958331045081,0.525079586647711,0.8744019837605685,0.48473703014984254,0.010746618214577605,0.12121212121213176,1
0.5763096819634668,0.5272560096930731,0.8761046320065493,0.4840039826336128,0.010746618214577605,0.12121212121209268,1
0.5762181396028028,0.525432372285514,0.8744822113970463,0.49644831079762136,0.010333336456912076,0.12121212121209268,1
0.5762778793454533,0.5312874163377889,0.874111304751727,0.4853300284853019,0.010746618214577688,0.12121212121209268,1
0.5762651360515088,0.5292264775812175,0.8736599514424603,0.49587087344353115,0.009920054699246408,0.12121212121210334,1
0.5762045528324908,0.5288806859032938,0.8724498628846338,0.4829563262605525,0.01033333645691202,0.1212121212121211,1
0.5763896430582066,0.5301416627886145,0.8697041868016013,0.49148491693397783,0.009093491183914962,0.121212121212114,1
0.5759664555766268,0.5272895382174215,0.8690051673315089,0.4986513551677012,0.009920054699246464,0.12121212121211045,1
0.57908889201812,0.522995315914174,0.8713960509501237,0.46319785539546976,0.010333336456912076,0.12121212121212466,1
0.5788700539099632,0.5242153457370333,0.869031452959655,0.4868850778940976,0.009920054699246353,0.12121212121212466,1
0.5816832537340497,0.5230170651074674,0.8680948422224644,0.47094199279085147,0.009920054699246353,0.12121212121212466,1
0.5818379716349977,0.524882931651452,0.8658292190900594,0.4673406441860636,0.007853322782100283,0.12121212121212466,1
0.5794788325801715,0.5235517753324822,0.868604904886069,0.5060874374875743,0.009920054699246353,0.12121212121213532,1
0.5789479803876374,0.5244366730804978,0.8673006433283337,0.46388401275827046,0.007440041024434588,0.12121212121211045,1
0.5762147179406796,0.5270289535417503,0.8692544821483752,0.5029419847541284,0.010333336456912132,0.12121212121211045,1
0.5814465126589022,0.5288600719103649,0.868673781103813,0.49064914770672285,0.009920054699246297,0.12121212121211045,1
0.5813074533783955,0.5312136939773839,0.8675178907762247,0.4746972443428599,0.00950677294158063,0.121212121212114,1
0.5806617591570923,0.5307074322557123,0.8667414265740822,0.5177314028829518,0.008266604539766034,0.12121212121213532,1
0.5808807600778686,0.5312214942693765,0.8660643380700666,0.46662998372801934,0.009506772941580768,0.12121212121213532,1
0.5776904170272907,0.5287106662718649,0.8685617541094781,0.4961674602962311,0.009920054699246075,0.12121212121213532,1
0.5799965249864647,0.5252304930595427,0.8691896691944512,0.4865416510562408,0.009506772941580713,0.12121212121214242,1
0.5811656885938175,0.5238583975601201,0.8680733479065806,0.4631885189788005,0.009506772941580713,0.13636363636363313,1
0.5767580610358055,0.5235394460234349,0.8687900392411991,0.5193161622387045,0.00950677294158063,0.1363636363636367,1
0.5798453642016788,0.5237442402470291,0.8665503633019398,0.45946509452756384,0.009506772941580713,0.13636363636363313,1
0.5808618144496498,0.5235932897515956,0.8684875501413363,0.49925797327836063,0.00950677294158049,0.13636363636363313,1
0.5808828512836814,0.5236424093239372,0.8666903625284172,0.47762588287935764,0.009920054699246353,0.1212121212121211,1
0.5811974362855086,0.5239746728222623,0.8691951817094983,0.4709295526311834,0.009920054699246353,0.1212121212121211,1
0.5815588376637795,0.5244380654562456,0.8696107238208821,0.5200950933368111,0.007853322782100283,0.1212121212121211,1
0.5773392149428094,0.5248095230632118,0.8674468646594793,0.4687298222158763,0.008679886297431674,0.12121212121212466,1
0.579977230484254,0.5281790121943196,0.8688820419638572,0.509432269446511,0.009920054699246464,0.121212121212114,1
0.5778665925414843,0.5282555902379762,0.8694578418830784,0.47719878960836687,0.009506772941580685,0.121212121212114,1
0.5767126627231314,0.5308177727129201,0.870489654472921,0.4826071199753873,0.009506772941580824,0.1212121212121211,1
0.5779310661780359,0.5281743402119495,0.8692731655224298,0.49475916558448424,0.00950677294158049,0.12121212121212466,1
0.5812091618050371,0.525805634364977,0.8707634907133206,0.45230634778699336,0.00950677294158038,0.12121212121211045,1
0.5777209272906354,0.5248699178023993,0.8683633231194167,0.5216069505554788,0.00950677294158063,0.12121212121211045,1
0.5820428130100133,0.5236696038252258,0.8689540321456005,0.46328609262443005,0.009506772941580768,0.12121212121211045,1
0.5819027730889538,0.5235508107984662,0.8676701972788747,0.5068267673342398,0.009920054699246575,0.121212121212114,1
0.5837461331707529,0.5238078286082782,0.8660300766110516,0.49672930005289767,0.009506772941580519,0.12121212121212466,1
0.5847576470847795,0.5234597021957355,0.8667638803754031,0.47153733067848036,0.009506772941580657,0.12121212121212466,1
0.5861820494082541,0.5248869242375765,0.8661834924658731,0.514233968989735,0.008266604539765923,0.1212121212121211,1
0.5835448564483614,0.5246181587375593,0.8667442087797108,0.4782960431718012,0.009506772941580657,0.12121212121212466,1
0.5832789443120527,0.5247559716608454,0.8660857541697965,0.49775317869189295,0.009506772941580768,0.13636363636361537,1
0.5802732499726919,0.5231056113446435,0.8674713484764391,0.4945548302218667,0.009920054699246353,0.13636363636361537,1
0.5778454113699509,0.5255749399022281,0.8668346957675417,0.46609296022432456,0.009506772941580713,0.13636363636361537,1
0.5782556849138144,0.5249285640367102,0.8682287897789798,0.5107874113354506,0.009506772941580713,0.13636363636362603,1
0.5786240079786774,0.526577189787337,0.8684741418215002,0.4647110303369434,0.009506772941580546,0.1212121212121211,1
0.5793444708737003,0.5244815708755347,0.8683032323010058,0.48284114119257615,0.009093491183915073,0.1212121212121211,1
0.5795766152296828,0.5265543835174564,0.8680529553170626,0.48952308560433744,0.009506772941580713,0.12121212121212466,1
0.5821198499288138,0.5265758794324091,0.8679289044693256,0.45525660346712427,0.008679886297431896,0.12121212121212466,1
0.5804427285936045,0.5260321887301782,0.8686930313880795,0.5128989446641493,0.009093491183915073,0.12121212121212466,1
0.5787795704800903,0.5231232520481857,0.8681451410155487,0.47628673158714885,0.008266604539766256,0.12121212121212466,1
0.584614601567848,0.5244774430050795,0.8668911445577461,0.47334202016678073,0.009093491183914768,0.12121212121212466,1
0.5841957446786312,0.5208018308359191,0.8694076197626374,0.5077322969707695,0.009093491183915017,0.12121212121213176,1
0.5770521579509948,0.5194358627032527,0.8726049576451679,0.47609249603033976,0.009093491183915073,0.12121212121213176,1
0.5877925416248642,0.511310981959391,0.8648055920280366,0.5061230323631385,0.009093491183915073,0.12121212121213532,1
0.5864373617980618,0.5150397569402918,0.8647601351711856,0.4972835856938189,0.008679886297432007,0.12121212121213176,1
0.5922910584604302,0.521511990498807,0.8621391254037654,0.4687884901601691,0.00909349118391485,0.12121212121213176,1
0.5938476804826919,0.5243580072636774,0.8625394097548924,0.5222174999469711,0.008679886297432007,0.12121212121209624,1
0.5962526435326027,0.5197415232537588,0.8599486949486898,0.4595972063850592,0.009920054699246603,0.12121212121209624,1
0.58849204445606,0.5269565379836241,0.8673538816621291,0.4864469836316375,0.006613477509103544,0.12121212121209624,1
0.5819079462677659,0.5245831821508862,0.8625887512618442,0.4830415997851543,0.009093491183915128,0.12121212121211045,1
0.5928941298506607,0.5260961147830923,0.8620837261168147,0.45628260997818415,0.007853322782100283,0.136363636363658,1
0.5870604318964607,0.527600405486969,0.8658350845804932,0.45943907390691524,0.008266604539765951,0.136363636363658,1
0.5874161489297656,0.528650201163058,0.8637301273373762,0.5544870835801502,0.009506772941580713,0.136363636363658,1
0.5854660557760785,0.5291405921724749,0.8676745930893452,0.5474588788480194,0.008266604539765979,0.1363636363636651,1
0.5802515908697284,0.5192626039648176,0.8684328172883504,0.2851006096557229,0.00867988629743173,0.13636363636362603,1
0.5909470433578978,0.5242586060301734,0.8643235109081862,0.5292369622840368,0.008679886297431785,0.13636363636362603,1
0.5881177775370893,0.5190832738171767,0.8655261008899402,0.47044818619615575,0.008266604539766145,0.13636363636362603,1
0.5887414888720157,0.5178146249205043,0.8637613035289926,0.5074328582845555,0.00578659086495463,0.1363636363636367,1
0.5881039571098383,0.5156139172447478,0.8664962438672856,0.536674063392095,0.0074400410244347265,0.12121212121213532,1
0.585303920002523,0.516409109348469,0.8666425086499965,0.4892045230403482,0.007440041024434782,0.12121212121213176,1
0.585949944712481,0.5158451968124975,0.8661717572102531,0.47009743411107097,0.0074400410244348375,0.12121212121212466,1
0.5855281741182958,0.5195694588703947,0.866814439173256,0.4547793211756963,0.006199872622620367,0.12121212121213532,1
0.5855115115857709,0.5171551510648004,0.8660251278839671,0.4705188594383671,0.006613477509103544,0.15151515151517003,1
0.584122192690494,0.5180487347355518,0.8670145400322373,0.5219416534603247,0.007440041024434782,0.15151515151517003,1
0.5875573112517636,0.5164433129170922,0.8655696396968366,0.46675265430674207,0.0070267592667690865,0.15151515151517003,1
0.5792120694270815,0.5167820706422118,0.8704467120066641,0.5253101078220026,0.007440041024435032,0.15151515151516648,1
0.5704025107631696,0.5152655728066501,0.876470331997289,0.4759756483368064,0.007026759266769031,0.1363636363636438,1
0.5766073829915777,0.516330209644706,0.8735059604396558,0.48405195741619783,0.007853322782100616,0.1363636363636438,1
0.573952370736563,0.515375691446697,0.8736885642649034,0.5209398442569889,0.0074400410244348375,0.1363636363636438,1
0.5818723394733671,0.5162738841545396,0.8686093713295719,0.436244453075754,0.007440041024434893,0.13636363636364734,1
0.5847452785199219,0.5154106170831846,0.8658625350249622,0.4635689329666449,0.0070267592667690865,0.1212121212121211,1
0.5862010826889186,0.5162520433872181,0.8668138630813217,0.5526829055170532,0.007026759266769461,0.1212121212121211,1
0.5846749157796982,0.5154212115018132,0.8662335400181402,0.5048679358528347,0.006199872622620423,0.1212121212121211,1
0.5839024351393806,0.5162550659293015,0.8665187254920192,0.5328565261259505,0.0070267592667690865,0.12121212121213176,1
0.5851210043116257,0.5153939225610318,0.8671032975716357,0.4820566230617092,0.00702675926676935,0.12121212121212466,1
0.5820940970294355,0.5163589810518031,0.8671493186022005,0.4585021887394282,0.007026759266769184,0.12121212121212466,1
0.5854571305571921,0.5163585995292754,0.8663115670464585,0.46960974083102136,0.007026759266769295,0.12121212121212466,1
0.5847471204148441,0.5164809791321768,0.8686926359240537,0.45151120631424313,0.005373309107288879,0.12121212121212466,1
0.5843126538751161,0.5169455025467473,0.8679620080591267,0.5014136606024058,0.007440041024434671,0.1212121212121211,1
0.585329272602592,0.5163811822783255,0.8682375489275425,0.49006098009281684,0.007440041024434893,0.1212121212121211,1
0.5840615622511639,0.5154829090274489,0.8674199187221869,0.4781880429698097,0.005373309107289087,0.1212121212121211,1
0.583265833370956,0.5161596283027496,0.8695555636274156,0.49380060912156415,0.007026759266769267,0.12121212121212466,1
0.5841489188152506,0.5155195560032328,0.8662303663440051,0.4487876404322859,0.007026759266768878,0.13636363636363313,1
0.5843949968676894,0.5161477885937553,0.8685876520900907,0.502238529780238,0.005786590864954463,0.13636363636362603,1
0.585965541489689,0.5155250195288701,0.8669058129396873,0.47235101175805855,0.006613477509103544,0.13636363636363313,1
0.585514480237721,0.5161437064371482,0.8677611777359916,0.48064685703370696,0.007026759266769031,0.1363636363636438,1
0.5849890764045745,0.5155304693424426,0.8670049467281749,0.4958475094169057,0.0070267592667691,0.12121212121211045,1
0.5845944466024298,0.5161333127040408,0.8678918300400639,0.46923387582642684,0.0074400410244348375,0.12121212121210334,1
0.5829114367589181,0.5155544858766312,0.8683314936391248,0.5053380373910349,0.004960027349623294,0.12121212121211045,1
0.5850073556215218,0.5160603739565839,0.8677157237483357,0.484123829143688,0.007440041024434976,0.121212121212114,1
0.585072741201522,0.5162596491149296,0.8667879667552979,0.4933787677890927,0.0070267592667690865,0.12121212121214242,1
0.5855659511889764,0.5174362780030611,0.8673980018619842,0.49123230866705003,0.0074400410244348375,0.12121212121214242,1
0.5837793450118303,0.5154846009346675,0.8657496945800136,0.47275665359104296,0.007026759266769142,0.12121212121213176,1
0.5855461875500259,0.5162195448569962,0.8672374706770262,0.5011708493159363,0.007026759266769184,0.12121212121214242,1
0.5842674533169248,0.5154433908283831,0.8685405207180883,0.4612674205525242,0.006613477509103655,0.1363636363636438,1
0.5846213734551795,0.5162334637209449,0.8685992108071926,0.5062835812923108,0.007026759266769239,0.1363636363636438,1
0.5836365984651818,0.515430664985083,0.8674591410946126,0.46568473315330133,0.007440041024434782,0.1363636363636438,1
0.585705821120337,0.5162477638042653,0.8679912107622527,0.4975809964420497,0.006613477509103391,0.13636363636365445,1
0.5854127753085907,0.5154143090333564,0.8668064719538102,0.48094909405687863,0.007440041024434671,0.1212121212121211,1
0.5846822884457179,0.5162663291083626,0.8686347892951296,0.4856975299284253,0.007026759266769239,0.1212121212121211,1
0.582554959199127,0.5153933748649195,0.8657878944623763,0.5009291853224676,0.0066134775091033215,0.12121212121212466,1
