mean_ecg,std_ecg,skew_ecg,kurt_ecg,mean_eda,std_eda,skew_eda,kurt_eda,label
0.00038271,0.161669833,1.356153462,5.983621185,5.86339035,0.354231409,-0.09030624,-0.679124758,0
0.000404617,0.149817856,2.075295456,9.066903567,5.685366712,0.150194471,0.635460855,-0.151088214,0
0.00359011,0.14564375,1.847444664,7.352801622,5.458957509,0.121729748,-0.026871905,-0.937734651,0
0.003005147,0.144400962,1.803822043,7.27461571,5.281790706,0.090869203,0.643253049,-0.856256895,0
-0.000122844,0.152221589,1.946307501,8.128571101,5.335429927,0.160838273,0.664654277,-1.252526889,0
0.000665157,0.159389334,1.853705952,7.420227058,5.422981371,0.108832226,0.297937343,-0.926266633,0
0.001804105,0.152289613,1.561143547,5.830995967,5.551684298,0.221408021,0.522534421,-1.435234648,0
0.003642236,0.154835277,0.976563439,2.494545186,5.666345705,0.151956367,-0.170849607,-0.209908267,0
-0.000296016,0.148749057,0.984127046,2.919541444,5.567623411,0.07234937,-0.53849341,-0.7772299,0
-0.000950167,0.127804214,1.431572813,5.198066571,5.439501844,0.100858669,0.492142621,-0.9802254,0
0.00193791,0.122091281,1.963982719,7.880010623,5.307300786,0.059271103,0.102297749,-0.896894768,0
0.002501698,0.121559306,2.042896052,8.894494758,5.23151583,0.037968451,0.758509539,-0.30847184,0
0.000446392,0.127095533,1.788523279,7.059062755,5.282006945,0.08526039,0.283537918,-1.603547103,0
-0.00285759,0.128514678,1.891232521,7.491013733,5.323865618,0.051269827,0.32099552,-1.074479407,0
0.000551442,0.131673484,1.856107364,7.315505668,5.344222586,0.068077412,0.486561474,-1.051057073,0
0.004444787,0.136128451,1.454535199,5.518312608,5.352956336,0.061520616,0.518584738,-0.893573384,0
0.00069565,0.143800387,0.630152474,3.153575765,5.637417167,0.4632758,0.901096132,-1.025473215,0
0.001280411,0.142130955,0.773639675,3.839808897,5.939134761,0.341390706,-0.10468627,-0.989148007,0
0.001750704,0.129603741,1.450844224,5.753987921,5.76119303,0.187138717,0.845738099,-0.218076458,0
0.001275585,0.124858728,1.328961012,5.182546427,5.539887728,0.087936117,0.286912373,-0.929862535,0
0.001112464,0.132458128,1.437328034,5.520107093,5.407834135,0.069003187,-0.018245895,-1.172724905,0
5.48E-05,0.135672938,1.413456635,5.236267387,5.300544902,0.059234846,0.176622893,-1.018465725,0
-0.000857888,0.129656034,1.243244694,4.730365702,5.366779872,0.269794985,1.586328788,0.823557516,0
0.002328454,0.129920771,1.284975553,4.892142004,5.613276236,0.29027604,-0.356184762,-1.257673509,0
0.003723679,0.131102406,1.380714805,5.396206547,5.620025253,0.156565869,0.814610336,-0.346112378,0
0.001196084,0.128272471,1.291871051,5.227629193,5.42783759,0.079212938,0.192724791,-1.111914291,0
-0.000190972,0.128428441,1.533156686,6.392284357,5.305153493,0.064301776,0.130971734,-1.062351099,0
0.001483409,0.130414355,1.614109784,6.60613514,5.202520697,0.056947461,0.026852081,-1.014744393,0
0.003449432,0.129214106,1.37252018,5.281004829,5.125709043,0.038937226,0.377062522,-0.653164259,0
0.001346695,0.12788428,1.288070087,5.592010466,5.060006823,0.042373088,-0.079317763,-1.224193153,0
-0.015570478,0.133388412,1.134644403,4.626996673,5.183922849,0.394534175,2.750827003,6.460075136,0
0.00080433,0.136236474,1.18282495,4.84056674,5.943216324,0.718605826,-0.205482834,-1.674841315,0
0.0177189,0.142164429,0.82447403,3.977743876,6.564081464,0.249708899,-0.365230121,-1.212360926,0
0.001372931,0.142089049,0.89868459,3.42534678,6.420357513,0.256636168,0.558521575,-1.123342294,0
0.002884421,0.127202236,1.412196234,5.041331134,6.205299432,0.092082739,1.052167126,0.803109228,0
0.001417276,0.123713649,1.295938427,4.601372992,6.065097427,0.11002898,-0.22790318,-1.05142065,0
-0.00160641,0.119916018,1.375170883,5.27392852,5.880791582,0.113222279,0.169450092,-0.928436924,0
-7.87E-05,0.120736437,1.546978256,6.403781017,5.704475294,0.096935784,0.165223992,-1.229121265,0
0.000436281,0.123955471,1.726207978,7.531591179,5.564311327,0.067181621,0.318795665,-1.136375996,0
0.001726979,0.123819414,1.707232128,7.262953971,5.455726787,0.061595483,-0.26698545,-1.039915972,0
4.33E-05,0.126240143,1.37623672,4.945355985,5.360732596,0.054127078,0.493691745,-0.849365573,0
-0.004172843,0.133894764,1.243979446,3.961373655,5.43912517,0.248072956,2.162396155,3.252783889,0
0.005114456,0.125512526,1.194492368,4.455540601,6.057597188,0.550621129,-0.231416658,-1.661829425,0
0.004803367,0.119283332,1.314453954,5.500236563,6.404203687,0.18925294,0.375091156,-1.204478695,0
-0.000681721,0.123315505,1.45867039,5.676731583,6.156902749,0.116520067,0.485590818,-0.757034676,0
0.001427026,0.12742018,1.245766157,4.950079912,6.001646096,0.067864974,0.335296636,-1.067502559,0
-0.001131651,0.132027432,1.326173066,5.410859321,5.879753658,0.071348677,-0.173880923,-1.333914268,0
-7.53E-05,0.130816113,1.316347714,5.352152359,5.903970718,0.152305816,1.489211127,0.854438524,0
-0.00092257,0.130354112,1.15548889,4.400140056,6.078177098,0.15254666,-0.555195612,-1.162552959,0
0.005320829,0.132604302,1.172937191,4.152420186,6.585410581,0.503602215,0.645588292,-1.250709972,0
-0.002003932,0.130760135,1.28111263,4.967020588,6.788496072,0.370720415,0.594848152,-1.085831625,0
-0.01546136,0.143819275,0.960973337,3.462913988,6.66249733,0.201177788,0.28884951,-1.130421814,0
0.010938832,0.14861281,0.907434059,3.707392697,6.774745396,0.332649559,0.207606986,-0.760551655,0
0.01501886,0.127785374,1.624372066,7.245432376,6.375412369,0.521734974,0.820253967,-0.7924494,0
-0.009304432,0.143527885,0.688945375,4.867716911,5.932007381,0.163946565,1.316471608,1.795823077,0
0.004316515,0.147094374,0.613812422,4.337464539,5.981298392,0.221585108,0.925106446,-0.398765818,0
0.011724531,0.136054159,1.276332913,4.544579719,5.825845827,0.27983808,0.644795879,-0.395721143,0
0.000358122,0.136197914,1.140759319,4.100580134,5.61706216,0.110094415,0.083275067,-1.380668213,0
-0.00169659,0.125549798,1.156423494,4.75345997,5.543111638,0.133377231,0.418632525,-0.961997601,0
-0.008853581,0.122715217,1.360394807,5.616508393,5.43830501,0.144064815,1.473161648,1.884159737,0
0.002590962,0.126195634,1.531869394,6.549315776,5.522867475,0.203283758,0.554957333,-1.040814098,0
0.013624132,0.131917692,1.784674618,7.506942255,5.454671424,0.208037721,0.744716167,-0.467661492,1
0.001120566,0.134170197,1.868379462,7.762718614,5.23504982,0.075233871,0.693256738,-0.976663846,1
-0.002103777,0.130203624,1.555902256,6.274517438,5.160825021,0.026456832,0.291790557,-0.748557045,1
0.00012905,0.126081498,1.481743162,5.509363552,5.105821827,0.044559388,-0.482954,-0.971120473,1
0.002534598,0.126991166,1.237960444,4.206158921,5.011948504,0.068583015,-0.247206348,-0.941001192,1
0.004505892,0.142360486,0.653918085,2.592348564,4.898636791,0.06922888,0.080754319,-1.101753115,1
-0.002179799,0.152307043,0.805959251,2.396229606,4.82130552,0.035560944,0.91558056,-0.134181882,1
-0.002003148,0.148271974,1.13655033,3.463176621,4.786781747,0.022798799,-0.394152091,-0.075841408,1
0.005260123,0.146673287,1.251392639,4.645605878,4.742776108,0.038953206,-0.135287178,-0.895165535,1
0.002449807,0.141915905,1.371183967,5.553142338,4.675574711,0.043378224,0.193218064,-0.99545823,1
0.000243203,0.147897221,1.342652919,5.369983563,4.601461901,0.044024228,-0.201898536,-0.36192839,1
0.000793664,0.15139238,1.193633901,4.704323946,4.529211426,0.042458966,0.005332522,-0.46351181,1
0.000310939,0.149575757,1.057745589,4.506113675,4.457846723,0.044241974,-0.057776166,-1.040178407,1
-0.001476151,0.156193806,1.091388109,4.278151028,4.386203929,0.042491737,0.153212396,-0.925829546,1
0.000139723,0.153863234,1.020117269,3.979226138,4.316773605,0.041226191,0.003973762,-1.036325324,1
0.003892266,0.153604593,0.832687284,3.053638618,4.24982605,0.039257414,0.097868526,-0.903324352,1
0.002071551,0.151916957,0.775051681,2.576794341,4.178431375,0.045747489,-0.1321501,-1.158177391,1
-0.002368175,0.150314699,1.020573461,3.722646499,4.105147988,0.042189963,0.227475902,-0.823819335,1
0.000728132,0.152599546,1.185392762,5.130858254,4.038055202,0.040022412,-0.040715279,-0.930857706,1
0.00336026,0.154893574,1.094093159,4.819016116,3.978327887,0.033991482,0.385850526,-0.791413997,1
0.001065033,0.155892702,1.094210256,4.820011552,3.926132529,0.031516371,-0.139407071,-0.81147069,1
0.001716784,0.155788948,1.041630636,4.585922537,3.872523553,0.034966021,0.145977848,-0.870250822,1
0.00080809,0.154867575,0.903931092,3.518365775,3.823362296,0.028587436,0.120504299,-0.505688889,1
0.000988338,0.155901378,0.907721495,3.267148241,3.781901332,0.027272053,0.437532261,-0.466966699,1
0.001161346,0.154066766,0.965480441,3.868535534,3.740784836,0.026951119,-0.079081058,-0.444107607,1
0.000781442,0.152543177,1.023373019,4.408124827,3.693502481,0.033518729,0.061988488,-0.846316526,1
-0.000695036,0.156117107,1.061691309,4.095909931,3.640699605,0.032457307,0.159169702,-0.785254138,1
0.002674504,0.285507003,-0.928019766,11.70973899,3.589186151,0.032498201,-0.061594451,-0.09433493,1
0.003601044,0.283997479,-0.960038017,11.99468919,3.536558369,0.034056478,0.069430372,-0.476239056,1
0.000696886,0.152583066,0.975188808,3.792405212,3.482038716,0.034277533,0.060755924,-0.869561411,1
0.001411024,0.153829685,0.904163777,3.533964659,3.430084446,0.031612259,0.167600563,-0.674285656,1
0.000811811,0.155830501,0.895609493,3.053766374,3.381672559,0.030778235,0.125537843,-0.676896672,1
0.003270002,0.156285953,0.988953287,3.1193667,3.334611293,0.029414319,0.254053261,-0.645192623,1
0.002779096,0.148890472,0.980293484,3.273569311,3.3566082,0.06185265,0.959687918,-0.242575744,1
-0.001656045,0.158527724,0.66966413,2.127453561,3.373888779,0.050441547,1.173963256,0.364360091,1
0.000427349,0.157836083,0.75007429,2.556386974,3.325402342,0.028445666,-0.242770793,-0.494550198,1
0.001937602,0.14205475,1.175311598,4.478797674,3.275386156,0.036634952,0.117980829,-0.856973354,1
0.00024217,0.14242154,1.23370414,4.822053074,3.21936809,0.033384117,0.180873847,-0.833487501,1
0.000652444,0.142816229,1.184921016,4.661111287,3.168684387,0.031101658,0.06757079,-0.632292299,1
0.001482795,0.144862648,1.142308726,4.532844673,3.119536972,0.031974049,0.177719753,-0.657358957,1
-0.00033594,0.147062218,1.121034769,4.375392743,3.071215929,0.029935895,0.139882511,-0.632294265,1
0.001423429,0.145767254,1.18390701,4.438162195,3.02854053,0.027259032,0.156132261,-0.407460735,1
0.002157257,0.145334211,1.134090254,4.267426721,2.98788959,0.028618434,0.17415745,-0.407688033,1
0.00133151,0.145547235,1.067380651,4.094035756,2.942791421,0.030554858,0.157023492,-0.683718369,1
0.002613772,0.143069878,1.114369653,4.204149123,2.899974714,0.026094749,0.340718419,-0.296046934,1
0.001227467,0.141293428,1.063829681,3.941260552,2.861726979,0.026312249,0.168101378,-0.403838112,1
0.000856214,0.150482018,1.008974877,3.580917257,2.822378976,0.027152986,0.200600182,-0.093301551,1
0.002886625,0.149304855,1.017468493,3.723675213,2.783488028,0.026115605,0.250072736,-0.301974256,1
0.000572322,0.143059898,0.993471523,4.146508793,2.74718023,0.024729747,0.319619298,-0.137111133,1
-0.001337043,0.147916761,1.011345542,3.794680317,2.713368879,0.023943491,0.319776909,-0.175210461,1
0.002720163,0.147615323,1.061226328,3.776677171,2.68150019,0.023413376,0.37295891,0.123831104,1
0.000594988,0.143078533,1.052229615,3.907276964,2.65122697,0.023270091,0.385668953,0.180456264,1
-0.002093216,0.142735234,1.106513681,4.070368606,2.619764655,0.024365437,0.4390278,0.109733604,1
0.001338821,0.141128567,1.041828674,4.049283098,2.588293403,0.022573924,0.486378045,0.269960161,1
0.003033083,0.137261993,1.091264312,4.736436636,2.558128956,0.023091675,0.339322451,0.148996301,1
0.001603134,0.141967985,1.208233708,5.067378847,2.527840478,0.0230963,0.444277555,0.188003079,1
0.002749623,0.145267134,0.924763596,3.08570624,2.499777821,0.021781537,0.166824913,6.193276057,1
0.00164262,0.14495666,0.829598957,2.649875462,2.473879623,0.021512138,0.170762223,4.753829541,1
0.000523283,0.145814617,1.000952004,3.686238552,2.447658375,0.022322464,-0.033479393,7.854514803,1
0.000498858,0.144921897,1.125173929,4.41377381,2.420476423,0.022392202,0.118825143,5.537576895,1
0.000463106,0.141141417,1.100865106,4.494165517,2.395030158,0.02044562,0.662263721,0.785060426,1
0.000820633,0.143877746,1.115178919,4.383428884,2.372059686,0.020134629,0.664329146,1.040208975,1
0.003327124,0.14241096,1.119989008,4.181623984,2.348599461,0.020531464,0.645432408,0.989852063,1
0.00060328,0.137161192,1.163147776,4.381134154,2.324923597,0.020243187,0.621524746,0.812379588,1
-0.001495056,0.137420455,1.188054257,4.635334908,2.30333143,0.019607914,0.873814511,1.961510523,1
0.002398989,0.14006939,1.237663766,5.273968402,2.28180918,0.019985371,0.690830069,1.103534241,1
0.001483364,0.148570864,1.238428726,5.171815785,2.259184756,0.020150701,0.674684828,0.819674929,1
0.00212316,0.149910653,1.097177611,4.138021037,2.238442121,0.019414884,0.898845951,1.334007195,1
0.000302144,0.147580978,1.133887963,4.225548279,2.219140353,0.019093702,0.87659819,1.369142283,1
1.06E-05,0.146362566,1.098239138,4.137751564,2.201809747,0.017866839,0.907987906,1.420250211,1
0.000922453,0.147623216,1.077981963,4.053256618,2.184124865,0.019291507,0.801404613,1.112519855,1
0.000545648,0.150049843,1.078570817,4.071722853,2.16478751,0.018980823,0.94105487,1.571201375,1
0.001110123,0.142597559,1.057110757,4.072527379,2.146753039,0.01912054,0.916954992,1.593380148,1
0.003547682,0.14466217,1.123230711,4.134558503,2.127969251,0.019612951,0.903830037,1.250768767,1
0.000166783,0.149675321,1.067457188,3.660363074,2.108944321,0.018967129,0.840067257,1.362131898,1
-0.001702848,0.148144659,1.030687018,3.596583021,2.090229634,0.019366502,0.819795192,0.91572678,1
0.002612313,0.148368808,1.043639986,3.895074571,2.071881485,0.019029059,0.949383591,1.524013375,1
0.002378906,0.143738112,1.044781855,4.011059295,2.054007612,0.019337428,0.760272683,2.487129488,1
0.001902479,0.143691469,1.076689136,4.090490473,2.035874666,0.018918537,0.802402443,2.038651668,1
0.002530348,0.142646048,1.006691818,3.786355146,2.018550219,0.018731047,0.777816105,3.00676606,1
-0.001431218,0.146110238,1.11254193,4.220260564,2.00198604,0.018601791,0.934997248,2.918312547,1
0.000989803,0.144031211,1.298849843,5.399172785,1.986032813,0.018173665,1.013468517,1.797399851,1
0.004092754,0.139631332,1.303014738,5.475054111,1.969376646,0.018990123,0.956867931,1.576709508,1
-0.000791434,0.147600337,1.263287578,4.718119402,1.950980977,0.019089931,0.915657195,1.486665343,1
-0.001264736,0.147758083,1.329734462,4.967362187,1.933724703,0.018185793,0.995682712,1.384066385,1
0.003662142,0.143046833,1.463479649,5.616793557,1.918080357,0.018276584,1.126741079,2.099068067,1
0.002582918,0.1439107,1.387798135,5.192546812,1.90294342,0.017701905,1.202662404,2.485751419,1
0.000687862,0.142248422,1.26708952,5.113409529,1.889136178,0.017536437,1.158703922,2.342046464,1
0.003676921,0.143027401,1.165479363,4.547543517,1.875307519,0.018073188,1.085226903,1.802876696,1
0.001180573,0.144863284,1.144975412,4.006302342,1.86034911,0.018320866,1.083434546,1.842565596,1
-0.00155894,0.142133297,1.233732522,4.486182812,1.845775495,0.017842353,1.213311772,2.409323989,1
0.000127337,0.143134181,1.280711289,4.66594856,1.832127816,0.017689982,1.124967835,1.980327808,1
0.000808136,0.142489223,1.281702051,4.733153607,1.818770872,0.017846305,1.176126883,2.066785958,1
0.001676304,0.141379225,1.209729498,5.005792976,1.805031586,0.0182718,1.112166702,1.956160072,1
0.000396842,0.139959372,1.221354225,4.741478843,1.791372463,0.0176894,1.250550955,2.358616642,1
-0.000784116,0.13983575,1.30728291,4.615207628,1.779328047,0.017050211,1.246523462,2.560806249,1
0.003316753,0.141705899,1.303564591,4.997711488,1.767590768,0.017703649,0.985738574,4.024091696,1
0.003515847,0.140073535,1.291864462,4.873340692,1.756025914,0.017359331,1.064850918,3.697713402,1
0.002058361,0.140632666,1.353671266,4.718527934,1.745606341,0.017026928,1.291801943,2.359159352,1
-0.001208535,0.146828836,1.185711139,3.985860711,1.737268448,0.016597397,1.442352449,2.943656447,1
-0.000559577,0.139816733,1.06443464,3.927637432,1.72958919,0.017209545,1.400940811,2.756152787,1
0.002408524,0.138389222,1.303582648,4.953453513,1.719311305,0.017708993,1.343940601,2.53537351,1
0.002100082,0.143239649,1.34723728,4.999507733,1.708010483,0.017353121,1.352722758,2.698623605,1
0.000675731,0.141650012,1.270684916,4.892481891,1.697665405,0.01710228,1.404665228,2.874474637,1
0.001228095,0.144176309,1.140865046,4.552885205,1.688339887,0.01708496,1.322609461,2.505394245,1
0.001462633,0.141230185,1.160497649,4.934796569,1.679063797,0.017225175,1.35536713,2.579745938,1
0.001362632,0.142317661,1.253407465,5.082960799,1.669952665,0.017137252,0.909790819,8.257757865,1
0.001316515,0.147809494,1.16829876,4.377240644,1.660850579,0.017304889,0.939971655,7.114844329,1
-0.001250179,0.145544376,1.11264205,4.308640998,1.651800646,0.017103993,1.447957583,3.104887255,1
-0.000521347,0.145200725,1.13797387,4.298339068,1.64340695,0.017219863,1.523747741,3.264709117,1
0.002392986,0.144892947,1.14650344,4.167076007,1.634738759,0.017155144,1.477375429,3.071740388,1
0.007076471,0.140785847,1.238420274,4.722281992,1.625811604,0.017005951,1.401036863,2.862131199,1
0.001641868,0.140192904,1.235708519,5.040505393,1.617367445,0.016881644,1.370113089,2.686176138,1
-0.00372224,0.142252056,1.148518451,4.521390815,1.60887195,0.017081201,1.331429619,2.435414948,1
0.001899765,0.141888818,1.256143848,4.714871451,1.600824956,0.01684911,1.200290525,5.116102785,1
0.00312221,0.142542107,1.277691592,4.829525701,1.593261555,0.017013646,1.212673002,4.718724974,1
0.001555775,0.144186977,1.161917613,4.418085432,1.58500339,0.016829623,1.387696562,2.502630784,1
-0.000977652,0.144309126,1.090662974,3.691061513,1.577102334,0.017011861,1.427552664,2.723714052,1
0.001418884,0.143344924,1.064109262,3.616578998,1.569184222,0.01754435,1.453063476,2.953888907,1
0.005472192,0.145061488,1.187639167,4.235360327,1.560845348,0.017282029,1.4081674,2.740850267,1
0.000960846,0.145617187,1.216097721,4.648184505,1.55210653,0.017015453,1.387156611,3.079521732,1
-0.0029455,0.145252687,1.222579166,4.517998999,1.544192614,0.016739961,1.532232677,3.627528541,1
-0.000257858,0.148704997,1.260392942,4.547972757,1.537785448,0.016846923,1.612626033,3.632107524,1
0.001588885,0.140783938,1.275013069,5.397450525,1.531763513,0.016630484,1.503234742,3.001695211,1
0.002580551,0.139214467,1.226885826,4.902913271,1.526252311,0.016849183,1.458510672,2.622134316,1
0.001565441,0.150009457,1.092496584,3.776789199,1.520012665,0.017000658,1.447036711,2.729957323,1
-0.000722815,0.150690668,1.113104592,3.777370278,1.51286196,0.01721808,1.459697336,2.951789389,1
0.003220845,0.142611892,1.187437207,4.53550337,1.505634853,0.017362667,1.516156984,3.164617821,1
0.00162924,0.140802613,1.310814766,5.438194683,1.498761368,0.017032345,1.509783129,3.143545067,1
-0.000301908,0.142891355,1.307606087,5.223095278,1.492953818,0.017087886,1.576586301,3.275798539,1
0.003216581,0.145612318,1.199910289,4.446200944,1.486847632,0.017274589,1.098143723,8.357662185,1
0.000397267,0.148654412,1.129067642,4.119344051,1.479927553,0.017034966,1.034794181,7.749679938,1
0.000539965,0.146352879,1.016272904,3.819249366,1.474023329,0.016812728,1.476617886,3.018345335,1
5.45E-05,0.145430481,1.032879555,3.951875225,1.468824278,0.017039208,1.453791709,3.000690586,1
-0.000512499,0.146918479,1.138608297,4.253210316,1.462998744,0.017157284,0.838637096,11.62935325,1
0.005271338,0.144158993,1.271887279,4.959385239,1.457200841,0.016941482,0.707659455,12.80280749,1
0.000750451,0.141494753,1.328164927,5.498958679,1.451758521,0.016849473,1.301553482,4.163587524,1
-0.002883728,0.143946342,1.377183081,5.541159456,1.446411732,0.016639999,1.439789601,2.779649467,1
0.003467769,0.140325675,1.505017265,6.232682462,1.441318839,0.016463974,1.471432196,2.852707373,1
0.001517179,0.141481021,1.412852108,5.825445119,1.436230087,0.016679425,1.576124276,3.268099591,1
-0.001410782,0.149526627,1.34550511,5.019038238,1.430926078,0.016762187,1.598290943,3.289503827,1
0.003546929,0.144940779,1.378665263,5.252615319,1.425388391,0.016594176,1.539039831,3.073058635,1
0.002031804,0.137304865,1.26908246,4.793309408,1.419600895,0.016637079,1.529057439,2.963779927,1
-0.000905692,0.141893303,1.195724801,4.538043503,1.414012473,0.017148038,1.571990232,3.199599827,1
0.001844461,0.143148019,1.287020192,4.853398378,1.408346612,0.017463189,1.569861253,3.184422826,1
0.001778431,0.142441486,1.370145473,5.155193862,1.402347292,0.016975637,1.53639461,3.123197437,1
0.000678661,0.141310359,1.4491165,5.665340536,1.396818651,0.016710735,1.503100942,2.960683626,1
0.001253867,0.137067463,1.337611383,5.096949469,1.391671862,0.016733255,1.501761635,3.800581041,1
0.00120643,0.145999671,1.326375035,5.011635184,1.385914448,0.016973387,1.422829055,3.689626189,1
0.003273213,0.146739436,1.344079553,5.245838424,1.379546792,0.017021032,1.471911265,3.170422638,1
0.000790179,0.140424297,1.256846826,5.207770421,1.37326404,0.01709751,1.532952169,3.115470684,1
-0.002147082,0.145404518,1.272834155,5.128074451,1.366769246,0.017289557,1.567919994,3.211856405,1
0.002122951,0.145482374,1.302682179,5.06977747,1.36046911,0.017211246,1.547483432,3.115710123,1
0.002772727,0.138739984,1.218197199,4.587360142,1.354468482,0.017377922,1.587530459,3.310123282,1
-0.000105704,0.141986115,1.132144155,4.177053005,1.348048074,0.017012107,1.509127385,3.091382982,1
0.000709756,0.144146135,1.176604228,4.412686695,1.342109081,0.016768449,1.52515492,2.924177475,1
0.003031004,0.135120337,1.248428988,5.09826093,1.335556957,0.017380495,1.515716814,2.859418047,1
0.005078201,0.138040017,1.604207436,6.91529937,1.327986145,0.017425831,1.534764589,2.941888243,1
0.000839133,0.148054469,1.352809108,5.153383829,1.321404811,0.017025062,1.570278738,3.172969577,1
-0.002335837,0.142287758,1.067507153,4.172425339,1.316552026,0.016800953,1.569423377,3.138374513,1
-0.000179143,0.143230202,1.210528287,4.974212411,1.311659568,0.01688509,1.549342227,3.13409384,1
0.001414575,0.148912193,1.120566125,4.183938084,1.30603387,0.017013315,1.527103486,3.290011085,1
0.001629907,0.146979396,1.03444508,3.886651361,1.300322451,0.017388804,1.574023922,3.474423371,1
0.000222839,0.14539136,1.063948795,4.096415618,1.294643729,0.017083385,1.627167668,3.311557972,1
-0.00115533,0.146804722,1.136400576,4.339789346,1.290012578,0.016886544,1.637950374,3.168574527,1
0.001445964,0.147455036,1.176786265,4.474875881,1.284869603,0.017154696,1.522047466,2.884327665,1
0.005380567,0.140489969,1.19117793,5.101995841,1.278910937,0.017130254,1.510321611,2.848559481,1
0.001308949,0.146136335,1.058137921,4.2335015,1.27246388,0.017138848,1.493515985,3.163685372,1
-4.22E-05,0.149703495,1.063822973,3.671181796,1.264084353,0.017678779,1.3167799,2.766333067,1
0.002916465,0.143081678,1.167713133,4.638345803,1.255134909,0.017764627,1.466410858,2.858758285,1
-0.000878259,0.150382016,1.170968966,4.794619297,1.248139027,0.017096278,1.649028551,3.583556704,1
-0.001314338,0.152492829,1.142618078,4.364534276,1.242630822,0.017320921,1.564646776,3.220769994,1
0.002549829,0.144574816,1.161616572,4.862138268,1.237073353,0.017528967,1.596044631,3.145068573,1
0.001213473,0.145846274,1.210883844,4.986093884,1.232059588,0.01720662,1.369250926,4.96059743,1
0.001322113,0.15196896,1.282739247,4.870902331,1.227962276,0.017138513,1.381283299,4.863222464,1
0.003858647,0.150776018,1.2830643,5.09325802,1.223926817,0.016936326,1.600406591,3.202854684,1
0.000418579,0.146794027,1.136272751,4.394912308,1.220092555,0.016761852,1.613815317,3.329772567,1
-0.000324123,0.145735945,1.082443541,4.473978404,1.216023363,0.016908529,1.559671011,3.088556115,1
0.004034814,0.148993408,1.11955206,4.365737137,1.212989208,0.016678113,1.569017832,3.097929554,1
0.001995738,0.141746977,1.315978595,4.881599312,1.213509641,0.017398443,1.465681923,2.959987706,1
-0.001679437,0.147498948,1.669475991,7.098684973,1.21098235,0.018144284,1.082875784,6.3638496,1
0.000519477,0.158894237,1.551854674,6.100921824,1.204820197,0.017079123,1.113053305,7.129812428,1
0.003015669,0.149170189,1.347100195,5.222436246,1.20007891,0.016849866,1.551933557,3.419497204,1
0.002279003,0.142570266,1.243374052,4.736578456,1.195614188,0.017025516,1.432953753,4.996060306,1
0.00167431,0.142312336,1.243633811,4.614466302,1.191621508,0.017169616,1.388760115,4.204359363,1
0.000352073,0.147504734,1.340891519,5.068163401,1.19197028,0.01742863,1.448655707,2.687707028,1
0.001900857,0.147107045,1.298397512,5.357682506,1.196147156,0.017208697,1.464305262,2.999631455,1
0.000956883,0.150981314,1.193533409,5.009992114,1.196123232,0.017121906,1.598499938,3.309624033,1
-0.00209043,0.157320924,1.217618327,4.608900716,1.191655786,0.017042521,1.578568243,3.298877249,1
0.002808622,0.147548578,1.296510632,5.166864863,1.186777169,0.016923908,1.533084182,3.899201693,1
0.004209314,0.143964356,1.170385671,4.967722098,1.182381766,0.017033791,1.562055025,3.852797595,1
0.00041234,0.150534725,1.170632285,4.670934957,1.178119223,0.016904299,1.595280036,3.636212362,1
0.000137211,0.149351105,1.204365414,4.623418792,1.174085999,0.016938077,1.607684992,3.498428635,1
-0.000746887,0.148407933,1.087260279,4.115289363,1.170939527,0.017178724,1.594171974,3.042681553,1
-0.000566443,0.150568571,1.101851109,4.170867217,1.168336868,0.017002139,1.576111767,3.013788237,1
0.002482335,0.146902714,1.148126955,4.288003907,1.165844127,0.016944841,1.576964782,3.299412528,1
0.003835641,0.146049068,1.155124056,4.349146845,1.163076346,0.0170812,1.614411857,3.362091477,1
0.001312879,0.148138023,1.106805179,4.169073165,1.159886278,0.017051179,1.684436876,3.747853148,1
0.000257237,0.147783604,1.164158901,4.239837952,1.156525803,0.017055548,1.689910985,4.070776145,1
0.001821128,0.14734974,1.001209359,3.738978571,1.163137272,0.021037495,0.885902592,3.703286554,1
0.002186273,0.149002539,0.946827368,3.544489589,1.175042834,0.020092936,0.707644447,5.086094976,1
-0.001633693,0.152052357,1.161782678,4.285468199,1.167807661,0.020634301,0.948311765,1.557938153,1
-0.001710414,0.153613877,1.173211246,4.468071984,1.155067226,0.01745635,1.417295998,2.583020084,1
0.003879835,0.155041027,0.862526531,3.342236318,1.150766536,0.017482574,1.106009416,7.409864956,1
0.002956375,0.155359183,0.715808727,2.6807911,1.147401374,0.017000788,1.138650223,8.14067522,1
-0.000241725,0.151213373,0.855911865,3.36763031,1.147690255,0.016996524,1.584900973,3.525604623,1
0.001892774,0.150465205,0.844169971,3.522813762,1.147969001,0.017215736,1.602973337,3.463698954,1
0.002618781,0.153395795,0.894201992,3.427377674,1.144614901,0.016927378,1.568082494,3.33247416,1
0.001335578,0.148819748,0.912916294,3.274587588,1.140691267,0.016468094,1.558581189,3.210435779,1
-0.000565495,0.145742837,0.776886877,2.510603056,1.139804404,0.017397989,1.656406365,3.530075592,1
-0.001140904,0.146646682,0.852686644,2.950343649,1.138630731,0.017672325,1.63150577,3.430314999,1
0.001808598,0.148035541,0.945788177,3.68533708,1.136981964,0.016757735,1.563223184,3.184358155,1
0.00334363,0.146783903,0.905095052,3.599570385,1.13704567,0.016619756,1.51766341,3.898670985,1
-0.000423889,0.149792911,0.964660134,3.897754198,1.136096736,0.016768854,1.518099797,3.77962302,1
0.000435654,0.151194401,0.987193126,3.982861529,1.134078271,0.016986639,1.580226295,3.28780472,1
0.003358475,0.148119192,0.928697042,3.759488256,1.131433105,0.017061781,1.571713825,3.330191545,1
-0.000212769,0.150453316,0.910262904,3.713379556,1.127842821,0.017191755,1.60140641,3.260801493,1
0.001148928,0.149278686,0.839649646,3.494962323,1.123764311,0.017125536,1.637619165,3.655198472,1
0.003254634,0.151882716,0.910051507,3.404831651,1.121223668,0.017118914,1.264634103,4.742667263,1
0.00080363,0.15432197,0.894278517,3.107991067,1.118966893,0.016910642,1.321541963,4.811004213,1
0.001376181,0.150588057,0.981997541,3.426761028,1.117111533,0.016218415,1.721134454,3.91563662,1
0.000968497,0.145017434,1.244070329,4.055427147,1.121224376,0.01766131,1.544692345,3.130452063,1
-0.002104451,0.140660101,1.29602035,4.476974007,1.126051331,0.019085183,1.172148396,1.851452523,1
0.002139522,0.138029265,1.208465525,4.490435082,1.114331709,0.022452147,0.882061153,0.684717629,1
0.002571095,0.131900245,1.137213019,3.766721862,1.097780991,0.017641357,1.603496677,3.703027916,1
-0.000414283,0.132540386,1.086711772,3.21077831,1.090109798,0.017056779,1.58831785,4.000967291,1
0.000883922,0.1338297,1.066513762,3.530356948,1.084845516,0.016985362,1.505911458,3.183477331,1
0.001620974,0.223298068,0.804702295,4.630464533,1.093873487,0.02700683,1.241120131,1.14832156,1
0.001709773,0.276441434,0.295290296,1.777336032,1.150765773,0.052942292,-0.141425547,-1.293140327,1
0.00310059,0.225063434,0.143605374,2.145287013,1.216981506,0.031594657,0.412584507,0.133694369,0
0.002443163,0.169423057,0.940067701,3.991354207,1.246128191,0.024272854,0.069829257,1.017745944,0
1.29E-05,0.143223019,1.059214661,5.846893179,1.255788912,0.017020928,1.628929511,3.623938258,0
-4.19E-05,0.134746977,1.845654474,7.433375624,1.259780993,0.017756795,1.556666692,3.066097444,0
0.000789682,0.145367518,1.525584126,5.809236627,1.261915752,0.017440959,1.523436387,2.787971727,0
0.000173041,0.147884855,1.216666947,4.64922014,1.253839656,0.01879033,0.955132345,3.378546587,0
0.002433681,0.14600884,1.227441369,5.29807306,1.240147073,0.019323191,1.142140768,3.075175762,0
0.004454871,0.149586196,1.121874431,4.478704602,1.228629793,0.018299441,1.558464569,3.155676028,0
0.0003174,0.15331302,1.014042326,3.450812366,1.219350978,0.017680111,1.494826779,2.959681524,0
2.04E-05,0.144032302,1.014010227,3.620711088,1.211698314,0.017128947,1.602591506,3.134972004,0
0.000608865,0.144890488,1.036669271,3.993484263,1.218425805,0.021470194,1.009541215,1.25376513,0
0.001523477,0.147061874,1.196205867,4.818755172,1.228130777,0.019320451,1.041178855,2.164986938,0
0.000484222,0.137995498,1.326575889,5.38927775,1.224320112,0.017531428,1.491881163,2.808860408,0
0.000589619,0.142075728,1.428890034,5.72885884,1.217620032,0.01722813,1.514097536,2.890727353,0
0.001530042,0.153944536,1.274163519,4.923004692,1.211201586,0.017306431,1.467238696,2.793445065,0
0.002833904,0.150382653,1.26083012,5.527159457,1.201583154,0.018730694,0.955652476,6.11941217,0
4.44E-05,0.150690877,1.413868722,6.362829342,1.190949576,0.01831289,0.337683389,19.19990028,0
-0.000633905,0.152147875,1.464172626,6.604833756,1.190740367,0.019220818,0.574842961,12.58967984,0
0.002770569,0.158735223,1.223736767,5.371455344,1.19933221,0.019406132,1.158252669,2.414796386,0
0.000648985,0.162081566,0.989332241,3.84823844,1.202920369,0.017261442,1.704106422,3.987667723,0
0.00132486,0.15707482,1.207151292,4.551110435,1.200451388,0.016769587,1.539048322,3.341434212,0
0.002393411,0.15569891,1.263589193,4.754855713,1.19990327,0.017287391,1.498783252,2.996994122,0
0.001291528,0.153906048,1.284104938,4.954172753,1.22410796,0.036722825,1.025121555,0.27733909,0
-0.000838061,0.158355099,1.329799088,5.053090074,1.273619788,0.03859708,-0.42667433,-0.656854749,0
1.16E-05,0.149484234,1.275709005,4.821123158,1.296653312,0.01735556,1.551527072,3.01970778,0
0.002802442,0.139958684,1.512827952,5.518439555,1.2901274,0.017458759,1.370487691,5.054806449,0
0.001580226,0.135567037,1.664325182,6.27624775,1.284198652,0.017327922,1.310000501,4.692308055,0
0.000690693,0.14486034,2.444880723,11.38379709,1.282834734,0.017238478,1.586802084,3.393364733,0
0.003444894,0.148922236,2.49424997,11.54422335,1.281519427,0.017336289,1.539000516,3.306619103,0
0.000393173,0.134633363,1.85217699,7.757637096,1.270373208,0.019779606,0.932145657,1.696250591,0
0.000708854,0.133538294,1.765207169,6.885949191,1.256261444,0.018760501,1.259517075,2.248137148,0
0.00165632,0.13265237,1.745556864,7.456561951,1.245179149,0.018429276,0.944548406,4.893582494,0
-0.000156915,0.134373939,1.668741884,6.911358433,1.232961927,0.0192596,0.977354278,3.666990754,0
0.002730181,0.135398418,1.606133584,6.26106744,1.220394788,0.018593578,1.355444953,2.384171242,0
0.001080368,0.13011031,1.618680766,6.822121938,1.209093257,0.018260148,1.378855577,2.645740794,0
0.000627888,0.132539349,1.705953779,7.081474834,1.198490143,0.018120407,1.473491898,3.085923779,0
0.002201176,0.136765598,1.620260741,6.154013063,1.188199289,0.018326538,1.462969403,3.151643324,0
-0.000512035,0.135996129,1.591141148,6.069466273,1.178235136,0.018088065,1.457388678,2.920446031,0
0.001488543,0.142549717,1.648539136,6.668404271,1.168851525,0.017900826,1.440801664,2.786494371,0
0.003951168,0.144005343,1.506345493,5.968561189,1.162921579,0.017249121,1.587232561,3.10390111,0
0.00087047,0.137028357,1.57050306,6.034191527,1.158632932,0.017283442,1.491685739,2.768071285,0
-0.000577881,0.139796102,1.613297178,6.421498511,1.160125623,0.019462545,1.253179852,1.775730578,0
0.000813184,0.140306041,1.515759866,5.819333934,1.172976521,0.020854617,0.763026717,1.267922992,0
0.00097261,0.133997222,1.748174267,6.813904325,1.183853803,0.019432609,1.241423001,1.995563996,0
0.000815107,0.133030852,1.822136276,7.318563139,1.216067505,0.035666194,0.072588024,-0.902134568,0
0.000771194,0.132231755,1.767011771,6.885118365,1.24542972,0.017870224,1.233491033,2.44312172,0
0.001087025,0.133576263,1.746878095,6.933926012,1.240088708,0.018460603,1.151983107,3.044550012,0
0.003391859,0.133704493,1.649795652,6.742113021,1.228634044,0.01900771,1.126864531,2.597194037,0
0.000997251,0.130954593,1.638933713,6.833500242,1.21782014,0.018000837,1.433759881,2.966614441,0
-0.000917136,0.131705618,1.719533247,7.102981625,1.207729885,0.018398516,1.41363594,3.412175728,0
0.000934047,0.134607972,1.740470691,6.897075712,1.195855495,0.018709326,1.291169205,2.58331037,0
0.001441746,0.134181164,1.747372182,6.90026378,1.183491789,0.018890489,0.997757186,4.886007159,0
0.002104209,0.134061398,1.687991336,6.680502592,1.172369603,0.018538091,0.744155835,8.730308249,0
0.002205198,0.133249402,1.702548595,6.821125153,1.163413402,0.018209423,1.12208677,6.480389413,0
0.002445092,0.131180969,2.001270559,8.313557687,1.157275663,0.017492914,1.596953475,3.142259719,0
-4.00E-05,0.130067814,2.00479077,8.250904176,1.15075967,0.017554142,1.441484955,2.810537567,0
0.00010696,0.127633856,1.954832888,8.500010225,1.142234148,0.017682238,1.437655019,2.809034998,0
0.002410701,0.129401721,2.023631465,8.877701394,1.135622515,0.017916477,0.73134463,16.6131758,0
0.001135607,0.130981278,1.950468368,7.916315399,1.130651528,0.017336733,0.707930049,17.69175723,0
0.001458533,0.131733048,1.998992018,8.299908657,1.125408609,0.017004733,1.532171977,3.344297962,0
0.001391693,0.148643177,1.829729161,8.010381899,1.124347469,0.017362411,1.561717686,3.396176623,0
-8.60E-05,0.162406925,1.374554247,5.718590618,1.128901999,0.017540963,1.546208218,3.262144829,0
0.000362268,0.148700976,1.469300321,6.412227507,1.131202916,0.017141887,1.624758403,3.452236104,0
0.004500844,0.129464933,2.333538888,11.0079657,1.128330285,0.017362906,1.551417547,2.957960167,0
0.001397023,0.128750157,2.198668979,10.34545278,1.122982897,0.01766086,1.524846809,3.049644559,0
-0.003274194,0.137444171,2.187253785,9.788739698,1.118389402,0.017401792,1.582473174,3.264787901,0
0.001876838,0.136262619,2.389136868,10.96400639,1.115295846,0.017198944,1.596067135,3.262194002,0
0.004944318,0.16392262,0.132370939,12.38016368,1.112963322,0.017370002,1.366744175,4.668280783,0
0.001384526,0.17785714,0.182854882,8.779219864,1.110926819,0.017684483,1.392858269,4.985596747,0
6.51E-06,0.15250506,1.728906152,7.051350293,1.106600952,0.01782601,1.554129956,3.493692013,0
0.000667766,0.171698758,-0.6821576,15.33688346,1.102645874,0.018241495,1.434890068,2.495910113,0
-0.000248016,0.183332555,-0.812445833,10.43212158,1.126605334,0.031307201,0.255118415,-0.638693006,0
0.003069528,0.171358429,0.682808319,2.24073901,1.154357856,0.018570329,0.978984084,2.582888514,0
0.00040017,0.163306272,1.1632967,4.212867735,1.159643936,0.017199268,1.442479338,2.821582526,0
-0.003584361,0.150202474,1.903732494,7.131355329,1.164354106,0.01744982,1.53053084,2.931172626,0
0.00328556,0.148443736,1.755713971,7.306054424,1.166105052,0.017687935,1.247323314,6.124627547,0
0.003878619,0.14422993,1.958622286,9.190873204,1.162315042,0.017593545,1.258280825,5.969842116,0
0.00057639,0.148782875,2.325188093,10.58205848,1.156193379,0.017551571,1.632998214,3.454511497,0
0.002874566,0.147943335,2.063911615,9.309673202,1.14958665,0.017589051,1.607353073,3.487275194,0
0.000851434,0.145758644,1.794939702,7.396232178,1.143831853,0.017124131,1.581109422,3.179863866,0
-0.002177634,0.149904698,2.154563244,9.2869128,1.138305882,0.017550708,1.548540944,3.127866149,0
0.000604483,0.14712455,2.403076714,11.43849929,1.132413973,0.017708046,1.194879784,7.784815779,0
0.001535974,0.150004894,2.118049453,9.398320765,1.128059333,0.017658939,1.263934644,7.629968537,0
0.004342242,0.144390034,1.858713507,7.461442847,1.126004083,0.017199655,1.661697367,3.5472451,0
0.003350392,0.140814431,1.82071259,7.191012796,1.125893675,0.017063115,1.611865981,3.304744739,0
-0.002809583,0.147503084,2.247283067,9.532438458,1.122921916,0.017488349,1.62053683,3.257495574,0
-0.001323493,0.145800782,2.513532827,11.39959698,1.117467826,0.017310073,1.662690418,3.4731554,0
0.00185187,0.139153185,2.649718523,13.21940949,1.113864844,0.017047317,1.616945451,3.362340783,0
0.004601892,0.143739614,2.610740617,12.4362564,1.110943277,0.017167798,1.617971066,3.30308918,0
0.00331521,0.148905181,2.471236971,11.66094038,1.106822368,0.017410731,1.136097231,7.955566412,0
0.002344097,0.14808831,2.355749351,11.12392884,1.102598245,0.017357688,1.225184197,7.936962631,0
0.001194495,0.145735732,2.41960621,11.33833711,1.099619184,0.017351379,1.756010179,3.65947484,0
-0.001614134,0.148119569,2.510939554,11.57879047,1.097260993,0.016745159,1.724720214,3.679295405,0
-0.000324051,0.151197037,2.352195421,10.1928623,1.094946671,0.016543674,1.716150972,3.930293423,0
0.002518877,0.145469541,1.893643925,8.222825823,1.093368748,0.016875955,1.73331281,3.915234589,0
0.002038958,0.148125698,1.696098213,6.606911747,1.09259867,0.016552073,1.652898466,3.395194624,0
0.000205529,0.148953617,1.999296982,7.564352615,1.092325919,0.016768175,1.644527877,3.394844228,0
0.00124294,0.144193839,1.762101881,7.201674447,1.095460347,0.017331132,1.501125036,2.859515495,0
0.000721422,0.155091769,0.949301635,4.007366448,1.105078724,0.018356738,1.281436291,2.36820931,0
8.56E-06,0.154212513,1.176178543,4.670836102,1.11256425,0.017173299,1.600898608,3.236206231,0
0.001184352,0.140438482,2.300740377,9.716601553,1.11302512,0.01687799,1.567230299,3.032072851,0
0.003389053,0.134543179,2.47941538,11.02856844,1.113680649,0.017146519,1.553945958,3.048605764,0
0.001394976,0.139388784,2.358149109,9.692097496,1.118528039,0.017762042,1.322083184,4.723775926,0
0.000532876,0.139544925,2.127555741,8.41102873,1.120407867,0.017194715,1.434350345,5.577231157,0
-2.92E-05,0.138463391,1.657778495,6.0580285,1.117602485,0.017149041,1.633615448,3.309973357,0
6.95E-05,0.13937956,1.640255784,5.901493389,1.116240365,0.017109534,1.60906021,3.019436567,0
0.003568065,0.142530488,1.382779882,3.721987388,1.114155524,0.017012558,1.609295532,3.230453166,0
0.001636963,0.144229155,1.44747567,4.118777294,1.111829976,0.016989498,1.642506343,3.472779162,0
-0.000173506,0.137267515,1.800415456,7.075864177,1.109829875,0.017149932,1.652346056,3.374283866,0
0.001433801,0.140312593,1.716174647,6.619558794,1.116414751,0.019455948,1.171612349,1.893552247,0
0.002593604,0.137987732,1.393305199,4.922815464,1.134693963,0.02194385,0.854865853,1.037144382,0
4.63E-05,0.130508948,1.465737873,4.920422,1.153760583,0.020757361,0.715491712,1.412446641,0
-0.001628063,0.123717289,1.945683965,7.6314206,1.163060161,0.017093831,1.688834579,3.472499838,0
0.003188272,0.119829488,2.06847966,8.72002508,1.162763269,0.017036282,1.627577811,3.268306449,0
0.004040798,0.128986967,2.0573367,8.315219846,1.160651725,0.016894414,1.534152685,2.846752794,0
0.000435974,0.129555441,1.969536919,7.663676333,1.158241708,0.017101702,1.636219664,3.182047467,0
0.001622236,0.123916725,2.092776255,8.419306455,1.156408092,0.017333869,1.620851543,3.173329943,0
-0.001154774,0.127496143,2.092516764,7.805615099,1.154584122,0.017464168,1.532227956,2.806762764,0
0.000237658,0.129458065,1.75699911,5.822741969,1.153908484,0.017337636,1.562200463,2.859217085,0
0.002000996,0.130215882,1.504183067,4.981094076,1.15166457,0.01750382,1.196323235,6.941746676,0
-0.001347846,0.129040415,1.544019313,5.504618535,1.146948842,0.017027579,1.258978239,7.533845298,0
0.001836921,0.126929674,1.886692486,7.363060613,1.141863905,0.016729251,1.507160104,2.942554491,0
0.001396343,0.129313645,1.947262476,7.735413485,1.136765235,0.017056183,1.586987422,3.10766999,0
0.003436556,0.136730037,1.851513043,7.166622612,1.1329422,0.017410904,1.613775279,3.168224729,0
0.00338579,0.131899204,2.027291305,8.522002238,1.129563468,0.017380712,1.63504198,3.133869079,0
0.000166574,0.133546583,2.030730736,8.444699805,1.127098683,0.016849855,1.651959497,3.380617708,0
0.000587494,0.13691846,1.86420542,7.229582904,1.123872757,0.016723937,1.589429579,3.313180887,0
-0.000892881,0.129532304,1.817405098,7.185660838,1.123843711,0.017098207,1.614657575,3.282298538,0
0.00060929,0.13249127,1.920348738,7.702819307,1.125752912,0.016974757,1.674649811,3.467184618,0
0.000656211,0.132414235,1.962434451,8.105399277,1.12397243,0.017092058,1.544404954,4.601780416,0
0.003314366,0.132017443,2.056630843,8.707355093,1.120962143,0.017136648,1.524928901,4.411919612,0
0.004676357,0.134483705,2.164491942,9.151483013,1.117793873,0.016874188,1.632561281,3.496719884,0
-0.001520305,0.131551798,2.140066503,8.948416917,1.114655794,0.016898514,1.652783083,3.466522117,0
-0.000344984,0.13041504,2.062561189,8.630834687,1.118847874,0.018127197,1.42015758,2.780954627,0
0.00270658,0.13399398,1.820418939,7.129615193,1.125984137,0.017288613,1.593643245,3.467014365,0
0.002972855,0.135370255,1.823146498,6.894160951,1.126059995,0.016833842,1.666999352,3.597058589,0
-1.67E-05,0.134595323,2.07121124,7.807440032,1.125000054,0.016691992,1.68283507,3.57946888,0
-0.001821847,0.132903654,1.975157083,7.483115199,1.123201261,0.0170896,1.703712955,3.686843622,0
0.000875911,0.132135789,1.821881375,6.844695511,1.119373213,0.017181543,1.714224079,3.810486321,0
-0.000179587,0.146987143,1.67272386,5.752887886,1.115444619,0.017177207,1.59002381,3.312730773,0
0.00180111,0.155017545,1.778470787,6.284274232,1.114953232,0.017133659,1.505664615,2.882608335,0
0.005034433,0.141957266,1.94647094,7.406900855,1.120597403,0.017474222,1.436451484,2.858672179,0
0.000255589,0.131714411,2.075378218,8.640890867,1.123010145,0.01725589,1.634869513,3.436949381,0
0.0015391,0.134194921,2.206133967,9.192818642,1.119999095,0.017112199,1.666363753,3.46596772,0
0.001687945,0.13578658,2.13708718,8.207844438,1.117322704,0.016921488,1.661023385,3.44102528,0
0.000155306,0.137040074,2.013673147,7.672611002,1.114908654,0.016996896,1.680153524,3.63598996,0
0.002457472,0.136764513,1.728972422,6.41395167,1.113947569,0.016845072,1.665616022,3.627428001,0
0.001268221,0.136257221,1.681055298,6.100984809,1.115377263,0.016600742,1.61418729,3.337218998,0
-0.001775338,0.135661242,1.791472707,6.693713489,1.116944449,0.016669157,1.638833098,3.239024342,0
-0.001819617,0.133307519,1.774355722,6.803138789,1.117490605,0.016872835,1.645290579,3.139593525,0
0.003315026,0.138866597,1.966295341,7.592246913,1.128510393,0.020738366,0.948674871,1.143687637,0
0.001233915,0.142921427,1.816056741,6.290551775,1.143020303,0.017958793,1.168218282,2.544133182,0
0.000965273,0.141616438,1.286934275,3.348805327,1.146624919,0.016673871,1.696900048,3.779396585,0
0.002901489,0.151682276,0.894998015,7.554848127,1.175133732,0.037708123,0.356994918,-0.276656683,0
0.003184884,0.160308774,0.920209628,6.956445545,1.210265078,0.025697903,-0.79138225,6.913701202,0
0.004849895,0.152550072,1.135886275,3.534679936,1.212495749,0.018625431,1.318748035,2.366474712,0
0.00036761,0.150984988,1.365037594,4.352170277,1.220467486,0.022437114,0.7404381,0.707755267,0
-0.003166122,0.139549306,1.768203325,6.223325967,1.226771981,0.01897385,1.180240489,1.957125081,0
0.000736849,0.120153407,2.062506781,7.086046949,1.217531477,0.01743198,1.487876663,2.945972641,0
0.002766874,0.119840999,2.427581054,9.597115576,1.212205614,0.017533757,1.551419342,2.791462619,0
0.002372262,0.126979648,2.836150842,11.88592464,1.230642155,0.03451128,0.98304382,0.243670532,0
-0.000349555,0.127459957,2.892523886,12.28377881,1.259098816,0.030797827,0.074220624,0.011063316,0
0.000174983,0.130101901,2.516931179,10.53319861,1.26018377,0.022093189,0.972707312,0.904566961,0
0.004530114,0.134051902,2.093746217,7.867633452,1.254169791,0.018958309,1.382627271,2.433851973,0
0.000212173,0.126495596,1.678031286,5.580230698,1.259107917,0.018860941,1.163759424,1.948755621,2
-0.000633323,0.125607553,1.722102414,5.745597967,1.253884288,0.019907185,1.019125416,1.318003759,2
0.002755306,0.127859726,1.818297534,5.92027374,1.241780853,0.017350311,1.558070096,2.936083884,2
0.000260657,0.133943994,1.059314141,3.713046694,1.237784086,0.017054396,1.615340763,3.370276392,2
0.002315513,0.133466865,1.360101768,5.355691148,1.226212856,0.020476015,0.886396997,1.496262839,2
0.003533752,0.125581655,2.171358487,8.193885164,1.209648241,0.019212663,1.120221452,1.85955255,2
-0.001802529,0.120334079,1.959861652,7.068993747,1.198548944,0.018206718,1.353659945,2.344879,2
0.000152442,0.122057989,1.951741684,6.987743207,1.189893668,0.01729789,1.489019907,2.787934072,2
0.003853291,0.129563869,1.692727479,5.872566182,1.187881797,0.017473888,1.214482239,6.046232251,2
-0.000180071,0.126852009,1.492980398,5.455401465,1.18921863,0.01728849,1.253325114,6.530475932,2
-0.000183982,0.124540686,1.844268618,7.075658384,1.186082186,0.017148524,1.602185885,3.336627226,2
0.002881701,0.127555288,1.809230663,6.831709937,1.183128139,0.017041277,1.577872811,3.305366514,2
-0.000390126,0.128279966,2.010010448,8.491702077,1.18067191,0.017396186,1.475975025,2.679447081,2
-0.000166312,0.129769682,1.923757877,7.571997343,1.178152956,0.017001463,1.557126744,2.899336003,2
0.0019662,0.131674491,1.495331909,4.992961365,1.177408763,0.01657503,1.523479778,2.899311843,2
0.000370154,0.139897359,1.188033918,4.521291533,1.177729961,0.016788491,1.556608189,2.989396453,2
0.001632143,0.139499469,1.308765925,5.233139475,1.178662818,0.017066437,1.605861263,3.182314911,2
0.004004517,0.129003508,2.131607363,8.784083971,1.199641309,0.041532137,1.310906279,0.658916863,2
-0.000853683,0.129035372,2.453395261,10.57087097,1.241886139,0.041915573,-0.429825369,-0.695811253,2
-0.001158816,0.126657172,2.459771737,10.15461762,1.269392559,0.019162238,1.123313938,1.953960061,2
0.004100791,0.120245977,2.499428322,10.21649247,1.293409838,0.025915631,0.483182076,0.086160038,2
0.001959019,0.128160902,2.274316353,8.633680629,1.306314141,0.019172208,1.199660332,2.311946188,2
-0.000757102,0.136176158,1.790576925,6.154400347,1.294737462,0.018868969,1.300539356,2.764931313,2
0.001020257,0.138135732,1.166758069,4.037112941,1.284165737,0.01764001,1.421087657,2.888039339,2
-0.000406396,0.143963386,1.063285688,3.396665357,1.280814634,0.016779075,1.498094896,2.900828265,2
0.001850294,0.139453636,1.835259739,6.66123652,1.278953661,0.017219847,1.51660052,2.806235663,2
0.00369586,0.127437638,2.62993924,10.65850108,1.276685824,0.017215237,1.570483627,3.03151678,2
0.000858536,0.125129131,2.337185663,9.525630927,1.274140767,0.017051474,1.473577289,2.855265023,2
0.000976273,0.130947659,2.08857396,7.703565224,1.271199799,0.017196003,1.520659604,3.029955105,2
0.001117584,0.127328272,2.392105665,9.013199043,1.266011538,0.017859484,1.448227276,2.893495557,2
0.001371552,0.121126144,2.91703722,13.22684842,1.261885943,0.016699507,1.656319099,3.469264538,2
-0.000672854,0.121681315,2.768029064,12.31816449,1.261938313,0.016943803,1.626160293,3.418253514,2
0.002223031,0.131115346,2.726986102,12.05597659,1.26198507,0.017439597,0.849999939,13.76237037,2
0.003721069,0.14050986,2.194810526,8.670100581,1.263144902,0.01736701,0.712022644,15.20987267,2
-0.001289546,0.145286139,1.320461398,3.70293845,1.263479832,0.016947678,1.431193455,4.352576679,2
0.002186227,0.158540657,0.935126394,2.713912403,1.264836557,0.017960581,1.397689498,2.605320719,2
0.003541724,0.153397799,1.005400583,3.190569148,1.270211465,0.018328964,0.584545844,10.29809692,2
-0.001224642,0.134824127,1.616962477,5.677815143,1.278661237,0.017820094,0.700749872,12.69009957,2
0.001003228,0.140215651,1.416409496,5.44721772,1.351648276,0.073344892,0.171638713,-1.628026001,2
0.002687995,0.135739093,1.602469624,6.286392853,1.406158393,0.031459062,0.135046598,0.135064019,2
-0.002973652,0.127287296,2.462148045,9.690289365,1.392252186,0.022106755,0.889832087,1.0140561,2
0.000305917,0.134758091,2.344323343,9.097690774,1.399193137,0.020887177,0.768498395,1.1706979,2
0.006022352,0.144939378,1.696662287,5.987367106,1.4102805,0.018451588,1.088871105,1.81230207,2
-0.001654351,0.144202706,1.338643405,4.266742093,1.415001351,0.017191215,1.19854795,5.385394094,2
0.001472763,0.13477161,1.697015014,5.801742906,1.420701327,0.018049366,1.114958994,4.922521855,2
0.004321943,0.127892277,2.168773809,7.807871252,1.422656304,0.017433498,1.426156333,2.653022449,2
0.000428114,0.123168505,2.164135722,8.302916593,1.425675365,0.01784345,1.293426655,2.400277546,2
0.000311521,0.130702541,1.830479852,6.293674028,1.430681665,0.016908565,1.559654259,2.983498579,2
0.000162879,0.132061672,1.5762549,4.783273688,1.425594166,0.017012008,1.478986889,2.70036881,2
0.000215188,0.122889135,1.625669436,5.213751929,1.418663352,0.017402997,1.204023401,2.515634829,2
0.002560763,0.127223558,2.597504492,10.73196902,1.406386675,0.019996051,0.912219823,1.885637917,2
0.003064617,0.142994173,2.37182992,9.179381124,1.416324997,0.027525804,0.529114179,-0.092341287,2
-0.001269856,0.143348256,1.864861279,6.918488746,1.439839445,0.020823983,0.671903103,1.632236009,2
0.000230131,0.13186536,2.031678405,8.519334131,1.457249832,0.023189518,0.785975866,0.714480784,2
0.002834538,0.126601364,2.320156196,10.11380955,1.460082299,0.021748763,0.846507595,1.059131512,2
-0.003007207,0.129409588,2.270729934,9.779717873,1.47320306,0.062380737,1.618494412,1.325130273,2
0.001061155,0.134033511,2.26900894,9.580050327,1.518965476,0.063854305,-0.005044096,-0.937117272,2
0.008073624,0.139239487,2.482573219,10.04709462,1.525713076,0.027983866,1.045042008,0.696398375,2
0.001437463,0.135564816,2.466749962,10.33076083,1.514099067,0.018118186,1.135109893,1.811500708,2
-0.000250076,0.129065969,2.259577168,9.614810627,1.525098419,0.019795312,0.885574269,1.836924095,2
-0.001099967,0.130039967,2.348688437,9.86623255,1.520161601,0.02155245,0.665397187,2.809053364,2
0.000176389,0.131234097,2.450836059,10.23012683,1.503562491,0.017535986,0.958632441,4.867462355,2
0.003187735,0.134258802,2.51583493,10.68851577,1.495595224,0.019658716,0.869952453,1.597616709,2
0.002522526,0.136414262,2.393144283,10.18548971,1.503201948,0.022329352,0.400209388,0.691749282,2
0.000989783,0.133245485,2.474492631,10.38493328,1.506189619,0.019157589,0.851104881,2.141322432,2
0.000338654,0.12699222,2.722640908,11.86022994,1.494513757,0.018207339,1.036527892,4.313654064,2
0.000737104,0.123355854,2.662486202,11.46115143,1.486609486,0.017563155,1.157387186,3.906200166,2
-0.000747338,0.127336981,2.527508806,10.35680897,1.474982289,0.018529454,1.132376364,2.028680508,2
0.001853282,0.126252087,2.478576044,10.48358457,1.500600433,0.05170441,0.94205602,-0.476529251,2
0.002494884,0.126285279,2.556298865,10.89868696,1.547445079,0.04237654,-0.619497202,-0.123578283,2
0.001225845,0.128398657,2.638846742,11.0544716,1.65086441,0.119340892,0.926946056,-0.497457849,2
0.002252093,0.123515227,2.744675332,12.07092746,1.742599215,0.083295573,0.003637569,0.024197743,2
-0.001711742,0.129260424,2.797389254,12.69558103,1.718119049,0.047390307,0.636601385,-0.213755217,2
0.001629174,0.130719398,2.5977101,11.53558502,1.728352683,0.045700906,-0.274118347,-1.051629302,2
0.002621684,0.124150215,2.585313142,11.29791134,1.799727958,0.058305186,0.671297197,-1.075586172,2
-0.000278615,0.128538999,2.886537322,13.47743919,1.84386673,0.048639695,-0.983524639,0.34347555,2
0.002632965,0.132143211,2.792378571,12.55165043,1.828341239,0.032208936,0.373860139,-0.471438537,2
-0.000557909,0.124206825,2.596321389,11.06987031,1.816763742,0.056370291,2.096345517,3.666739321,2
0.000167064,0.125906693,2.54220904,10.46699559,1.865415628,0.073558543,0.346669559,-1.065323241,2
0.00395772,0.127988217,2.51611596,10.36576616,1.864841025,0.052675182,1.101557835,0.205169102,2
0.000432776,0.128490006,2.800888702,12.9575235,1.817965862,0.020257713,0.791311555,0.985754567,2
-5.27E-05,0.134401682,3.052538577,14.58747407,1.800276893,0.020567735,0.715855976,1.043869309,2
-0.00419802,0.1333816,2.752005486,12.91494648,1.813055311,0.054039331,1.981037401,3.195502429,2
0.000461197,0.134071864,2.285803222,9.948011021,1.889956447,0.078283069,-0.231555,-1.412649253,2
0.007579245,0.13221379,2.138925655,9.292714986,1.934078707,0.031104262,0.78334837,0.08492257,2
0.003971204,0.131189018,2.106264604,8.817506728,1.913752093,0.021565671,0.961921991,1.090875509,2
-0.000701856,0.13144917,2.305871356,9.698807529,1.899119077,0.018860109,0.852210815,1.268819742,2
-0.001622753,0.128559346,2.318990535,10.01364164,1.919603239,0.034275441,0.310284759,-0.817681813,2
0.005583069,0.12789387,2.307980109,9.578489167,2.105987167,0.168226615,0.178495684,-1.838323093,2
0.004054563,0.132547985,2.633501777,11.62141431,2.281379536,0.059246147,-2.870250711,8.729114491,2
-0.001881755,0.128555224,2.641131009,12.27571897,2.295671409,0.025945503,0.264083109,-0.154375805,2
-0.002342808,0.123552452,2.300358937,10.3430578,2.292716708,0.025999241,0.380026925,-0.057219468,2
0.004689691,0.131714506,2.355566366,10.51065889,2.378349141,0.091829205,0.192517083,-1.554696149,2
0.003408979,0.128302747,2.559967126,11.33142106,2.453808757,0.038579929,0.122222579,-0.253322117,2
-0.000549722,0.127434539,2.834850678,13.41798759,2.404917799,0.048567162,0.311699897,-0.829023149,2
0.000332657,0.138747839,2.92961894,13.46511651,2.366835512,0.029550779,0.168587087,-0.334964849,2
-0.006790165,0.134087583,2.729144552,12.54253404,2.420734242,0.095418874,1.792908113,2.973560237,2
0.002144852,0.13227312,2.412820717,10.82929503,2.568557031,0.128188727,-0.157012114,-1.324964559,2
0.011281265,0.139128113,2.40192479,10.34906053,2.6583895,0.065381938,0.003541156,-1.10386829,2
0.002143243,0.139056842,2.432998643,10.28118439,2.623031507,0.061243054,0.723778788,-0.505659623,2
-0.002443281,0.139367126,2.158774918,8.732921859,2.560445513,0.04115698,0.176108433,-0.95924753,2
-0.001861535,0.142495754,1.805888828,6.682628299,2.587911061,0.12242047,1.371605839,0.224477625,2
0.002566825,0.14005919,1.864197633,7.427197627,2.670312827,0.111700975,-0.081966834,-0.918924233,2
0.001509266,0.132405456,2.19199167,9.150452672,2.689239665,0.050524372,0.28423775,-0.867957479,2
0.003002348,0.124576216,2.420315293,10.73680852,2.709289551,0.067471981,0.277387925,-1.045129561,2
0.003935466,0.128933639,2.533670574,11.79794176,2.678733499,0.073624198,0.901923879,-0.466548673,2
0.00049787,0.142980647,2.387000404,10.07339643,2.623503985,0.028305065,0.59761342,-0.135050198,2
-7.08E-05,0.142833439,2.325037896,9.904315455,2.638935743,0.032112901,-0.18104229,-0.73841181,2
-0.00337309,0.135782811,2.4229126,10.58656008,2.662415968,0.032951595,1.286864031,1.521169936,2
-0.006386608,0.130984201,2.075626564,8.863820313,2.738738687,0.11430932,1.715211839,2.351185876,2
0.005349067,0.132587746,2.214613337,10.08436223,2.908151627,0.144721866,-0.014983616,-1.399113239,2
0.009587592,0.134953961,2.480948807,11.15592702,2.938141414,0.09278327,0.885350501,-0.421607721,2
0.001061966,0.137955781,2.268456841,9.230944957,2.913914871,0.075724461,0.565118886,-1.145733319,2
0.001434998,0.137388972,2.307831989,9.414546161,2.926565606,0.069882012,0.362530255,-1.095436828,2
0.000158785,0.129503083,2.362235508,10.28025304,2.886583219,0.028705729,0.689587371,0.043193435,2
-0.004093663,0.126751224,2.311608126,10.06373473,2.895879854,0.04628372,1.563676636,1.820003798,2
0.002424898,0.130971635,2.605626377,11.80532756,2.935368347,0.050889985,0.119989593,-0.909755874,2
0.005557048,0.133192225,2.61438267,11.99898721,2.94203998,0.030801434,0.693995443,0.728032299,2
-0.000124427,0.135106546,2.670815646,12.25019635,2.915006638,0.024748856,0.261573569,-0.383047474,2
-0.00933129,0.140935274,2.409450829,10.64325224,2.970255498,0.133988416,2.192970686,3.533327445,2
0.005080157,0.140954333,1.916561457,7.83598176,3.129309518,0.160308677,0.002923368,-1.328006065,2
0.01068922,0.131279775,2.19640209,8.867892498,3.142406355,0.101968785,0.821126318,-0.270021413,2
-0.001965886,0.136437946,2.829195918,13.26846546,3.06610914,0.027038397,0.174570194,-0.224426423,2
-0.000163834,0.143782144,2.401479301,10.55346948,3.107636097,0.072632335,0.761902036,-0.683375007,0
0.000206648,0.13304064,2.049762109,8.381122736,3.119707053,0.069456157,0.431011605,-0.759766214,0
0.006839199,0.13224662,2.507592597,10.9527688,3.163915198,0.085637493,0.537974601,-0.807463318,0
0.001617783,0.141423937,2.135208787,8.190261202,3.172331946,0.076525596,0.827529522,-0.628488988,0
-0.003059738,0.137661062,1.874162906,7.047567367,3.121329771,0.026575792,0.725603062,-0.051289255,0
0.003810287,0.12954758,1.941140604,7.805630271,3.22153304,0.12182371,0.67172484,-0.97460634,0
-0.002830595,0.135350145,2.128848664,8.653125306,3.310682624,0.138536124,0.401087752,-0.960672936,0
0.000486904,0.136517791,2.286776835,9.840580198,3.314086315,0.125671374,0.717264418,-0.541560911,0
0.004047076,0.145815309,1.948143575,7.387739569,3.237937055,0.098804349,0.729754859,-0.249172356,0
0.00050815,0.223945571,1.173743265,2.934675975,3.218839264,0.069489832,0.059242276,-1.349264504,0
0.007312454,0.253520202,0.611723683,1.303435086,3.22906783,0.060269648,0.108891328,-1.216234308,0
0.005129811,0.306301162,0.579537791,2.735162314,3.131545639,0.052931801,0.208102782,-0.987334457,0
-0.002541288,0.293501333,0.671347032,3.928861499,3.029412787,0.066141071,-0.299235704,-1.185203911,0
-0.000985003,0.172531327,0.498542796,6.272032221,2.92154868,0.062215273,0.447449537,-0.770755641,0
0.000366943,0.182560649,0.731681437,5.254562339,2.84629146,0.033775556,0.271295842,-0.343688877,0
0.002157139,0.180164916,0.564871895,4.986384803,2.787198475,0.043579236,-0.157000332,-0.784930174,0
0.001907769,0.133358443,1.593114362,5.638511621,2.709321049,0.050750437,0.090042225,-1.055211458,0
-0.002687674,0.126095116,2.065502201,8.762195403,2.628773771,0.046447422,0.059418342,-0.864933762,0
0.00171734,0.120101404,2.24247242,10.11808679,2.561385618,0.037442879,0.440259661,-0.675902262,0
0.001614068,0.117545697,2.25944075,10.33184254,2.506418828,0.033570274,-0.140801285,-0.430930581,0
0.003115258,0.121570415,2.092848021,9.159217241,2.450027248,0.039223876,0.120612678,-0.754394117,0
0.000951658,0.12252984,2.12150106,9.563205652,2.388855907,0.038416112,0.085018035,-0.74055871,0
-0.001741255,0.12209311,1.984775837,8.695963158,2.336868668,0.031100333,0.260458387,-0.173804897,0
0.002008608,0.122151422,1.971247453,8.38041515,2.290015139,0.03296391,0.087060231,-0.479038318,0
0.002079627,0.123954575,1.877336272,8.04669651,2.241719546,0.031186075,0.269853569,-0.478858487,0
0.00013026,0.125710751,1.786372775,7.523481061,2.195461437,0.030813948,0.183996533,-0.444789861,0
0.000499584,0.123880073,1.857029801,7.889534666,2.152652359,0.027892022,0.407032492,-0.207285939,0
0.000884197,0.123330163,1.971207237,8.962346145,2.114912197,0.026547984,0.286981815,-0.010320808,0
0.001339083,0.123130034,1.89950004,8.464751348,2.076527023,0.028596974,0.281829802,-0.251713727,0
0.001485476,0.122679463,1.867764345,7.737629247,2.037355532,0.027206527,0.373752778,-0.141600238,0
0.000823183,0.11996747,1.926285763,8.676413178,2.001382555,0.025665407,0.4100125,0.038674128,0
0.00114592,0.120624177,1.863823373,8.384871097,1.966949354,0.025799305,0.409596556,0.116750994,0
0.00218061,0.125748516,1.958517389,8.425661168,1.932810211,0.02571919,0.433545058,0.175442918,0
0.002151221,0.125548801,1.836536273,7.964266343,1.902705329,0.023833592,0.638963535,0.78152955,0
-2.55E-05,0.126409292,1.865418586,7.230978646,1.874208832,0.024591572,0.633982667,0.594867488,0
-0.000163042,0.127436789,1.860279288,7.200825435,1.847970745,0.021253472,0.815807433,0.917462623,0
0.001095278,0.124131641,1.679658796,7.048912093,1.826843916,0.020637137,0.799703623,1.151859212,0
0.000756049,0.122261902,1.829612713,7.6182677,1.803642273,0.022502846,0.658368846,0.713686602,0
0.00231754,0.123764489,1.809046138,7.243116435,1.78846332,0.019130236,0.945682135,4.286400286,0
0.003074138,0.122978798,1.666737732,6.13418697,1.799709865,0.023235453,0.408653303,1.652091148,0
-0.000401701,0.12287998,1.901692491,7.592950543,1.799302401,0.023010389,0.577770618,0.369498171,0
0.000189141,0.121944987,2.29222378,10.30866694,1.771963501,0.023251276,0.586976893,0.614502996,0
0.001107899,0.118200418,2.349722389,11.33795365,1.747635542,0.022386656,0.742600186,0.817762275,0
-0.000381808,0.119124914,2.143844439,9.982566529,1.747367586,0.022494131,0.722120285,0.711733294,0
0.004901361,0.120973764,2.281257483,10.22963734,1.740057537,0.026790134,0.395767458,-0.001446801,0
0.003709534,0.119401919,2.282562337,10.78859465,1.707204873,0.024655957,0.666415214,0.678895417,0
-0.001836764,0.120492999,2.097537666,9.780196562,1.679552896,0.022553,0.678019027,0.737179691,0
0.000190417,0.137624913,1.844131867,7.262005242,1.66744303,0.020083264,0.936799579,1.48848276,0
0.000800164,0.145422422,1.889324749,7.327276602,1.671368299,0.020902705,0.822823006,1.320266055,0
0.002571265,0.142394309,1.95373714,7.902055027,1.662715803,0.022342556,0.865186173,1.038328491,0
0.00197525,0.140647751,2.047199434,8.387855061,1.641772951,0.019942757,0.966367612,1.584233734,0
0.001612342,0.127413128,2.553223356,11.77789401,1.625624193,0.020087414,1.085800783,1.6198042,0
0.001387469,0.134873849,3.118651422,15.61521493,1.627107947,0.021455792,1.058321495,1.48295214,0
0.000487067,0.143403285,3.50593551,18.70572004,1.620178168,0.024807861,0.699366178,0.63246781,0
0.000612023,0.132817289,3.579863767,20.28734659,1.594450542,0.020815965,0.972080902,1.474174339,0
3.26E-05,0.131106775,3.133439012,16.0400394,1.577085931,0.019837339,1.123265283,1.826472134,6
0.001596248,0.126423329,3.220704096,16.70600736,1.561738913,0.020742712,0.898792726,4.619897402,6
0.002533683,0.12576552,3.202748198,16.2754344,1.54657026,0.020281956,0.986730832,4.469501904,6
0.000391061,0.128247343,2.979135668,15.23819603,1.52922881,0.021521935,0.542236306,5.639755718,6
0.000726608,0.124201343,3.026905518,15.98166423,1.506835393,0.022852588,0.558481711,3.447493784,6
0.002928157,0.121244515,3.276289723,18.18519105,1.484057508,0.022065644,0.556002724,5.735599644,6
0.000640281,0.122204862,3.06838621,16.46770405,1.461215537,0.022891048,0.533405444,3.920516914,6
0.000630726,0.124929265,3.004654957,15.33315105,1.44083459,0.020743313,0.850504975,3.536195813,6
0.001842348,0.129572233,3.185891393,17.04200467,1.424056734,0.020835578,0.936808615,3.072200405,6
0.000576736,0.131326679,3.286921065,17.6205849,1.406863839,0.02035177,1.123540877,1.876126827,6
1.46E-05,0.12687885,3.360732841,18.47939974,1.391288321,0.019828149,1.168387012,2.036072721,6
0.001145194,0.127071723,3.172865265,17.07766087,1.376111603,0.020320922,1.105707746,1.704880812,6
0.001790366,0.130213185,3.125861097,16.08546722,1.360834176,0.020166135,1.178618093,1.92271729,6
0.001127537,0.12759626,2.924061719,14.80397507,1.358325849,0.023965673,1.093071508,1.304064763,0
0.002069438,0.13654713,2.14081263,8.9642196,1.390251596,0.03618488,-0.03736345,-0.540535236,0
0.002089502,0.14338251,2.007684146,7.719962498,1.423154231,0.019872114,1.22239693,2.247374103,0
-0.000238632,0.13009504,2.279019622,9.358512923,1.423535647,0.01914622,1.363943088,2.429678265,0
0.002570592,0.125756465,2.468749302,10.50424005,1.413090679,0.019141465,1.386531241,2.450706961,0
0.001229769,0.131334809,2.594606901,11.38990106,1.403041513,0.019485169,1.295743866,2.296235117,0
-0.001490616,0.133162009,2.548140315,11.47548598,1.389897047,0.020806564,1.154304444,1.784340673,0
0.001692954,0.132164561,2.369686492,10.53811636,1.376975632,0.019207808,1.367944557,2.470549137,0
0.003830717,0.130423664,2.024632842,7.774842938,1.366506032,0.019664657,1.305245203,2.358942523,0
0.001127354,0.131304051,2.393848752,11.26405817,1.355929347,0.019178101,1.120918201,6.675728541,0
-0.000416107,0.137808153,2.274516365,11.0597643,1.346361978,0.01926587,0.991064174,5.4492432,0
0.001277455,0.137419586,2.076293261,8.869784678,1.335559736,0.019973793,1.363440685,2.458437582,0
0.000811622,0.131909277,3.066930789,15.68235377,1.327285876,0.019053134,1.433494716,4.58531362,0
0.000654085,0.134685922,3.063988462,15.79283216,1.323463658,0.01886147,1.466904758,4.624200262,0
0.000580307,0.139551206,2.639840823,12.02982015,1.317340578,0.019668559,1.447859595,2.807069735,0
0.001497404,0.138745878,2.320322752,10.29493156,1.305357361,0.020822195,1.077121794,3.76878744,0
0.001224982,0.133197194,2.266625488,10.21852517,1.291615895,0.020240228,1.088388851,3.339815637,0
0.001382649,0.135259138,2.928430491,14.29477362,1.280379323,0.019339035,1.375850893,2.441700757,0
-0.004145011,0.206401293,0.796612091,3.807395694,1.289025988,0.025249523,0.504732762,4.746888167,0
0.000930457,0.206396161,0.444605512,2.663265762,1.291155515,0.025027814,0.410100019,5.029278671,0
0.005817156,0.130673781,1.440704176,6.283869578,1.270693098,0.021917132,0.686934842,6.595329061,0
0.001498947,0.142935917,1.498642357,6.362392055,1.259373474,0.019551673,0.915637236,9.535659641,0
0.003134478,0.152408439,1.363550629,7.335269256,1.253520911,0.019693162,1.414817563,2.422061294,0
0.000396848,0.132812108,1.155343835,7.846225288,1.250636346,0.020643349,1.265543458,1.853787517,0
-0.001415942,0.134761951,1.203339306,4.550904048,1.287965993,0.049666264,0.983215076,0.784636835,0
0.005176006,0.137854133,1.67507757,6.319375602,1.397956085,0.08121148,-0.150313979,-1.557217703,0
0.004593567,0.255139696,-0.603234679,6.818095276,1.526266534,0.06807096,0.373572678,-1.155080774,0
-9.38E-05,0.275594842,-0.340932751,4.749374205,1.587266595,0.039224874,-0.886853576,1.00404421,0
-0.002556891,0.265698791,0.688617026,2.20375594,1.585456303,0.021660133,1.075753976,1.519506756,0
-0.00613555,0.462417165,0.17960197,1.275320226,1.570540346,0.020853215,1.082115075,2.061477042,0
0.009506391,0.597345877,0.084175604,-0.152581545,1.557543564,0.020742249,1.079291,2.025449886,0
0.006575474,0.601528555,0.089554454,-0.275034791,1.550890078,0.020423532,1.248514921,2.295008437,0
-0.003482169,0.560777983,0.301484244,0.058030742,1.546317346,0.020250417,1.176335402,2.026156825,0
0.001560706,0.488934414,0.556430548,0.33785816,1.53773831,0.019660271,1.227886838,2.156222232,0
-0.001695884,0.345974028,0.581204512,1.45394157,1.543065098,0.02760292,1.021140511,0.59255341,0
-0.003769187,0.206445244,0.773261408,2.210330199,1.559554781,0.026648342,0.354562783,0.361414636,0
0.004097861,0.271016089,-0.32055738,2.558562171,1.555861664,0.022327279,0.811682963,1.375366493,0
0.005044294,0.365038215,-0.16360295,1.545551085,1.529513768,0.026966152,0.378325411,0.312705404,0
-0.000461622,0.293102782,0.145236827,4.5417009,1.51544026,0.022014124,0.987603979,1.52774126,0
0.003038197,0.157985168,0.244200454,2.860899701,1.510296576,0.021711651,1.137196077,1.625566273,0
0.001925727,0.155776883,0.993538211,4.41989203,1.513566698,0.023405816,0.881242038,1.147909871,0
0.00210638,0.136045599,1.796925759,6.703749145,1.5244927,0.020888716,0.87782103,1.965348263,0
0.001212518,0.120482508,1.511193375,5.20610982,1.505016926,0.028126959,0.421391809,-0.163714081,0
0.003394298,0.12587053,1.215015519,5.119817319,1.474142075,0.022828726,0.968835042,1.238358753,0
0.002637608,0.238934642,0.286664403,6.666575205,1.434172985,0.039866603,-0.207228823,-0.597856362,0
-0.004118827,0.26790796,0.058732517,4.101321012,1.379142816,0.038685313,0.690463872,-0.013323416,0
-0.012652967,0.243488822,-0.425956706,3.979733984,1.340006256,0.025662914,0.848076043,0.84395753,0
0.001907246,0.409371534,0.119894101,2.858582317,1.353092521,0.035402201,0.493277861,-0.36716262,0
0.01650121,0.408358645,0.157849218,2.517191037,1.414395196,0.044992706,0.181671821,-0.833709711,0
0.001649826,0.219312818,0.474851572,1.418878779,1.48348187,0.04469426,0.020772795,-0.434350679,0
0.007376672,0.325963594,0.617203275,3.635004991,1.530894797,0.027985548,0.079112909,0.913415071,0
0.008748492,0.478240485,0.187915618,1.054610006,1.553471266,0.024794336,1.140705272,1.208966124,0
-0.003100675,0.414237486,-0.034584584,2.247860994,1.544754028,0.030956488,0.521208369,0.199464611,0
-0.005165628,0.225612515,-0.25869488,4.272166601,1.503153828,0.034187774,0.294880102,-0.258244929,0
-0.002419471,0.166631551,1.632190503,5.154498882,1.457851083,0.031770173,0.441454469,-0.097696463,0
0.001936164,0.151778882,1.90380569,7.775032944,1.418278994,0.028357612,0.54895994,0.1962231,0
0.000717394,0.153171522,2.170908446,9.399943107,1.386926978,0.025220703,0.749489637,0.779354198,0
-0.000423261,0.158871323,1.910879382,7.764898303,1.364416613,0.022504066,1.156820187,1.564840343,0
0.001867964,0.153264681,1.782331365,7.238088676,1.345902252,0.022605685,0.935009752,1.677730309,0
0.0008854,0.157490995,1.777555679,6.912002346,1.320885958,0.026344286,0.734687983,0.724949344,0
0.000840238,0.159904691,1.740705775,6.799474114,1.297182792,0.022060784,1.196720403,1.816273952,0
0.002607664,0.170697513,1.557316984,5.433148932,1.280608858,0.02222555,1.172809006,1.704115542,0
0.002544368,0.172121812,1.542793537,5.421528237,1.265860258,0.021537853,1.284251847,2.079046522,0
0.003493685,0.154507175,1.936087775,8.009352237,1.251098524,0.022530638,1.155418556,1.71444297,0
0.002541314,0.149076312,2.182981406,9.166532764,1.236528996,0.021504741,1.338351564,2.107163982,0
7.90E-05,0.148489102,2.182092113,9.005068393,1.230054147,0.020909474,1.309317252,3.206252149,0
-0.001874431,0.146768976,2.257979618,9.096130741,1.237431499,0.022608181,1.028680198,2.39540422,0
0.000539429,0.14087824,2.308813115,9.338916506,1.248534666,0.021071297,1.446654906,2.578590576,0
0.001507618,0.138108543,2.42154173,10.88092058,1.251601246,0.020218544,1.599902499,3.001352672,0
0.000181948,0.140367094,2.294439328,10.34456128,1.255139051,0.020118177,1.463838354,2.478001292,0
0.001779772,0.141125,2.114674537,8.880589481,1.258493859,0.019758561,1.544732237,2.752087639,0
0.002447505,0.142819001,2.275282582,9.538058772,1.254233388,0.020645995,1.516440943,3.021876162,0
0.000108065,0.143305812,2.309736133,9.570651247,1.244102478,0.020993389,1.494980545,2.982007401,0
-0.000536963,0.140819654,2.1973388,8.916667229,1.233393151,0.020163785,1.45402689,2.34412614,0
0.003466428,0.141876074,2.258683188,9.700540693,1.228936277,0.020364055,1.564200473,2.635554203,0
0.001486843,0.143892279,2.180320754,9.452305169,1.226663371,0.02074523,1.526713111,2.603250734,0
0.001062038,0.14360883,2.048806924,8.680901951,1.220105416,0.020705417,1.427458768,2.418727182,0
0.002748047,0.14046794,1.654648244,7.242365687,1.209400776,0.021190409,1.282891688,1.989625266,0
0.002502542,0.144211036,1.859034207,8.171594484,1.200600651,0.020032273,1.531349178,2.71381879,0
-0.000228156,0.155134073,1.57498716,7.689563364,1.194246238,0.020271339,1.480121702,2.661842482,0
-0.001997432,0.158897665,1.062099681,5.527037417,1.189190565,0.020225037,1.580951324,2.755139443,0
0.00308226,0.1464274,1.864470205,8.946896824,1.191053336,0.020364719,1.48191403,2.303253958,0
0.001791164,0.137208426,2.735050285,12.77183375,1.19015007,0.02051168,1.440456044,2.22793546,0
-0.000196073,0.141443569,2.527969143,10.739422,1.186064584,0.019984289,1.611104965,2.766789856,0
0.001263899,0.142890114,2.525674167,10.6273314,1.184164211,0.020196772,1.542232279,2.535912432,0
0.00168731,0.147405702,1.992153711,8.588561925,1.184325027,0.020737386,1.470766104,2.336751299,0
0.001835724,0.144412778,1.763320868,7.587633386,1.18002036,0.021673327,1.253625314,3.110815447,0
0.002716487,0.139971561,2.151367376,8.459680441,1.169880404,0.020953939,1.358573025,3.320949894,0
0.002519884,0.140527555,2.25539801,8.734120192,1.161824145,0.020634341,1.463592234,2.382004231,0
9.52E-05,0.13517205,2.53871341,10.98024302,1.154419763,0.020488967,1.50235643,2.442843263,0
-0.000321108,0.135846648,2.580654539,11.5698884,1.147447641,0.020514048,1.463825288,2.442281122,0
0.001319975,0.138931035,2.432449518,10.49475026,1.141827992,0.02022817,1.51133563,2.497949138,0
0.000773836,0.133912197,2.621807209,11.99549344,1.139322172,0.020362118,1.52484386,2.634837343,0
0.002550208,0.135875433,2.805864898,13.21092547,1.132723836,0.021586462,1.105919812,4.246954772,0
0.002312302,0.134126085,2.56124711,11.69381264,1.123796899,0.021014433,1.264106726,4.417732214,0
-0.000656191,0.136301996,2.657499481,12.91919618,1.117663956,0.020778215,1.499779182,2.699161253,0
0.002283966,0.147172216,2.653144999,12.09581976,1.11199379,0.020477911,1.561491463,2.837487438,0
0.000404853,0.144283511,2.583651362,11.50692731,1.106725747,0.020674851,1.583529779,2.772829864,0
-0.000387745,0.135926906,2.768167599,13.33225517,1.10130261,0.020716534,1.594611953,2.864491059,0
0.001838176,0.135954871,2.862207236,14.19875834,1.095923615,0.021073023,1.323633969,5.327865099,0
0.001589388,0.142057509,2.797750408,12.99939899,1.090334375,0.020761893,1.299315607,5.076202491,0
0.00062388,0.138056387,2.787028333,12.796979,1.08608829,0.020431031,1.596611108,2.679200977,0
0.000511028,0.135738579,2.765806251,12.8606498,1.082074738,0.020344679,1.553270743,2.602957803,0
0.002356482,0.134127314,2.863493334,13.68563926,1.077302115,0.020322188,1.460516974,2.663262351,0
0.000725634,0.137040831,2.872406498,13.43172069,1.072735432,0.020944271,1.551898888,2.929590879,0
0.003779787,0.139885964,2.772642252,12.19445623,1.067724119,0.020984066,1.607437776,2.794994657,0
0.001752182,0.135608219,2.824127974,13.21199108,1.064038522,0.020471449,1.596820888,2.611248024,0
3.15E-06,0.136924215,2.774898417,12.65612899,1.061353738,0.020577098,1.588875798,2.61711163,0
0.001890211,0.134613469,2.851201534,13.01157139,1.057045092,0.020395604,1.576662342,2.72154944,0
0.000386693,0.126728279,2.596394866,11.88395128,1.052180372,0.020358306,1.530642218,2.745964629,0
0.000941698,0.130825358,2.401699577,10.27585657,1.047623662,0.020513768,1.543178987,2.677771268,0
-0.000642896,0.137155658,2.445339585,10.50121863,1.044064713,0.020167576,1.58802338,2.642929617,0
0.001900811,0.132430078,2.466836262,11.21001838,1.039529909,0.020496197,1.548038688,2.623602159,0
0.002685941,0.131246647,2.531133095,11.34598253,1.033959198,0.020407876,1.555180026,2.689917415,0
-0.000293897,0.132439052,2.722347226,12.4991139,1.028994642,0.020857079,1.448284369,2.257763867,0
0.000200867,0.132195709,2.759367137,12.66617543,1.023184531,0.021242185,1.482623495,2.376037945,0
0.002129412,0.130486174,2.654082603,12.00144745,1.017514147,0.020614627,1.539403787,2.593700832,0
0.001650094,0.130901333,2.695424098,12.21204482,1.01337798,0.020463904,1.55916403,2.551124219,0
0.001682654,0.134247503,2.676513321,11.31760157,1.009834998,0.021069038,0.790554233,11.31200557,0
0.000821307,0.135328872,2.537705674,10.66947283,1.005917522,0.020951857,0.796171248,11.07635278,0
1.32E-05,0.132110674,2.434983586,10.84657061,1.001797049,0.020878262,1.542282195,2.484764164,0
0.002089861,0.131084844,2.496850274,11.58557717,0.997447477,0.020722484,1.616413322,2.907341765,0
0.005055751,0.127286241,2.276246358,10.16480153,0.995475224,0.020366804,1.587178302,2.956503356,0
0.001160025,0.128852635,2.177902834,9.454377847,1.014996501,0.02848227,0.609521699,0.275504332,0
-0.001839242,0.127149129,2.410921944,10.92557411,1.027326965,0.023306182,0.911984166,1.875799837,0
8.70E-06,0.114252557,3.052209996,16.17480146,1.013723809,0.022930515,1.178028663,1.918478693,0
0.000492685,0.110251789,3.215614717,17.88061526,1.007079697,0.020512201,1.60430068,2.722965943,0
0.002097068,0.113112409,2.759612346,14.27134777,1.005153819,0.020540302,1.550242661,2.471139358,0
0.001749004,0.11108359,2.937136313,15.73321368,1.001327133,0.020733995,1.534200846,2.385154707,0
0.001619326,0.106624886,3.101510604,17.90143075,0.996600669,0.021233189,1.362820613,4.240791122,0
0.001051705,0.110246778,2.812061477,15.67483634,0.990376827,0.020740433,1.427413724,4.524290204,0
0.000605033,0.110376215,2.545220053,12.88695001,0.985591289,0.020511313,1.286548201,5.152345198,0
0.000641209,0.110386659,2.407918314,11.78055058,0.982524654,0.020836548,1.260276719,4.616267133,0
0.002994742,0.11813405,1.511144218,7.843329637,0.978783035,0.02059889,1.538782249,2.460148797,0
0.001689325,0.118894805,1.601902866,8.290294153,0.97374927,0.020739698,1.553010072,2.518447551,0
0.000976194,0.11295335,2.402541813,12.07561315,0.969981984,0.021020708,1.592740257,2.519122784,0
0.002917864,0.108198398,2.323962842,11.67022991,0.967449188,0.020851165,1.584652793,2.516768045,0
-0.000156431,0.10485684,2.590342342,13.1531567,0.965124076,0.020443254,1.531132231,2.3221163,0
-3.99E-05,0.101604852,2.870979581,15.16267982,0.962763759,0.020767731,1.519916052,2.304808826,0
0.001789869,0.106304871,2.572250256,12.43725689,0.959960938,0.02104133,1.582382306,2.466771443,0
0.000830697,0.107544694,2.410353811,11.24053173,0.95653632,0.021084463,1.589105356,2.573290227,0
0.000850858,0.102506499,2.748141561,14.12803258,0.95036305,0.021245895,1.458855809,2.365333408,0
0.001445833,0.105479298,2.910255164,14.9325705,0.941671807,0.021687277,1.437840339,2.329172427,0
0.000951527,0.110514695,2.903408608,14.3282418,0.933843831,0.021201525,1.530668559,2.558501919,0
0.001898562,0.114400856,2.83999669,14.39998623,0.927101081,0.02126566,1.494315781,2.315591583,0
0.001324729,0.109699474,2.989592081,16.00943074,0.921633584,0.021261147,1.582828477,2.526709551,0
-5.94E-05,0.107387877,2.99287933,15.50138068,0.920280893,0.021195927,1.586770378,2.526767625,0
0.00106876,0.111255236,2.911271029,15.18832966,0.921262087,0.021243604,1.589705662,2.512868283,0
0.001941611,0.111943115,2.981103573,15.82182931,0.921257237,0.021181217,1.633395304,2.697088218,0
0.001189309,0.107645761,3.007783667,15.93823981,0.919114903,0.020898408,1.616687436,2.696664276,0
0.001608967,0.108877169,3.059796815,16.40852753,0.916124998,0.021023324,1.582615852,2.518950108,0
0.000718061,0.118327778,2.840834956,14.34569618,0.913569369,0.021174077,1.56782111,2.430430351,0
0.000295303,0.117669861,2.650615222,13.47353732,0.912742342,0.021298751,1.579540897,2.464368834,0
0.001357053,0.110843805,2.892946759,16.19533616,0.906534794,0.022935542,1.250488469,1.86321663,0
0.001490714,0.106303558,3.024411308,16.83875114,0.895500783,0.022690843,1.404345296,2.043075436,0
0.006627025,0.120472377,2.740090031,13.37399421,0.889810835,0.02156034,1.499981396,2.593940421,0
0.000582825,0.187123174,-0.733560793,10.63035167,0.889278739,0.021389655,1.480423175,2.611662995,0
-0.004224256,0.191499226,-0.81524761,8.707926291,0.89463441,0.02227498,1.396798947,2.214855799,0
0.003358024,0.177582341,1.062897242,6.869939775,0.901003538,0.021424013,1.449820628,2.387780846,0
0.001322558,0.16115322,1.183054893,9.809607996,0.901862662,0.021113987,1.56277623,2.561216756,0
0.00252061,0.123304058,1.770391429,7.723820697,0.903654262,0.021295898,1.574372886,2.642753669,0
0.001101412,0.129807584,2.001085495,8.768023962,0.906980896,0.021009714,1.57625912,2.508564465,0
-9.99E-05,0.165514642,0.601703899,5.770378488,0.909129606,0.021277584,1.480322228,2.300965287,0
0.001169678,0.174570449,0.456168012,4.37163936,0.931017794,0.032910751,0.702554084,0.067105176,0
0.000166789,0.129205226,1.633019541,7.517308721,0.946260016,0.02750511,0.626826268,1.774785978,0
0.001420133,0.132410793,1.7956727,9.608388821,0.925893511,0.027732553,0.70761976,1.338874189,0
0.000357834,0.135554823,1.84455482,9.160070233,0.907991627,0.022170928,1.373646081,2.007088339,0
0.001745871,0.130501687,1.917752494,8.720254841,0.907593155,0.021822498,1.494292832,2.230667373,0
0.002950071,0.126246775,1.938162718,9.546251484,0.91088622,0.02151257,1.569445396,2.352791945,0
0.013583817,0.158176446,1.343182934,4.221161724,0.914086206,0.022434587,1.42143143,1.997468405,0
0.002009818,0.208060349,-0.416128662,5.017757172,0.937163435,0.031269303,0.553736227,0.183521955,0
-0.010676317,0.180977106,-0.903874206,8.65448057,0.96004012,0.022659953,1.346108194,1.973588304,0
0.001098443,0.1291178,1.574887691,6.605901383,0.958601761,0.021830518,1.486664807,2.148630901,0
-0.000380434,0.130205331,1.722097951,7.378053545,0.951242392,0.021966371,1.483267082,2.219338712,0
-0.000698815,0.128730418,1.615376646,7.329287673,0.944549615,0.021448437,1.501421671,2.30462024,4
0.003899525,0.125309128,1.447217518,6.614099289,0.939640808,0.021149148,1.480845995,2.155254135,4
7.22E-05,0.133020065,1.421053614,5.949932197,0.936796297,0.021396083,1.499936948,2.116313576,4
0.000196531,0.134860173,1.435671831,6.049907787,0.933650589,0.021814061,1.491567173,2.172349277,4
0.004001214,0.132627237,1.472636328,6.543411801,0.929836382,0.0217882,1.520591084,2.256410655,4
0.000794377,0.134409982,1.395129792,5.737942412,0.925634439,0.021656861,1.474757461,2.131280392,4
0.00200834,0.136934952,1.379737406,5.418497895,0.921079145,0.021678204,1.444556055,2.92052624,4
0.003588423,0.136717663,1.498643192,5.885534455,0.918167877,0.021663759,1.487462742,3.00301907,4
-0.000609833,0.130006947,1.356508075,5.534044861,0.91828695,0.021898427,1.58760005,2.430351897,4
0.001191042,0.135444879,1.497131952,6.369235824,0.924094772,0.022373175,1.468685506,2.07178684,4
0.000290785,0.135975466,1.61455227,6.995725506,0.930217634,0.021711996,1.535152318,2.275670329,4
-0.000748529,0.129799479,1.522175647,7.132214849,0.933675112,0.021810444,1.528523491,2.304598613,4
0.001247792,0.133545153,1.554346162,6.70647999,0.934048135,0.021624238,1.540519421,2.280784861,4
0.000907745,0.135753585,1.537074917,6.47681546,0.931918062,0.021588918,1.524683115,2.100627796,4
0.003193281,0.134531989,1.528560408,6.514939899,0.929625211,0.02186509,1.524293572,2.132892576,4
0.000148335,0.133219033,1.600438596,6.715898656,0.925586319,0.021888064,1.52195081,2.190478897,4
-0.000493234,0.131881855,1.566513347,6.53582246,0.922427695,0.021636463,1.511789138,2.097924479,4
0.002559926,0.128702097,1.442768213,6.087178094,0.919280406,0.0215862,1.355049677,2.925007281,4
0.001618888,0.133785386,1.590383798,7.425033183,0.914407567,0.021729145,1.354859946,2.876924572,4
0.003310776,0.138304762,1.576458461,6.855796348,0.90744569,0.021981332,1.481998489,2.250505961,4
0.000706558,0.133834826,1.471395522,6.050167532,0.902044569,0.021642026,1.287880755,5.159436655,4
0.000240542,0.134254094,1.497559321,6.055451458,0.898389489,0.021945079,1.245855879,4.637584937,4
0.002632919,0.132496448,1.52236439,6.094079235,0.893782098,0.02176933,1.521750035,2.293637086,4
0.000977064,0.126080704,1.552800287,6.895177485,0.889639337,0.021780236,1.492607323,2.208175245,4
0.000592464,0.128926702,1.511947383,6.470945667,0.884952382,0.021858581,1.459554902,1.994860653,4
0.002124148,0.138705941,1.633405947,6.81473157,0.880533818,0.0218648,1.503739586,2.10397367,4
0.000295349,0.137566148,1.559627914,6.719063148,0.876937703,0.021626778,1.509368831,2.175561103,4
0.000637508,0.131036813,1.381779096,5.73833277,0.872751999,0.021604758,1.453114779,2.4077912,4
0.001805466,0.130826279,1.401040319,5.78884283,0.868757411,0.021872507,1.514323664,2.471536731,4
-0.000212415,0.133076837,1.565063794,7.094097137,0.865259062,0.021719988,1.555308268,2.271557829,4
0.00089071,0.136698557,1.625862808,7.004728941,0.861216627,0.021846107,1.481148562,2.098326227,4
0.002585567,0.137258854,1.424783486,5.540150262,0.856817463,0.022045912,1.505992888,2.16655406,4
0.000969504,0.136749483,1.495939008,6.293150457,0.851941735,0.021773581,1.562505865,2.443516703,4
0.000128651,0.131576798,1.582859275,7.239189636,0.847328622,0.021612671,1.55815684,2.459587131,4
-0.000145059,0.134308144,1.517033338,6.513131419,0.84403692,0.021529145,1.514022833,2.269519346,4
0.001011618,0.133896774,1.510677097,6.491501916,0.841787774,0.021414642,1.408837058,2.940676937,4
0.002370215,0.131750302,1.61013456,6.977591212,0.841165488,0.021597906,1.447830655,3.004514781,4
4.76E-05,0.135295116,1.485363822,5.701307104,0.841035734,0.02176974,1.562701715,2.370566009,4
0.001902198,0.130032541,1.358649579,5.034171077,0.838277054,0.021241329,1.530718789,2.266585951,4
0.003133549,0.132236859,1.375206682,5.382006597,0.835417175,0.021167818,1.575157041,2.346983876,4
0.001571666,0.133000217,1.339286056,5.605848138,0.834017726,0.021708953,1.615626018,2.648611072,4
-0.00020961,0.132385429,1.400005086,5.707741057,0.831124987,0.021771086,1.632197889,2.847144561,4
0.000117423,0.134241554,1.55498306,6.491154394,0.827786091,0.021566531,1.6202531,2.72405283,4
0.001132193,0.129189854,1.682741261,7.829464386,0.825610951,0.021710144,1.53786373,2.356122067,4
0.002675276,0.126575917,1.665399086,7.943441264,0.825081961,0.021599438,1.515421242,2.301343583,4
0.002815776,0.13472166,1.712084272,7.372225311,0.823393849,0.021467035,1.391290818,3.413392534,4
0.001156488,0.133308408,1.594029102,6.642704246,0.818800572,0.021372906,1.442202441,3.473880531,4
-6.79E-05,0.126165465,1.457681748,6.127065663,0.815944835,0.021864325,1.600037691,2.556342932,4
0.001192599,0.128701697,1.523502956,6.582674589,0.813615036,0.022014748,1.548848597,2.371536697,4
0.002162986,0.134692082,1.407175166,5.49777746,0.811017609,0.021185769,1.532142532,2.303924894,4
0.000155855,0.132396267,1.329327963,4.533692114,0.809687206,0.02145395,1.553688736,2.341275734,4
0.00033885,0.128710673,1.446970012,6.062994417,0.808150101,0.021889064,1.538710782,2.259816632,4
0.002533369,0.127206821,1.574998906,7.311291342,0.80567033,0.021994018,1.507746426,2.224115058,4
0.000681401,0.131162968,1.509987463,6.35797658,0.802722658,0.021523748,1.504333331,2.189248608,4
0.000523518,0.129233324,1.457428549,5.66646269,0.802897426,0.021254521,1.501193062,2.169338135,4
0.002001997,0.125506554,1.544143061,6.76632736,0.802918734,0.021243728,1.560007156,2.37809,4
0.001892761,0.132437443,1.482553096,6.0386239,0.800918361,0.021148705,1.560814449,2.354399684,4
-6.56E-05,0.131488891,1.322833507,4.594506628,0.799651718,0.021306073,1.507656704,2.155373518,4
-6.22E-05,0.129829744,1.219205229,4.072497191,0.797856903,0.021431464,1.543888771,2.30725611,4
0.002689035,0.130942985,1.349322961,4.865783345,0.796244975,0.021405353,1.562544756,2.386597091,4
0.000993092,0.130826611,1.369876287,5.283537684,0.79483272,0.021916607,1.548694332,2.299320976,4
0.001006393,0.129049067,1.264092579,4.753888677,0.793308476,0.022094244,1.559904601,2.381660333,4
0.001075705,0.128480412,1.30786584,5.000155584,0.791710772,0.021894962,1.568245375,2.456012381,4
0.000454272,0.129027922,1.251611442,4.683876099,0.790189089,0.021799845,1.534134245,2.757006446,4
0.002270874,0.128786943,1.231434768,4.527455449,0.789305823,0.021935503,1.530856215,2.678070768,4
0.002156158,0.124972177,1.218212853,4.428405386,0.788495636,0.021843047,1.580083749,2.440883083,4
0.00112035,0.126523234,1.207453733,4.539759336,0.787026542,0.021632128,1.53832455,2.345831315,4
0.001803582,0.127582177,1.324511408,5.032652977,0.785322734,0.021929809,1.527545814,2.286443961,4
0.001588479,0.124128393,1.391135555,5.146503126,0.783390917,0.021809844,1.519403925,2.298315901,4
0.001222275,0.125984714,1.419453327,5.321182004,0.782023294,0.021758963,1.542834261,2.385018816,4
0.001674506,0.12828541,1.451737363,5.723781633,0.780862863,0.022181981,1.511589268,2.184925002,4
0.001404635,0.129750941,1.370355056,5.349059182,0.781158611,0.022162135,1.427871758,2.35104671,4
-0.000567346,0.133760565,1.52985623,6.073683451,0.782049125,0.021637854,1.464291848,2.611508721,4
0.000786104,0.133111788,1.566327268,6.365327428,0.781349564,0.021620556,1.534763288,2.37485624,4
0.00431543,0.129448643,1.657134209,6.696468587,0.779936545,0.021691498,1.51778559,2.291768857,4
0.000371907,0.125582971,1.833493565,7.582261687,0.77790947,0.021843641,1.451996812,2.585975561,4
-0.001087084,0.122645245,1.762047054,7.001165039,0.777036994,0.022079718,1.413644348,2.905377957,4
0.002987248,0.127728598,1.829682848,7.135866711,0.776585988,0.021730005,1.453650384,2.544903609,4
0.001033702,0.125494981,1.874732018,7.803052812,0.775607136,0.021422877,1.485513779,2.099659064,0
-0.000141972,0.123812048,1.90969089,7.867300392,0.774997875,0.0216107,1.513594978,2.131998052,0
0.001948118,0.125419845,2.018639246,8.606062663,0.774869101,0.022290945,1.572258508,2.322809602,0
-9.97E-06,0.124739831,2.150540007,9.9223495,0.775429535,0.022099186,1.562484626,2.324248076,0
0.006149002,0.220680635,0.302023137,7.040216374,0.785192108,0.023936815,1.200001278,1.669695098,0
0.001669981,0.22666426,0.117910312,5.9861415,0.790151542,0.022632816,1.353726725,2.049401188,0
-0.005344541,0.128184071,0.640974918,5.856804913,0.781419373,0.02219608,1.386617977,1.830604879,0
0.003132581,0.107858868,2.715615787,13.6203093,0.774985286,0.021921078,1.504512669,2.050318289,0
0.002210587,0.103834343,3.081441469,17.16825726,0.771934019,0.021812655,1.512690069,2.030127041,0
-0.000306093,0.105138124,2.625502437,14.35512477,0.770334407,0.02166673,1.546514561,2.197300151,0
0.001980671,0.111387274,2.204818367,10.76694498,0.770412609,0.022038846,1.568377451,2.321543153,0
0.001213152,0.110591132,2.477808422,12.45379598,0.770540401,0.021878267,1.550659526,2.266822791,0
0.001664788,0.107790054,2.939548867,15.86416165,0.769938006,0.021717514,1.568021373,2.448966982,0
0.001573863,0.107807276,3.175914979,18.01375629,0.770015172,0.021932052,1.54502669,2.339313166,0
0.00026394,0.104682239,3.259266818,19.6318732,0.769458008,0.022040223,1.437085374,2.273157244,0
0.002757699,0.115552065,3.034595292,15.91286592,0.767805263,0.02216016,1.470903204,2.414568049,0
0.002220376,0.14391835,2.177397713,10.94223701,0.768159866,0.022144862,1.53598976,2.251791742,0
-0.001739522,0.151544467,1.441464792,7.609709502,0.766767502,0.022023046,1.463310755,2.462772026,0
-0.000662986,0.144768851,0.886307426,4.500366862,0.76508146,0.021744928,1.474790339,2.486988346,0
0.001309937,0.130284657,1.31373811,6.925214124,0.764045061,0.021786678,1.544172012,2.273372841,0
0.005337721,0.139270195,0.986273309,5.42188862,0.768814577,0.023752324,1.162934222,1.878375525,0
0.003338176,0.143661663,1.056397206,5.040520447,0.774589266,0.023354099,1.189269372,2.0969213,0
-0.003008214,0.121514294,2.934636305,15.63044513,0.76961332,0.023021252,1.462801027,1.998509867,0
-0.001082984,0.160797894,1.356035771,8.764820413,0.764569964,0.022374872,1.573519891,2.39485335,0
-0.001416373,0.171852729,0.639381323,4.474638223,0.76800875,0.022610369,1.477877868,2.196960539,0
0.000317086,0.280764313,0.630884571,4.043650464,0.774607195,0.024075636,1.344038923,1.927628542,0
0.004007963,0.300827334,0.665630811,3.194750855,0.790191759,0.027529336,0.664836241,0.998058513,0
0.002868001,0.185813076,1.362132787,6.333868104,0.803243801,0.022062283,1.421877959,2.813553249,0
0.001444833,0.142210386,1.945970319,8.554935335,0.80115678,0.021746105,1.532351458,2.435478665,0
0.001336349,0.118968102,2.517631224,12.41946132,0.796887643,0.021723049,1.511224044,2.373357537,0
0.002796688,0.110649086,2.649111585,13.16455963,0.792742811,0.021361474,1.502310988,2.227991131,0
0.002393391,0.109524084,2.907620305,15.18504254,0.790436172,0.021849134,1.517882375,2.261762902,0
-0.000617222,0.113904914,3.211474509,17.32572447,0.788353402,0.022315656,1.611477609,2.610675354,0
0.001348572,0.117529804,3.158177222,16.35640107,0.785871887,0.022058856,1.625567186,2.760254443,0
0.001551649,0.115204778,3.327467415,18.59587531,0.78353751,0.02177977,1.554557486,2.416015774,0
0.001494827,0.117852507,3.268207166,18.26916852,0.782030269,0.021740122,1.548247308,2.444010171,0
0.002056412,0.115826836,3.234655673,17.82996745,0.781855501,0.021967745,1.576934785,2.56046681,0
0.000195923,0.115077894,3.290870057,18.00276109,0.782004874,0.022158889,1.577935877,2.434272478,0
0.001269542,0.121678862,3.021612556,15.31070999,0.781553541,0.022369875,1.612134397,2.577954459,0
0.001214434,0.124368156,2.711902809,13.0357229,0.779126249,0.022154232,1.580184621,2.653136615,0
0.000614005,0.119013305,2.679169715,13.09645352,0.775557109,0.022351616,1.427902406,2.342811883,0
0.002542151,0.111632812,2.769601397,14.20751986,0.772067806,0.022523587,1.425550044,2.162268286,0
0.001318229,0.113976596,3.083097633,16.41803138,0.766595023,0.022215709,1.451403581,2.102661556,0
0.000559001,0.120376662,3.019539293,15.79303306,0.761380931,0.022287539,1.545330193,2.385098951,0
0.001390418,0.113458617,2.715954462,14.48429975,0.754015023,0.023254919,1.446412418,2.247978175,0
0.001906972,0.110833621,2.94388156,16.17362078,0.743985367,0.022838855,1.163978893,4.367790295,0
0.001128636,0.128319538,2.798421456,14.52775374,0.738695799,0.023047377,1.153194701,3.862801503,0
-0.000344729,0.141268404,2.068920391,8.846806068,0.7421972,0.023262749,1.348221034,1.897000784,0
0.001051248,0.133111249,1.877181456,7.85499555,0.749181039,0.022234225,1.479331578,2.891701459,0
0.001419813,0.126333157,1.843907398,8.811371338,0.749872698,0.021712096,1.512475625,3.044066898,0
0.000797124,0.120630152,2.113359506,10.57699166,0.747153309,0.021632951,1.572104293,2.490549422,0
0.001365313,0.157729139,2.056068026,11.00708168,0.748498426,0.023254226,1.34856957,1.885000131,0
0.003620728,0.162046131,2.035903895,10.2349243,0.758235005,0.024407368,0.959703905,1.988002186,0
0.002313596,0.116085978,2.889910651,14.63049782,0.760206604,0.022806626,1.258865642,2.665413933,0
-0.000359966,0.109962963,3.101351017,16.41512293,0.75520559,0.022373374,1.4980823,1.987028512,0
0.000679171,0.108295501,3.222137102,18.09420003,0.755084937,0.022250217,1.458737125,1.82851638,3
0.000971917,0.111768051,3.020939849,16.39583573,0.752869524,0.021956701,1.457389512,1.788352018,3
0.001755086,0.11172553,3.158892733,17.57286664,0.750991985,0.022138359,1.535459958,2.086533985,3
0.001665959,0.112075994,3.019625239,17.46560144,0.749426215,0.022309867,1.563677361,2.347753034,3
2.55E-06,0.110881992,2.991792406,16.82135052,0.751550674,0.022621863,1.397906581,1.931109898,3
0.000283637,0.11284929,3.296774497,19.30870673,0.75716738,0.0226738,1.358361934,1.81802513,3
0.001614552,0.114938288,3.187495426,18.78526573,0.761504691,0.022415337,1.435398918,1.910197545,3
0.001362782,0.114588534,2.94486448,16.09258074,0.768626295,0.023113581,1.424816345,1.884887951,3
0.000304334,0.113099999,2.977980666,16.01176683,0.772605678,0.022708815,1.521985044,2.050456873,3
0.001704653,0.113219227,3.032472187,16.06371925,0.774733407,0.022371036,1.516954832,2.252999303,3
0.002231336,0.116168024,2.961060781,14.96047031,0.782515499,0.022848251,1.394624506,1.853950106,3
0.001322885,0.112570343,3.016781305,16.05180236,0.786356572,0.022268338,1.286256979,2.629903528,3
0.001191546,0.109973858,3.198453523,18.28957875,0.788379942,0.022148123,1.264931685,2.654186894,3
-0.000444207,0.114721546,3.165672313,17.25003632,0.790662929,0.022494783,1.437318888,1.830688891,3
0.00127516,0.114364334,3.133576822,16.75307052,0.810434014,0.030201767,0.494414324,-0.105422147,3
0.002603564,0.115544263,3.200457555,17.0282275,0.830578777,0.022303257,1.323856452,1.477716752,3
0.000412877,0.119961602,2.883700895,14.66368564,0.833410154,0.02264416,1.318522113,1.551541039,3
0.003301169,0.117587954,2.396770711,11.6237481,0.835346876,0.021865803,1.464906168,1.794738089,3
0.001320982,0.117464689,2.235831558,10.29127197,0.848456846,0.027154627,0.858411511,0.436734426,3
-0.001129682,0.113957314,2.519728344,12.7701863,0.867255402,0.02445424,0.990380563,1.093115736,3
0.001416628,0.111866487,2.921440815,15.3888521,0.883489064,0.026834735,0.825107755,0.348791766,3
0.002665407,0.107686341,2.96287661,15.78726881,0.883540126,0.026429446,0.835335157,0.351219214,3
0.001516525,0.10848434,2.923681596,15.61630147,0.875000163,0.022719373,1.200690286,1.001763472,3
3.46E-05,0.114540906,2.958279177,15.00662814,0.870360347,0.023447322,1.085899578,0.874622016,3
0.001444748,0.109798722,3.097280927,16.44126173,0.860593414,0.022148688,1.299019911,1.128655226,3
0.001190925,0.110890686,3.138984654,17.08843752,0.851783807,0.023204381,1.183069374,1.055022992,3
0.001045127,0.11376292,3.065890192,15.75837733,0.838569314,0.022900539,1.18058783,1.127807723,3
0.001396558,0.112337822,3.005795308,15.15952621,0.828500693,0.021901542,1.218029761,1.073234646,3
0.000866834,0.114142363,3.00239881,15.40963585,0.819161061,0.022690997,1.003104697,0.657234044,3
0.002316572,0.113319619,3.116567428,15.90022803,0.8060009,0.02347432,1.032820594,0.663639998,3
0.001335545,0.109736139,3.104004045,16.23041592,0.79355654,0.022602989,1.182177255,1.083779422,3
-0.000510629,0.110726386,2.949776909,15.30600558,0.786338697,0.021929022,1.08352598,1.818069722,3
0.001409664,0.108764682,2.967193048,15.88687611,0.78069458,0.022100146,1.050229682,1.563351612,3
0.001927826,0.106503557,2.988506048,16.90785205,0.774547413,0.021736445,1.144981692,1.080295566,3
0.001487045,0.109850568,2.931630443,16.77822204,0.768889454,0.022075921,1.180556115,1.148414991,3
6.97E-05,0.115518907,2.759249232,14.91238914,0.761579677,0.022723146,1.235419147,1.068944874,3
0.000887721,0.116567521,2.950062222,15.74954974,0.753937531,0.022226971,1.267194668,1.262607391,3
0.003771848,0.113299895,3.129572329,16.79334947,0.748207801,0.021511251,1.257612467,1.26553766,3
0.001683995,0.111742619,2.882949234,15.20739778,0.741077914,0.021712485,1.191321363,1.031394615,3
0.001176583,0.110792456,3.047652097,16.55798122,0.732812609,0.022166349,1.191290984,1.0101757,3
0.000651581,0.11216447,2.99938553,15.86610365,0.725457219,0.022121808,1.20261523,0.96622041,3
0.00027216,0.110598273,2.964329806,16.66559609,0.721562195,0.021481536,1.260436485,1.14902882,3
0.001494821,0.110776271,3.025820954,16.64745905,0.721274403,0.022066602,1.227037411,0.985391241,3
8.13E-05,0.114812331,3.032883304,16.28151607,0.716867774,0.02217274,1.179035433,0.930197809,3
0.000990744,0.11427701,3.029297036,16.21587845,0.709997504,0.021314343,1.243228614,1.148501915,3
0.002021504,0.106870516,2.94182581,15.25252401,0.704594149,0.021793645,1.221579449,0.980321058,3
0.002554988,0.109715593,2.959120009,15.41797232,0.699541092,0.022020403,1.255796841,0.987289143,3
0.000987828,0.112562473,2.996609269,15.81925078,0.695424216,0.021758035,1.241925036,0.9618021,3
0.001431891,0.10915554,2.955596692,15.6859515,0.691832079,0.021972135,1.240839551,0.88348671,3
0.00100844,0.10862056,2.948248984,15.49055173,0.690352304,0.021684339,1.311070325,1.176350935,3
-0.000246937,0.109269083,2.958380445,15.45141177,0.688201795,0.021297842,1.237495076,1.093766686,3
0.000173126,0.122127012,1.6580805,7.90475069,0.69856987,0.027279047,0.839790604,0.174537605,3
0.001051137,0.119696372,1.55809558,7.458016493,0.719934191,0.025819157,0.510763489,0.141289629,3
0.004495991,0.108880087,2.694481252,12.45691693,0.735108185,0.022721027,0.969856687,0.441796324,3
0.001721963,0.108247493,2.678197067,13.02623524,0.733741379,0.023496239,0.833300367,0.32118643,3
-0.000721449,0.100669902,2.711517813,14.80017042,0.715741621,0.024120091,0.835633584,0.307537666,3
0.001844742,0.102064025,2.781642948,15.43092787,0.699376787,0.022835203,0.931316647,0.446172347,3
0.001217174,0.107932736,2.812002158,15.99134315,0.687527629,0.022672939,0.999342395,0.369353142,3
0.00011945,0.11230716,2.616196315,13.91375039,0.682493537,0.021550404,1.138813175,0.539677211,3
0.001510568,0.114275084,2.161227149,11.03893705,0.679243524,0.0230609,0.796488959,0.560172379,3
0.001302573,0.115688417,2.124735119,10.46591549,0.665380968,0.025135889,0.736053086,0.252083859,3
0.000992399,0.115237274,2.449023859,11.35934891,0.648222188,0.022974419,0.887878873,0.413080515,3
0.001246131,0.110063179,2.568222741,12.25571468,0.633923721,0.023109041,0.930757784,0.436088681,3
0.001090583,0.104930341,2.602379343,13.32211432,0.605381012,0.033634304,0.04613552,-0.453753926,3
0.001864511,0.110033036,2.653493977,13.78566917,0.574465234,0.027758798,0.942072797,0.357890864,3
0.001339567,0.110208445,2.673153402,13.82258166,0.561936133,0.021730033,1.038660925,0.485760807,3
0.00142628,0.10766282,2.966219655,15.65539626,0.560340391,0.021777244,1.112181384,0.536131539,3
0.001081578,0.111149074,3.038687871,16.20398072,0.567498834,0.022953076,0.91307008,0.451736607,3
0.000832456,0.10764988,2.887354689,16.13393842,0.581120736,0.02305704,0.746518238,0.318648186,3
0.001318019,0.109703039,2.83358084,15.57633099,0.587923104,0.02082094,1.037172524,0.301742487,3
0.000833862,0.108702327,2.679084837,14.59053309,0.583293697,0.020990957,0.935832482,0.256151067,3
0.002404358,0.11027892,2.522744697,13.16334498,0.574226597,0.021264267,0.873497383,0.114662432,3
0.003364243,0.116405694,2.382073945,11.82597184,0.564230565,0.02094223,0.891654337,0.17238514,3
0.000779016,0.115582586,2.519802624,13.00741113,0.556189074,0.020559642,0.983687107,0.32054567,0
-0.000603254,0.115512405,2.442304617,11.70126901,0.545843996,0.021592007,0.835072451,0.307465037,0
0.000584106,0.113355597,2.340284904,11.01916026,0.534251295,0.021358013,0.85559459,0.135663848,0
0.001257797,0.164855503,0.877438847,5.450150097,0.537469591,0.02672216,0.839677757,0.189714708,0
0.001258896,0.165798717,0.819921358,5.057133087,0.562499401,0.030867432,0.029393411,-0.330060976,0
0.000816958,0.117124419,2.352886265,11.12661086,0.584614073,0.022209855,0.939333603,0.260677354,0
-0.000809006,0.168219621,0.828485733,5.130086203,0.593701117,0.021927778,0.938066852,0.401595844,0
0.000865245,0.171015094,0.568229366,4.265740726,0.599754442,0.021089031,1.033046565,0.498622552,0
0.003088381,0.115944049,1.557875375,8.271068566,0.604519599,0.021248343,0.938746087,0.252406407,0
0.004099025,0.105512915,2.667880908,13.47986167,0.606501607,0.02097484,1.00620743,0.174343869,0
0.000852317,0.104923061,2.760174708,14.63239673,0.606023679,0.021037652,1.073816548,0.3342056,0
-0.00071468,0.1039946,2.608077512,13.63664379,0.605713926,0.021308419,1.028291822,0.33683446,0
0.001479571,0.11155939,2.919438797,15.53998559,0.604120581,0.021420972,1.007266406,0.312969408,0
0.00140678,0.149993024,0.822290132,5.581984221,0.598902239,0.021636199,0.965849728,0.308779794,0
0.000345755,0.164613035,0.290838345,3.526408562,0.592351586,0.020940714,0.984015793,0.180497066,0
0.011383471,0.15295021,0.557804926,3.535055358,0.592987497,0.021746608,0.935084361,0.144245419,0
0.000308533,0.161565558,1.384045511,6.046125474,0.60347993,0.023565482,0.70757911,0.253782534,0
-0.009588416,0.17303684,1.659504319,7.408259073,0.606694303,0.022124376,0.902887665,0.507225908,0
0.002810983,0.151564108,1.52889282,7.594948101,0.599594116,0.021358034,1.022305829,0.468820845,0
0.000806671,0.118518028,1.725073154,8.150877201,0.596596309,0.021182303,1.034209725,0.381816474,0
0.001763227,0.206203924,-0.106839675,6.151282327,0.595540564,0.021359186,1.071786603,0.508843147,0
-0.00022004,0.292443335,-0.337895139,4.915761942,0.59553239,0.021505487,1.131722763,0.829379921,0
0.017781287,0.287775469,0.287170917,6.177366815,0.596504865,0.021749154,1.215360145,1.160706316,0
0.000775602,0.315720581,0.267269489,2.498508988,0.636240986,0.058652984,0.67423321,-0.990197731,0
-0.012293505,0.286935751,-0.161472122,2.156939984,0.665001842,0.060670372,0.768051912,-0.018641979,0
0.004363371,0.164032595,1.384761959,4.738023832,0.741294861,0.098710868,-0.222464721,-1.713220844,0
-0.001950413,0.142550617,2.95738954,15.84954102,0.834098053,0.023483576,1.147899905,1.075098561,0
0.002536514,0.132536379,3.51790028,20.19151378,0.83667123,0.023239662,1.29610294,1.233918628,0
0.000587808,0.128747096,3.587560747,21.29521045,0.835134888,0.022920409,1.349309562,1.357631648,7
-0.001179533,0.129584204,3.724971931,22.89048494,0.837535477,0.022573947,1.382133647,1.522577466,7
0.003021404,0.128762645,3.564063156,20.67116197,0.833376857,0.023291393,1.232637802,1.379184933,7
0.00169623,0.129584798,3.443239264,19.33130763,0.823027475,0.023693478,1.201311944,1.114750589,7
0.000685468,0.135624702,3.579839609,20.30749467,0.815768596,0.02294796,1.295763916,1.214382406,7
0.001571712,0.130847467,3.708387034,21.51623948,0.811073249,0.023409567,1.2021358,0.941279209,7
0.001636374,0.12541383,3.552676402,20.16368649,0.804064669,0.023794475,1.213735765,0.972123679,7
0.002839632,0.128215417,3.815646026,22.57070846,0.796402087,0.023728566,1.224095385,0.996967698,7
0.000322998,0.126238037,3.831095608,23.82302788,0.788665118,0.023807563,1.261258097,1.078180048,7
0.00032254,0.130043317,3.517769454,20.31174784,0.780391748,0.023547974,1.311294048,1.445258752,7
0.001885803,0.131529943,3.485693596,19.77443854,0.769547544,0.023802105,1.179801876,1.192648857,7
0.000299737,0.130587643,3.644782506,22.30875667,0.759348352,0.022965553,1.293779654,1.342948196,7
0.000520994,0.135275612,3.563185891,20.87511165,0.753246144,0.023329714,1.354487676,1.51432909,7
0.000927096,0.133469901,3.369764596,18.41127971,0.747594942,0.023375334,1.395308247,1.699179279,0
0.001036933,0.134952001,3.190132041,17.44059172,0.743333272,0.022733367,1.392829035,1.617959454,0
0.004417249,0.138032884,2.282519441,11.48613517,0.738566426,0.023803348,1.173494945,2.498626579,0
0.001215232,0.150842949,1.184669178,6.399546569,0.733848681,0.023790925,1.218565849,2.367468084,0
-0.00174474,0.142237174,1.713204748,9.960391273,0.73436203,0.023540303,1.18727564,2.323216621,0
0.003238979,0.12349727,3.578185504,19.95649717,0.739829908,0.023917764,1.162849439,2.534922915,0
0.001072619,0.126531123,3.471272352,19.09192663,0.739937646,0.023530589,1.344279625,1.659502896,0
0.000100741,0.12460759,3.676888895,20.83414143,0.73434579,0.023360992,1.342031995,1.446098427,0
0.001785612,0.125624545,3.802606619,22.11186554,0.729122598,0.023485438,1.343274561,1.456632134,0
0.00087905,0.127062133,3.655810589,21.14060493,0.723396192,0.023093218,1.414041734,1.814279736,0
0.000921276,0.130245917,3.48964502,19.18355629,0.717931747,0.0233776,1.332397787,1.956165296,0
0.001458049,0.129986689,3.747221512,22.78530104,0.711892101,0.02354352,1.317513557,1.738834862,0
0.000134713,0.128715169,3.88792938,23.84443717,0.706312289,0.023469223,1.375787491,1.542081087,0
0.000128246,0.132192759,3.658079875,21.43724587,0.701558685,0.023660931,1.404311067,1.678836636,0
0.002032176,0.136016826,3.598307233,20.98024697,0.697365189,0.023537851,1.374399135,1.553566474,0
0.001730863,0.129787523,3.642245859,20.8204205,0.693899482,0.023419709,1.332694744,1.329751577,0
0.001584575,0.128622393,3.672811019,20.6181779,0.691247995,0.023513672,1.345334101,1.353826322,0
0.002936018,0.131662184,3.369779444,17.8555401,0.688438688,0.023254291,1.336708228,1.321622548,0
0.000288535,0.123564078,3.159125423,17.65054933,0.685144697,0.023131638,1.389908552,1.597314468,0
0.001091858,0.124882255,3.459750747,19.63773409,0.682566398,0.023343595,1.411152153,1.711213994,0
0.002029136,0.132804529,3.253459547,17.39282665,0.680590984,0.023554662,1.346590711,1.40092273,0
0.00053253,0.134249401,2.992281351,15.37046614,0.679016604,0.023568099,1.334953167,1.656780819,0
0.001611989,0.126240157,3.052101617,16.23336899,0.677828925,0.02324638,1.356222698,1.767229343,0
0.004207149,0.125386458,3.277726204,18.64428264,0.676202938,0.023011308,1.351862031,1.380678496,0
0.000670944,0.133491796,3.37023636,18.12923644,0.674652645,0.023129924,1.332676896,1.329448238,0
-0.001989467,0.144017807,2.731773673,13.21329934,0.674812262,0.023257938,1.331288793,1.440312358,0
0.002178079,0.135415356,2.88629042,15.53977144,0.676559503,0.02348946,1.354488788,1.512835484,0
0.001416707,0.123594907,3.412008131,19.69630475,0.677145277,0.023783585,1.42159703,1.695923149,0
0.000640974,0.209988398,-0.34581742,5.771429875,0.680125809,0.02440974,1.385540318,1.750806061,0
0.000211454,0.225085724,-0.094241091,4.546615274,0.686169052,0.024077289,1.244615773,1.333353405,0
0.001456584,0.158876272,2.26836593,9.357058131,0.690141351,0.023141305,1.251974896,1.2625771,0
0.002099729,0.135887077,2.54017546,10.89371791,0.688396127,0.023459603,1.254675091,1.212299611,0
0.000168745,0.140208496,2.603580803,12.60362692,0.682698986,0.023409724,1.262623736,1.135359557,0
-0.00047064,0.141799538,2.553089846,12.71703148,0.68004521,0.02311042,1.227451839,0.990943433,4
0.00255164,0.129287398,2.522904588,12.92141239,0.681596102,0.0235531,1.204632677,0.950783063,4
0.001918213,0.133553021,2.550368183,12.65226594,0.681008639,0.023290498,1.259918878,1.105134874,4
0.002194898,0.138528515,2.367758299,10.47672914,0.677490289,0.022996304,1.236968785,1.012258029,4
0.003243811,0.134668397,2.367494646,10.54581654,0.674193355,0.023300629,1.270942805,1.145071135,4
0.000760816,0.132260255,2.348835184,10.73634178,0.671143941,0.023182175,1.342933015,1.361575687,4
-0.001053242,0.135083547,2.414159864,11.10576322,0.669091252,0.02284695,1.284181688,1.118870516,4
-0.00092431,0.139423671,2.376951161,10.64705598,0.666955784,0.022807983,1.235702707,0.938627569,4
0.003714222,0.138801226,2.09985926,9.133253848,0.664173181,0.022933128,1.28904648,1.160215663,4
0.002798394,0.142556588,1.971817623,9.093910138,0.66169123,0.023010569,1.354550719,1.554685696,4
-0.00136305,0.153057285,2.565187267,13.17624505,0.660728346,0.022991828,1.316335668,1.387986365,4
0.001439987,0.151840568,2.927643946,14.94404583,0.659308897,0.022981946,1.268543175,1.112855782,4
0.002579675,0.129934068,2.849729495,14.78544493,0.656402152,0.023181081,1.272129379,1.144930411,4
0.000295362,0.128016762,2.901300328,16.39671812,0.654767445,0.022938365,1.251223541,1.288305676,4
0.001291338,0.141344608,2.690089753,14.12359917,0.653715297,0.022865829,1.222816326,1.176196036,4
0.0015963,0.13632476,2.679274461,13.93955578,0.652034869,0.023520921,1.238740142,0.986041566,4
0.000133654,0.136517233,2.817116263,15.40664606,0.650316511,0.023670785,1.178087509,1.191457685,4
0.001201231,0.139562076,2.73277189,14.53186236,0.648534502,0.023330405,1.20009164,1.283442864,4
0.001388038,0.138774391,2.554595597,12.46417515,0.646438054,0.023347915,1.285570734,1.170439252,4
0.001195731,0.133504286,2.502234931,12.2017832,0.643808855,0.023205926,1.274880223,1.097195724,4
0.001376724,0.133252373,2.57679903,12.58301663,0.641295351,0.023087955,1.266424894,1.021377339,4
0.001403,0.133725747,2.55431474,12.53833941,0.638693237,0.023124192,1.273102508,1.102344671,4
0.001200688,0.128998674,2.518407604,12.34026544,0.635549436,0.023039349,1.318249764,1.485176611,4
0.001055093,0.130508614,2.49497514,11.43600152,0.632707105,0.023017756,1.328194032,1.486686648,4
0.002006869,0.131046974,2.562767151,12.09141192,0.629715075,0.022865628,1.28965077,1.228203844,4
0.004494415,0.134299778,2.760935466,13.54299125,0.627031435,0.022928342,1.281318083,1.189950641,4
0.001744426,0.1371328,2.65810902,12.64615328,0.624564525,0.02300975,1.259892098,1.044215158,4
-0.00187825,0.130327811,2.59732004,12.58830485,0.621278763,0.022968283,1.234263908,0.969016235,4
0.000155744,0.130412895,2.854132769,14.51725485,0.618154362,0.023157169,1.262753782,1.137571344,4
0.000999651,0.135463412,2.791177569,13.41986633,0.615908541,0.022864023,1.251776388,1.105387248,4
0.002694207,0.130939759,2.60519352,11.97181836,0.613626589,0.022881498,1.241432967,1.003146849,4
0.001766706,0.125788024,2.621433084,12.68975859,0.609109661,0.023263648,1.250080171,1.20622206,4
0.001527649,0.131345086,2.834231248,14.23567396,0.603170558,0.023353003,1.232367682,1.227348631,4
0.000908785,0.129497756,2.722085079,13.62809035,0.596893964,0.023547409,1.235281006,1.192201963,4
0.001226637,0.128928625,2.839972095,14.69188756,0.589767674,0.023640945,1.23447587,1.205401775,4
0.001275186,0.131921369,2.887464312,14.59690525,0.581750652,0.023670874,1.18690878,1.030740138,4
-0.000202371,0.131991829,2.671812298,12.7795917,0.571845027,0.023968345,1.151637665,1.181358015,4
0.001103302,0.130829307,2.72803628,13.13154114,0.559800175,0.024310757,1.141394345,1.156721364,4
0.000543771,0.129260697,2.755717875,13.19696016,0.548942021,0.024119476,1.254857177,1.401654284,4
0.002714408,0.132618735,2.778142082,12.9975512,0.539439501,0.024333464,1.220935298,1.291496096,4
0.001473482,0.128445053,2.67020211,12.94023593,0.528562546,0.024323704,1.234424288,1.469539079,4
-0.000278955,0.129360779,2.550173919,12.01311585,0.518674033,0.023550923,1.214204699,1.227278434,4
0.002059668,0.131196007,2.718591975,12.52946742,0.512527956,0.023139886,1.251174578,1.161062325,4
0.000789106,0.129447825,2.907988808,14.39038322,0.509499359,0.02327726,1.307054565,1.421056355,4
0.002155066,0.128440953,2.896191509,14.49505646,0.507394518,0.02359339,1.37145578,1.769947688,4
0.001753294,0.128209267,2.8445146,13.93449672,0.505339595,0.023484338,1.388325256,1.907590615,4
0.000297579,0.127362257,2.960854778,15.13473347,0.502922004,0.02344012,1.324408232,1.657681919,4
0.001427896,0.125900222,2.871917619,14.07242912,0.500133133,0.023529624,1.272258576,1.351444637,4
0.001421402,0.12611668,2.978474847,14.99298673,0.497790473,0.023599647,1.292517491,1.387006467,4
0.000428408,0.131168739,2.972020963,14.56852251,0.495606286,0.023368181,1.390442256,1.853174701,4
-0.000186434,0.127980805,2.781386152,13.11083872,0.493660954,0.023124222,1.377840895,1.789166052,4
0.002128823,0.124280435,2.884049328,13.99309471,0.491924068,0.023205608,1.282868543,1.349909493,4
0.001742615,0.128813355,3.029311921,15.03019339,0.490247181,0.023021582,1.312125839,1.512206456,4
0.001473724,0.124830579,3.11321135,16.32091292,0.489335959,0.023106896,1.315448409,1.437741579,4
0.001561314,0.121512005,3.128324159,16.38898785,0.488666643,0.023609627,1.373582331,1.626714323,4
0.002284162,0.128484586,3.158369433,16.09371593,0.487744304,0.023716717,1.383877255,1.747785965,4
0.000984081,0.129247695,3.003465036,14.84002396,0.487015533,0.023790294,1.306939781,1.470810924,4
0.000595256,0.124955541,3.109070608,16.4258927,0.485119029,0.023591478,1.336407566,1.553912627,4
0.001477589,0.126218866,3.325349548,18.49950021,0.483110428,0.023351351,1.402702103,1.922742644,4
0.000348836,0.128358749,3.385531211,18.8152747,0.482604381,0.023148947,1.435095411,2.131693248,4
0.001016942,0.129354712,3.027476272,15.62906654,0.482163783,0.023081553,1.423155797,2.073353296,4
0.0014784,0.126362462,2.837259385,13.88961298,0.480554363,0.023152953,1.328490458,1.607310083,4
0.001459717,0.127293717,3.08061337,15.71701213,0.479377529,0.023404951,1.289982576,1.374812043,4
0.000878782,0.126863671,3.012365407,15.08411438,0.478283528,0.023591977,1.320644465,1.507222,4
0.000973094,0.125053469,2.93135897,14.15183767,0.476570184,0.023101873,1.324574132,1.508089998,4
0.001380216,0.125802352,3.020209684,15.41784603,0.475346647,0.022820043,1.300689838,1.440042814,4
0.001987067,0.127418025,3.189956798,16.54121272,0.474284581,0.02301411,1.359440561,1.660794373,4
0.00064457,0.126984443,3.045220173,15.53404172,0.473454448,0.022996509,1.32801164,1.532250406,4
0.001278639,0.122526581,2.797557543,14.1579684,0.47310573,0.023465103,1.124578175,2.233407921,4
0.001630678,0.125148846,2.993909679,15.60758182,0.472224699,0.023571293,1.185438896,2.386016994,4
0.000663234,0.130353528,3.094537323,16.66594725,0.471257074,0.023039469,1.364676558,1.648233218,4
0.000850728,0.132578185,2.832425659,14.20619959,0.471650641,0.023291889,1.331355344,1.459964364,4
0.001295779,0.128386325,2.753348778,13.735699,0.471811622,0.023276691,1.283162464,1.297077433,4
0.002214236,0.126196686,2.591125583,12.91420191,0.470743888,0.022946874,1.248272099,1.251783406,4
0.000164658,0.12788928,2.769936186,14.38208121,0.46938155,0.023031628,1.240874902,2.115701872,4
9.03E-05,0.12644558,3.255912207,18.4630551,0.469442531,0.022909969,1.262045637,2.197203438,0
0.001583967,0.132608039,3.114572187,16.99214518,0.470308031,0.022778362,1.343829385,1.536384885,0
0.004101844,0.134461884,3.157508425,16.85412369,0.472504153,0.022929795,1.327357724,1.686423548,0
0.006097085,0.143064861,2.063082416,9.121660709,0.476108551,0.022769428,1.219740241,1.431431822,0
-0.000905293,0.214738911,0.473002519,3.618585933,0.491765594,0.028407062,0.96850148,1.1408859,0
-0.003854684,0.224053898,0.822361116,4.62197393,0.535169111,0.04151788,0.459904879,-0.461762614,0
0.001025476,0.150309048,2.530424255,13.38530771,0.542190497,0.036068485,0.693152338,-0.054012002,0
0.002544715,0.108676038,3.037969702,15.53249118,0.513337926,0.024900949,1.261865352,1.810297498,0
0.002839972,0.108917044,3.419514454,18.56612463,0.503039605,0.02429827,1.254105824,1.477502685,0
0.001204978,0.113040516,3.277309869,17.60466085,0.496085467,0.023981807,1.295941471,1.543113484,0
-0.00044921,0.116979994,3.446427965,19.63547968,0.49146298,0.023810689,1.310907569,1.528926314,0
0.001077857,0.117036403,3.647620687,21.3335235,0.48932239,0.023642027,1.258546249,1.255767369,0
0.001416484,0.115026043,3.700821474,22.53951865,0.488601467,0.023055371,1.207683481,1.233140277,0
0.000836387,0.120676621,3.757341163,22.72355095,0.488372094,0.023363649,1.234057904,1.303645924,0
0.001991841,0.126910884,3.410546412,19.22421225,0.486239788,0.023920385,1.286962479,1.445336958,0
0.001353418,0.122046119,3.303837059,18.61090929,0.483287539,0.023441109,1.294272461,1.521321894,0
0.000482156,0.112741849,3.53150116,20.72833387,0.481506184,0.023297447,1.328623716,1.76534858,0
0.001004196,0.117385255,3.317771329,18.27562493,0.480326462,0.023622362,1.356907903,2.335909456,0
0.001762436,0.132789694,1.914307633,10.2592582,0.481954248,0.023743088,1.273746322,1.81783969,0
0.001197569,0.140259275,1.753387371,8.556492306,0.464179502,0.034469303,0.163635198,-0.079069501,0
0.00228137,0.128008407,2.711433489,13.04774438,0.439518629,0.027139809,0.966177719,0.997396927,0
0.006060438,0.233720621,-0.374700615,13.27652732,0.436101913,0.019916576,0.775918807,-0.007123505,0
0.003658016,0.407563073,-0.343283684,3.618568504,0.419412722,0.027194434,0.284704137,-0.342402617,0
-0.002164555,0.405655748,-0.205186482,2.679397726,0.40038414,0.020171383,0.79336799,0.282950816,0
-0.000249514,0.29620944,-0.014865054,0.789201604,0.406258719,0.020489006,0.624548106,-0.127599197,0
0.00658941,0.352872416,-0.034837398,1.10478672,0.416345542,0.019858458,0.713997436,-0.009038716,0
0.006884968,0.589519971,-0.115301796,0.159329632,0.423927634,0.019917166,0.712242747,0.495954731,0
0.0041483,0.756787585,0.003454769,-0.651375775,0.426175417,0.019195691,0.899397244,1.220241024,0
-0.009714379,0.719197726,0.03887546,-0.366890684,0.422028623,0.018997682,0.890239369,1.096458153,0
-0.005297379,0.536128323,-0.042444546,0.710747972,0.418879482,0.018905337,0.791050901,0.255635649,0
0.00884247,0.386429527,0.05238909,2.032259381,0.414925112,0.019632161,0.733130323,-0.010169576,0
0.004781106,0.305103794,-0.353326575,5.467770088,0.409330314,0.019999736,0.693510778,-0.083825446,0
-0.00016112,0.171546504,0.726865752,6.06026027,0.399205453,0.02131152,0.58803419,-0.353533174,0
0.001321348,0.295158649,-1.087353375,10.01438688,0.388645608,0.019986472,0.733843023,-0.228277889,0
0.0083086,0.311777417,-1.004738931,7.639935137,0.38720011,0.019561102,0.751083626,-0.166550439,0
0.001294778,0.172565945,0.939369519,3.67173943,0.384788132,0.019816583,0.753009401,-0.2533428,0
-0.00473102,0.144139239,2.209839359,11.62542808,0.379324668,0.019104384,0.831653125,-0.224987279,0
0.000349816,0.141721107,1.967551263,11.21450797,0.378655515,0.019175837,0.845891008,-0.142668066,0
0.002802632,0.143751347,1.214837742,6.445755075,0.379719816,0.019579006,0.853716746,-0.15405297,0
0.000117312,0.133807751,2.884814607,15.51614181,0.380011259,0.019538715,0.81688033,-0.089839042,0
