mean_ecg,std_ecg,skew_ecg,kurt_ecg,mean_eda,std_eda,skew_eda,kurt_eda,Label
0.001046389,0.307888783,3.294062678,12.9908415,8.549771772,0.257983428,-0.912105183,-0.470894055,0
-0.002179727,0.302840829,3.318062707,13.40270806,8.911839076,0.223531462,0.529546261,-0.485035295,0
-0.000695016,0.292540337,3.360410558,14.13744914,9.479606955,0.399774498,-0.048591113,-1.746930416,0
0.003862113,0.27805006,3.674778991,16.26440263,9.922910799,0.106484343,-1.985627176,3.578156005,0
0.005448427,0.278908107,3.584052752,15.6927534,10.01391187,0.028715987,-0.197627136,-1.068997955,0
0.000141174,0.273072909,3.508825303,15.67950959,10.00985462,0.038022214,-0.59709061,-1.064310784,0
-0.002340964,0.291027157,3.270845157,13.5048442,10.25009128,0.35358873,0.845587394,-0.967095593,0
0.003087322,0.31433494,3.14203048,11.68618583,10.72526872,0.307518034,-1.226945635,-0.036308679,0
0.003839192,0.305975991,3.235255403,12.41215786,10.95569567,0.035154677,-0.813124421,-0.576767238,0
0.001006622,0.296734028,3.273706505,13.11468712,10.9702567,0.019614789,-0.446675275,-0.115615896,0
-0.001789326,0.302176204,3.09940404,12.0325914,11.05006807,0.165099412,1.705094144,1.353777176,0
-0.006934302,0.305463817,3.057520313,11.74902082,11.49350134,0.428196339,0.332575879,-1.10167195,0
-0.009779323,0.300891649,3.212866797,12.7552855,12.27989856,0.492037371,-0.256627583,-1.292200943,0
0.004667365,0.308430201,3.137409682,11.84418332,13.20322162,0.513655385,-0.085795441,-1.717840912,0
0.007947229,0.306822106,3.131729315,11.83540246,13.84347921,0.212746776,-0.103016218,0.025208612,0
-0.002917452,0.308789181,3.080110444,11.57487111,14.20573812,0.381159157,1.282642713,0.751658634,0
0.000684971,0.31951916,2.993894987,10.68884206,14.94429981,0.683811392,0.185958577,-1.160544868,0
0.000161224,0.313715425,2.950647035,10.64802601,15.41800624,0.35724031,0.455743274,-1.077338633,0
0.002167916,0.318009058,2.834526416,9.885534553,15.38308356,0.179064888,0.448706109,-0.885938472,0
0.00606546,0.323642516,2.873337674,9.894561395,15.63655445,0.324662834,0.519036955,-0.817480683,0
0.00203799,0.318775526,2.83264434,9.733370602,15.72476828,0.419368288,-0.946933374,0.394680883,0
-0.001871698,0.322185123,2.907141311,9.985857262,14.34771925,1.35337184,-0.117080242,-1.539853909,0
0.000761026,0.319277109,2.980822849,10.46012064,12.63342896,0.680702242,1.045892107,0.210693145,0
-0.002032732,0.313639266,2.946818998,10.53519218,11.45975816,0.748712909,-0.150589012,-1.609277549,0
-0.003697776,0.322426435,2.952090189,10.26688176,10.48723875,0.444387119,0.308007331,-0.328430092,0
0.00294877,0.319082836,2.864095371,9.74872975,10.12555052,0.250739077,1.092311854,0.100726904,0
-0.001111771,0.3117218,2.8821544,10.13762756,10.03790185,0.088649722,-0.724416257,-0.191928612,0
-0.000191594,0.310892111,3.076435641,11.34981741,9.870661599,0.200432181,-0.187387954,-1.149598868,0
0.001812234,0.31790043,3.122310488,11.30177602,9.585988726,0.20100868,-0.397709995,-0.422199847,0
-0.000869738,0.320981084,3.068537687,10.970719,9.221257183,0.278869914,0.261258229,-1.311194397,0
-0.001644516,0.307595555,3.078114028,11.74923328,8.880403192,0.162398123,-0.388327998,-0.39898682,0
0.002421805,0.3115509,2.852900933,10.399962,8.723152161,0.162529512,-0.013308085,-1.571833346,0
0.003203482,0.31912703,2.901400828,10.24338152,8.4270304,0.293546987,0.094779351,-1.064361145,0
0.001126916,0.309638683,3.037132327,11.32314141,8.036730903,0.204029219,0.59650419,-0.353518496,0
-0.001028078,0.307239218,2.798827203,10.3733087,7.845889228,0.120318403,0.211254432,-1.1758869,0
0.001544593,0.316781199,2.743935464,9.632490043,7.689920589,0.159443295,0.214018464,-0.677749313,0
0.002860631,0.314330126,2.768971138,9.826463404,7.511508233,0.105744718,0.781142117,-0.298331109,0
-0.001370969,0.316824955,2.726749453,9.535733273,7.442286083,0.080010726,0.335238173,-0.755894413,0
-0.002665074,0.314849602,2.815395052,10.00047237,7.436483656,0.081888989,0.426341626,-0.694149751,0
0.000365099,0.31374961,2.860694077,10.39056534,7.353924125,0.102737733,-0.149925761,-1.216570767,0
-0.00070939,0.314542184,2.993295024,10.82629036,7.315261187,0.090453522,0.586607672,-0.577735253,0
-0.001805028,0.304728957,3.226714439,12.32083673,7.287112154,0.103245683,0.640413876,-0.438122963,0
-0.001849823,0.300569181,3.180424453,12.49390299,7.187830353,0.058690384,0.646217389,-0.352494388,0
0.002436683,0.297971332,3.097990814,12.11291255,7.170919037,0.047419347,-0.60405798,0.097752526,0
-0.003015198,0.307762777,2.952624691,10.93879922,7.200590788,0.114654551,0.59020518,0.107156409,0
0.002749211,0.325949612,2.796713867,9.424034288,7.207446344,0.14972086,0.010282654,-1.225536538,0
0.007601009,0.333903139,2.625088484,8.213888607,7.266014753,0.149878529,-0.597712594,-0.826673017,0
-0.005094962,0.332812747,2.563499205,8.152998757,7.215382276,0.150790219,0.363262695,-1.412324899,0
-0.002689682,0.328188021,2.536420636,8.355361812,7.138740104,0.095428773,0.820551469,-0.448578794,0
0.003419442,0.326356581,2.572541402,8.419882574,7.111688559,0.108885489,0.886653328,-0.44181893,0
0.012993413,0.331171187,2.59599226,8.359157737,7.046524429,0.077039679,0.425830972,-0.681826499,0
-0.004348591,0.327282384,2.518529459,8.405041622,7.053654807,0.108826401,0.277831892,-1.379133076,0
-0.011750578,0.320492141,2.807818489,9.990607019,7.047274235,0.105968144,0.220336081,-1.142204556,0
0.005622129,0.325392253,3.027300476,10.55012461,6.956040628,0.10849875,0.695470084,-0.833045968,0
-0.001235498,0.313273421,3.1483542,11.82182488,6.845532336,0.048430448,0.177016181,-0.472901723,0
-0.003205987,0.308494238,3.001972538,11.35316609,6.817660904,0.049956203,0.884397066,-0.535865743,0
0.003296271,0.309212821,2.884460339,10.72423697,6.783907863,0.065843155,0.58760309,-0.382557471,0
-0.000981818,0.323542712,2.446359054,8.505320181,6.851908657,0.1448758,0.737028854,-0.615979774,0
0.000963743,0.333503994,2.47073189,8.15535833,6.82531395,0.175398276,0.285863907,-0.867343415,0
0.003352864,0.316099086,3.045543791,11.11977883,6.654782213,0.122033905,0.453934385,-0.990775826,0
-0.003404075,0.310369286,3.07889521,11.67024439,6.596796308,0.106723772,1.172048397,-0.115562117,0
-0.00578217,0.31417081,3.00957274,11.19167116,6.581132562,0.077947535,0.71561522,-0.525391713,0
0.007181697,0.320078816,2.892145625,10.154741,6.643671363,0.094049649,0.054668372,-0.31783022,0
0.005601236,0.320311251,3.030745605,10.68609399,6.760769381,0.089751802,0.201788123,-1.099023958,0
-0.005492942,0.3072778,3.268200809,12.6159578,6.751688276,0.117897397,-0.300141103,-1.238245751,0
0.003818769,0.303243893,3.141216096,12.15638864,6.810784313,0.150820008,-0.579636654,-1.265740699,0
-0.00415686,0.296913116,2.950920808,11.54358317,7.045424598,0.12901069,0.326767806,-1.384047815,0
-0.004947045,0.310655074,2.734816752,10.05771075,7.15443415,0.064509354,-0.732752747,0.269224563,0
0.008899469,0.336467788,2.689085309,8.846590174,7.110052327,0.055555668,-0.084052016,-1.344152581,0
-0.004368851,0.318169223,2.93289932,10.57378532,7.141739709,0.081546286,0.065231824,-1.376506643,0
-0.003852147,0.318151173,3.009275913,10.81052679,7.216578783,0.080602482,0.36620306,1.11177602,1
0.003826728,0.296576146,3.342389001,13.28716729,7.363009698,0.163534074,-0.518261757,-1.259473089,1
0.003298233,0.266321383,3.706870216,16.9212767,7.5655753,0.06775455,0.529390634,-1.068156404,1
0.002399309,0.272238186,3.468835793,15.41161501,7.686321912,0.072576443,-0.400786176,-1.096778594,1
-0.002254061,0.279384635,3.274536237,13.85630443,7.769221333,0.032405836,0.469188276,-0.042761569,1
0.003185263,0.283448607,3.260869685,13.15492495,7.876763099,0.099524149,0.392590033,-1.311192489,1
0.002481707,0.270562564,3.32072299,14.10830213,8.054682377,0.106661444,-0.167256309,-1.072310513,1
-0.001462915,0.258571163,3.419999195,15.42730845,8.223916353,0.091936908,-0.08061576,-1.205529547,1
0.005651459,0.26837642,3.37647002,14.57395396,8.372531346,0.081451052,-0.162767411,-1.151774272,1
0.004014417,0.282915334,3.239544672,13.07297146,8.499103328,0.066258792,-0.169178274,-1.113606129,1
-0.001589473,0.273804971,3.290574672,13.91310529,8.600558799,0.05195301,-0.356597671,-1.087478586,1
0.002348949,0.270725975,3.349217009,14.39776294,8.684338161,0.044190758,0.009948359,-1.132824787,1
-0.001111444,0.274330916,3.320811163,14.1620931,8.749433408,0.031912311,-0.470039698,-0.29634961,1
0.001885973,0.277097752,3.243850859,13.59995081,8.777927235,0.013815874,0.647382766,5.741598161,1
0.001122155,0.287930029,3.225070201,12.99254464,8.796902084,0.026059348,0.394960884,1.813883511,1
-0.004476236,0.288681942,3.301438571,13.45023806,8.819155502,0.01957814,-0.901529402,8.531384833,1
0.00368711,0.282309163,3.439159769,14.46617342,8.807987213,0.021448468,-0.359041883,-0.072147454,1
0.001411756,0.269793239,3.552910272,15.87465944,8.770022093,0.025872077,0.129803781,-0.964917135,1
0.001228716,0.285890515,3.300827097,13.50503913,8.737542398,0.01628299,0.734617555,1.425223239,1
0.002739317,0.284740914,3.31745843,13.66608994,8.728184073,0.012179782,0.012899168,3.912173072,1
-0.002986136,0.262231758,3.521984001,16.32447922,8.683109065,0.049926287,-0.092669499,-1.592862417,1
0.001208784,0.289814045,3.245035388,13.18899255,8.608690207,0.032838691,0.129693203,-0.785683199,1
0.003945472,0.287290892,3.28425144,13.45848583,8.553352247,0.034197748,-0.272294039,-0.825419665,1
-0.001450803,0.265167077,3.396416914,15.32486965,8.504550498,0.032257599,-0.323405597,-0.303192288,1
-0.002430333,0.28078941,3.266827669,13.75005252,8.43272607,0.059340253,-0.212320037,-1.150518062,1
0.005685301,0.290820016,3.219892314,13.01259392,8.331258719,0.059471476,0.108073924,-1.13435208,1
0.001421853,0.27703139,3.358754638,14.51852842,8.237226159,0.049484118,0.227255553,-1.30996619,1
-0.00344528,0.263665533,3.478189634,16.03640767,8.169633974,0.029534428,0.145592916,-0.645424094,1
0.003594792,0.280943219,3.235468802,13.61261807,8.112656675,0.037639019,-0.141246731,-1.283841969,1
0.000938298,0.282726162,3.226353392,13.42657764,8.047227478,0.038791573,0.035993745,-0.945817708,1
0.00040637,0.283027957,3.227833867,13.42797425,7.987172699,0.034194261,0.086003699,-0.824923272,1
0.003239692,0.291346311,3.222655034,12.96501708,7.934369387,0.031836713,0.01738908,-0.981537281,1
0.001218554,0.278715637,3.308695956,14.0930085,7.884551021,0.029801194,0.283833973,-0.976548626,1
-0.001574812,0.268523918,3.34396296,14.91145303,7.841349738,0.024282793,-0.036519134,0.086794028,1
0.002413154,0.275650278,3.400500972,14.78189828,7.803511102,0.023821032,0.231895026,-0.809850579,1
0.003413779,0.280641301,3.227214148,13.55467884,7.767762811,0.020659282,0.034177257,-0.85285463,1
-0.002566014,0.270213759,3.330862832,14.73338348,7.728567723,0.028486872,-0.427488348,-0.421353458,1
-0.001070624,0.282645332,3.262013607,13.63862003,7.684185737,0.027843569,0.409877836,-0.702661225,1
0.001572915,0.284689581,3.158052208,12.98201126,7.656764875,0.013250853,-0.66678069,23.74445821,1
0.001957894,0.284169399,3.175026,13.09664368,7.643132019,0.016397572,-0.624212646,7.834881583,1
0.004889897,0.300666154,2.94005773,11.0901856,7.617964063,0.021961324,0.505073481,-0.485818744,1
-0.000937467,0.290648332,2.985100545,11.76487306,7.587797928,0.019364558,-0.543348875,0.113258906,1
-0.002826475,0.274707806,3.186392041,13.71585786,7.545485142,0.03378889,0.051705032,-1.136664026,1
0.008852097,0.285764749,3.084495502,12.52743352,7.494870595,0.02682912,-0.029350665,-0.134888062,1
0.001592867,0.289878899,3.008622399,12.032398,7.450306865,0.028313059,0.000796779,-0.620498925,1
-0.001374115,0.292710012,2.960651146,11.66634825,7.421375874,0.020372146,0.179977159,-0.79684999,1
0.003249795,0.290316036,2.986682228,11.80763215,7.396624701,0.025994049,0.841363324,0.013469087,1
-0.003688274,0.275665352,3.170967357,13.57214196,7.359112712,0.022126954,-0.126812266,-0.872464061,1
0.001315567,0.290610863,3.031988066,12.08322789,7.321984482,0.024371714,-0.254628953,-0.509585143,1
0.005808772,0.304010368,2.910394108,10.83889027,7.285474232,0.022756591,0.526501251,-0.719615633,1
-0.002372576,0.291062977,3.03390859,12.06419556,7.258541652,0.013836839,0.114375784,1.06091932,1
0.002401265,0.289782388,3.023684178,12.0868375,7.235902568,0.017189471,0.328423573,-0.446164831,1
0.000897727,0.298547605,3.025124699,11.58196299,7.214040375,0.016357745,-0.277624799,0.542264959,1
-0.002638,0.291619353,3.226456647,12.98186303,7.186429541,0.02418766,0.198401246,3.244826263,1
0.00043878,0.280655204,3.280317752,13.88310371,7.154898289,0.017040564,-0.727028463,10.5630379,1
0.005688734,0.283155803,3.133152304,12.87889688,7.133057077,0.014493142,0.614360749,0.623708751,1
0.001304025,0.280864529,3.216836599,13.48569818,7.119349234,0.009556715,0.913826185,6.299239989,1
-0.000877003,0.279863755,3.283563045,13.95030532,7.108506938,0.010809688,0.537011838,2.670541362,1
0.001775325,0.280938907,3.202323955,13.39977627,7.100701305,0.008749695,1.175625103,8.002709209,1
-0.001975577,0.297694899,3.030175964,11.73555838,7.099261093,0.012395086,0.579813095,2.396431516,1
0.002937927,0.31124262,2.954520318,10.83287721,7.091878728,0.014529454,0.387207159,8.353977271,1
0.00111678,0.302785213,2.987688234,11.30197722,7.076968711,0.013021295,-0.492017906,9.685666725,1
-0.001912367,0.300513654,3.050223366,11.67570473,7.05839435,0.014383276,0.321346159,-0.263518402,1
0.002073924,0.306286665,3.089524278,11.66664548,7.042337527,0.010714815,0.208268879,1.82586792,1
-0.000206092,0.298837488,3.069580887,11.92914621,7.028085872,0.013471291,0.355443236,1.425894938,1
-0.005756686,0.296057582,2.928503864,11.36482295,7.009446389,0.013995142,0.576311762,2.790175754,1
0.004366091,0.316241593,2.798182916,9.778579849,7.007953862,0.01344707,0.786854786,3.01391592,1
0.007935327,0.29827908,2.985533733,11.38226866,7.011503002,0.011095212,0.950405465,3.944142642,1
-0.001264585,0.271627923,3.249616335,14.32968458,7.005872781,0.008724413,0.891982441,7.50454445,1
-0.003740413,0.268306212,3.37859835,15.23155461,6.99738072,0.011790818,0.357802241,2.837338776,1
0.001199851,0.267587732,3.370608416,15.147462,6.992862592,0.009281121,0.982602351,9.928937077,1
0.001720825,0.269289547,3.307786914,14.67006725,6.987120819,0.014303558,-0.193255505,0.859562448,1
0.001869193,0.270994194,3.322937856,14.61437849,6.973845945,0.012565384,0.234162996,8.770714556,1
-0.000124146,0.287092639,3.148086959,12.82952684,6.970994677,0.009051798,-0.520402812,32.01810163,1
-0.00060515,0.28684768,3.131478407,12.7093953,6.962117658,0.013785556,0.154567128,0.847293798,1
0.001346093,0.271253155,3.304207609,14.49050346,6.944264821,0.012467916,0.478696466,3.966975058,1
0.001830159,0.285250471,3.144146371,12.93188314,6.934779576,0.010304107,1.223756079,11.19171021,1
0.001332936,0.282987998,3.181495984,13.22032596,6.927194922,0.010423965,0.782011102,8.467599761,1
0.000829847,0.267158536,3.381126039,15.25652251,6.915370015,0.010604509,0.189121235,5.010916684,1
0.005651197,0.278420734,3.321439333,14.19477554,6.902884783,0.01069432,0.714894242,3.775488379,1
-0.000456031,0.284230782,3.201574757,13.247409,6.887195042,0.014898301,-0.525925687,3.264371804,1
-0.00080913,0.288432209,3.113586447,12.57454985,6.863727406,0.019180343,-0.012127405,0.426801094,1
0.00694332,0.292233477,3.232955946,12.94430851,6.841756221,0.013386552,0.578239247,2.246493229,1
-0.000994452,0.283155247,3.269865323,13.6938461,6.827450453,0.010261185,0.616699004,4.028190264,1
-0.003852186,0.275084021,3.219020496,13.92321083,6.816870826,0.009256082,0.866677017,7.715952624,1
0.004886261,0.28417835,3.193862028,13.21221697,6.807489722,0.009883071,0.457301952,4.466609647,1
0.000265523,0.290453709,3.051575561,12.21282588,6.798060826,0.00972841,0.809362984,5.654886155,1
-0.001291842,0.292942347,3.01271571,11.97945149,6.787888282,0.010973435,0.657106863,4.318708162,1
0.006085445,0.310315338,2.82397662,10.2405994,6.785478047,0.010610257,-1.346899396,46.50427519,1
-2.77E-05,0.30372898,2.751713882,10.15775164,6.780676542,0.013262113,-0.691841853,18.22068838,1
-0.003862322,0.284406986,2.944999484,12.0556809,6.762756184,0.013686418,0.608380823,2.427719814,1
0.003202168,0.291231287,3.039385253,12.19010835,6.753336661,0.008290253,0.759931737,13.86626412,1
0.007712357,0.293392702,2.954378469,11.61277767,6.749805832,0.009677993,0.715857541,10.29159318,1
-0.003784071,0.286613808,2.929542722,11.87946389,6.739245878,0.010949307,0.816750652,4.489516722,1
-0.001903538,0.293677359,2.983844178,11.89753826,6.730048152,0.008612176,0.462930039,6.799721511,1
0.008380195,0.294542436,2.914497067,11.35804965,6.721942084,0.010844981,0.380809568,4.469745456,1
-0.003290922,0.288221895,2.905114555,11.59686711,6.709615162,0.011478018,1.015597146,8.205117369,1
-0.001187472,0.297302169,2.934922053,11.36221005,6.707175119,0.010700071,-3.744292467,159.5164468,1
0.00071041,0.299025772,2.884711879,11.03468762,6.70884334,0.010275565,-4.698073466,185.6941078,1
0.000532235,0.29755672,2.935172359,11.38707778,6.697394725,0.013388895,0.09669515,2.479064756,1
0.001102347,0.294706823,3.002192289,11.79148949,6.680583572,0.012845726,0.638415305,2.661453268,1
0.000711934,0.292686065,3.036124142,12.07667771,6.67395134,0.009119591,1.332543716,10.05627916,1
0.00042523,0.295241751,2.984301473,11.67229746,6.678890174,0.010232107,0.636285392,5.688874001,1
0.000171773,0.293264706,3.029689896,11.9422561,6.683651025,0.009226738,0.5183233,9.712977338,1
0.002827443,0.290895571,3.056799694,12.20821457,6.680991908,0.009416314,0.245023867,15.35476906,1
-0.001748906,0.282061577,3.049186213,12.64956242,6.673227147,0.010137052,0.809644093,16.24599871,1
-0.001193168,0.291639595,3.066848986,12.24997838,6.667778288,0.010162901,0.998222908,11.61783835,1
0.002470766,0.29803466,3.105930151,12.1184531,6.65848356,0.012590719,0.553304972,2.091276498,1
0.003521576,0.286382146,3.165553632,12.98212505,6.646025085,0.010105488,0.689767924,4.055297536,1
0.001208738,0.284955774,3.195964715,13.17367337,6.640523366,0.008916155,0.83202501,7.615762145,1
-0.00082213,0.284638182,3.197919261,13.23944352,6.636376844,0.009310652,1.067579355,8.828308724,1
0.000681656,0.282005142,3.177898985,13.37158088,6.628230667,0.009747649,0.692566015,6.091586619,1
0.007033506,0.297401503,3.042262919,11.78637786,6.634073911,0.019260082,1.079824434,0.496357724,1
-0.001255325,0.293083619,3.041242554,11.91537007,6.651569312,0.017977706,-0.625058099,4.014390632,1
-0.001122051,0.299068047,3.012243968,11.5494587,6.655092621,0.011669609,-0.564052783,30.50789422,1
0.003293806,0.3113472,3.01768628,11.0582515,6.648884801,0.012776604,0.690827456,4.04697036,1
-0.002454097,0.28788536,3.345384802,13.91390922,6.639485168,0.014421372,-1.188910135,38.07261594,1
0.002364192,0.290349854,3.331129452,13.62807115,6.622983932,0.015081974,-0.796576889,25.89059703,1
0.000632309,0.28485101,3.387812877,14.19852142,6.606525476,0.011048235,0.613304011,1.553950169,1
-0.003558243,0.27428781,3.517107285,15.6030005,6.592270769,0.012516576,0.14519654,1.151073344,1
0.001070389,0.287702978,3.38431151,14.09181018,6.575775146,0.012980269,0.674196927,1.777554499,1
0.000903822,0.2894527,3.313828852,13.60474026,6.568105207,0.008053321,0.762742666,11.10589126,1
0.000798608,0.275380301,3.428160834,14.95293372,6.564961079,0.009243047,0.42122055,5.515041322,1
0.001772245,0.288362696,3.277730067,13.45708979,6.554880687,0.010730128,0.265227048,3.875570479,1
0.006423516,0.290509793,3.206334748,12.94786152,6.544743511,0.00974126,0.929160984,6.54594675,1
0.001413332,0.26658626,3.384736613,15.33012212,6.54032293,0.008270509,1.982089463,15.84959116,1
-0.000443449,0.274772512,3.4519692,15.22371578,6.539123372,0.008160482,1.473784347,15.64223352,1
0.003431828,0.275653385,3.406159654,14.84396267,6.53457331,0.008904652,0.604795324,7.475051875,1
-0.003198565,0.265436201,3.464685427,15.83297667,6.529328156,0.008357173,0.971475145,8.704235246,1
0.000673874,0.272639801,3.543130945,15.78163984,6.526761954,0.008374637,1.418577617,12.43042734,1
0.000843907,0.276417741,3.424105474,14.89053422,6.525984682,0.008388766,1.673170583,14.00507199,1
-0.000341374,0.281241966,3.287445462,13.90240677,6.524387087,0.008814674,-0.407626178,50.22761618,1
0.006286194,0.29183259,3.217177553,12.94693017,6.519877788,0.009363928,-0.120746656,39.97270965,1
0.000122903,0.27886979,3.364374408,14.43022111,6.517936598,0.008463981,1.801718242,19.51582062,1
-0.005593166,0.281653438,3.290684337,13.94040058,6.521055494,0.008552498,1.553484626,12.65373076,1
0.002423303,0.306121359,2.936753236,10.938551,6.540201678,0.019851397,0.391470383,-0.392586374,1
0.00581745,0.296730145,3.047514677,11.82530801,6.552778516,0.011391466,1.029345473,4.755733535,1
-0.001399207,0.274301058,3.320387068,14.43368129,6.549993951,0.009426122,-5.963263562,239.0152983,1
0.000559132,0.279957972,3.285674421,14.02587698,6.55442603,0.009454074,-5.941327674,251.2761927,1
0.000447673,0.282328402,3.239497811,13.60700924,6.559854071,0.008534099,1.404920485,10.95594551,1
-4.49E-05,0.277603605,3.233673109,13.89584011,6.566596222,0.00949557,0.821980735,5.327500747,1
0.004155049,0.27885843,3.286975187,14.12349902,6.57381085,0.00894598,0.848585332,6.95333832,1
0.00136137,0.277514603,3.179113553,13.60465189,6.576482664,0.008390398,1.034634513,11.31401318,1
0.001651075,0.282854173,3.216546026,13.51149865,6.570639365,0.011056002,-1.079916125,34.51868809,1
-0.001033781,0.285455998,3.172426942,13.12410278,6.565622711,0.011915462,-0.170964647,25.43570055,1
-6.85E-05,0.298365259,3.091633572,12.07406239,6.563492802,0.012951527,0.924439649,3.617630132,1
0.004060566,0.293015761,3.206099359,12.92075528,6.556491688,0.01114498,1.077554105,4.276474927,1
-0.00175209,0.268897109,3.358612247,15.15238653,6.550019291,0.0082491,0.642018803,12.92673454,1
-0.003318035,0.268287705,3.405042911,15.51860126,6.547665841,0.008326378,-1.240557643,71.66363369,1
0.001550884,0.269468594,3.32268889,15.02524376,6.545814732,0.008625001,-1.053992058,57.64617486,1
0.004016347,0.280983788,3.267490411,13.9943448,6.546653693,0.008508344,0.900667717,11.06369312,1
0.002545153,0.285627219,3.145755957,13.06814649,6.547647858,0.008549172,1.212151097,10.21328063,1
-0.003372011,0.274609622,3.224357999,14.07724435,6.54435076,0.008936769,1.108248403,10.31125243,1
0.00113921,0.286520382,3.125126135,12.80244956,6.540177536,0.010578018,0.508089159,5.286429807,1
0.004106533,0.286949308,3.060404458,12.43856094,6.53047518,0.012785374,0.709123957,2.003244794,1
-0.000972382,0.269480012,3.324290597,14.8669275,6.524582672,0.008811029,1.431157543,10.25660151,1
-0.00021649,0.296183249,3.15477175,12.50494105,6.530515453,0.009714223,1.118415981,6.782442568,1
0.002623869,0.304762635,2.914221385,10.82037539,6.545895549,0.014175803,0.244869446,0.289081077,1
-0.000500977,0.280406156,3.05759065,12.69349783,6.555462864,0.009221029,1.005200294,7.896227417,1
0.00094965,0.284316899,3.273993506,13.81839291,6.553339985,0.008937667,1.491795043,13.29433328,1
0.005689375,0.287306835,3.143872288,13.00129549,6.548260716,0.01065452,0.110237346,13.30231565,1
-0.001538681,0.278603984,3.129802342,13.40287793,6.542107337,0.009846255,0.440584631,16.65579015,1
-0.002751879,0.275983876,3.21341695,13.97640399,6.540002441,0.008268677,1.288593422,12.93590192,1
0.004555304,0.285316492,3.202668886,13.37186865,6.539437975,0.008307717,1.134085133,14.57668789,1
0.001788404,0.289253144,3.147475609,12.80183329,6.539951379,0.008357212,1.205537709,14.17894529,1
0.000261409,0.289454694,3.107769782,12.57313936,6.54292232,0.008976707,1.233010281,9.036384101,1
-0.002012466,0.284213398,3.232539807,13.59561255,6.545955167,0.009849324,-2.947132287,143.4111843,1
0.00463007,0.284708869,3.209173553,13.31061986,6.547863334,0.009787333,-3.648003313,169.9998932,1
0.003868646,0.288239532,3.091673515,12.5770644,6.543790327,0.010297019,0.189626947,22.56575286,1
-0.003949284,0.276334491,3.214069444,13.93653202,6.537455368,0.008692367,0.763789087,11.59733049,1
-0.000713497,0.283979899,3.240990689,13.52989713,6.541114371,0.00990984,0.925096244,7.260654812,1
-0.001111025,0.281594819,3.265595814,13.84525243,6.545393154,0.00853936,1.39656992,12.37689031,1
0.005430477,0.28477605,3.168907156,13.17596143,6.543799155,0.008923522,1.589745788,13.3720501,1
0.006196021,0.29943055,3.01625412,11.6680856,6.549679511,0.013772119,0.910820157,2.11718913,1
-4.55E-05,0.304636336,2.918486561,10.93228058,6.561520767,0.01332174,0.024864437,1.717892531,1
-0.004130598,0.288433577,3.154584808,12.84817344,6.558953694,0.012118851,0.61283077,2.220658973,1
0.002278793,0.275360661,3.492190475,15.37262707,6.550899615,0.008441897,1.468448531,11.52837768,1
0.004064549,0.277133338,3.377505261,14.70706795,6.55161596,0.008175594,1.493308422,12.34567301,1
0.001456172,0.270225719,3.299383853,14.71534104,6.550427791,0.008480084,1.398434955,12.99647062,1
0.002187012,0.274338498,3.186477174,13.89027597,6.548450034,0.008369277,1.46482959,16.74431224,1
-0.004106899,0.275072765,3.22897498,14.09624825,6.5496121,0.008414939,1.344339687,17.88372199,1
0.000360476,0.282955058,3.284930518,13.86428497,6.55495976,0.010324122,-0.065659983,19.1006496,1
0.001564054,0.286681967,3.177520944,13.03530892,6.562931115,0.009606219,-0.765622183,28.76299692,1
-0.001795035,0.276041194,3.224782703,13.8904415,6.565495954,0.0081736,1.558891876,16.38011558,1
0.007035304,0.284011434,3.225659872,13.42352143,6.566114971,0.008693466,1.592861679,11.49892251,1
0.003253771,0.297104633,3.136163438,12.34344722,6.571553312,0.009792028,1.532544201,12.89071264,1
-0.003029925,0.290551969,3.106056469,12.51942759,6.574271447,0.009172654,1.59814334,16.78240244,1
-0.000663705,0.278252221,3.146847047,13.33657446,6.572313472,0.008808565,0.914000484,8.575996998,1
0.003011725,0.287241413,3.138553746,12.82894938,6.572587803,0.008421156,1.40842094,10.52706306,1
0.003814832,0.302247761,3.016000487,11.46579506,6.576109096,0.009071414,1.041900048,8.130632153,1
1.41E-05,0.298558009,3.136907272,12.28119082,6.576124518,0.008829948,0.809711682,7.014910485,1
-0.001681497,0.286733377,3.158044217,13.01313748,6.574006053,0.007729963,1.109079541,9.126291204,1
0.000480462,0.286788918,3.15949483,13.03221449,6.57207549,0.00806287,0.780638013,8.158829477,1
-0.000393396,0.285921281,3.21638544,13.35832298,6.568747984,0.00796068,1.045975334,11.1133397,1
-0.001201035,0.290128915,3.10021548,12.5263056,6.565213721,0.008484883,1.078673936,8.197697041,1
0.00091781,0.2871301,3.157902154,12.98342414,6.563855198,0.008315096,1.412590035,13.1109662,1
0.000130299,0.272363012,3.267792607,14.41816713,6.571042361,0.01051252,0.809293789,5.997411563,1
0.001073933,0.293266619,2.954286821,11.578502,6.58298487,0.011308578,0.531703009,2.592124027,1
0.001709074,0.293224382,2.956892009,11.59340804,6.583221599,0.011253794,0.555161727,2.064979817,1
0.000413249,0.272063904,3.261693521,14.39557878,6.577760315,0.009219644,1.003336667,8.341752055,1
0.00053336,0.270829473,3.301185074,14.66424845,6.582605689,0.010043181,0.769810013,6.662974489,1
0.005373086,0.281899476,3.263491464,13.83130685,6.589331872,0.008852073,0.941209588,11.34741057,1
0.002137207,0.287608089,3.12243377,12.80386593,6.591000639,0.008450358,0.843054186,11.7584275,1
-0.002919767,0.276680726,3.188218259,13.72783259,6.590166037,0.008109122,1.188824871,8.699275851,1
0.004751437,0.283097792,3.257782146,13.71992544,6.591138077,0.007990957,1.461615264,8.264761709,1
0.001328371,0.287798368,3.152005908,12.91422235,6.58944446,0.008881034,1.066133568,7.930250989,1
0.002136233,0.289882783,3.091292885,12.4541514,6.58533189,0.008803945,0.857990084,10.69945683,1
0.001035998,0.288319573,3.114653773,12.67973159,6.589692579,0.01085644,0.716492438,5.847099752,1
-0.004604279,0.275290487,3.236815156,14.13539797,6.602653939,0.011620722,0.290175321,3.290519413,1
0.005357398,0.287540074,3.129664321,12.82197736,6.610572324,0.008111388,1.005062616,11.33519465,1
0.0004182,0.289494501,3.103027209,12.50587369,6.614692034,0.009194821,0.877460648,9.614485403,1
-0.000492717,0.287129038,3.155827918,12.98216601,6.618556595,0.008127893,1.265791208,14.31556575,1
0.002486677,0.292995434,2.989225909,11.85183398,6.61828973,0.009851064,-5.444765462,221.5917989,1
0.001442453,0.299373415,2.832649175,10.75502056,6.618206188,0.012412351,-1.933291634,88.91150789,1
0.002147991,0.300122804,3.001512867,11.48597988,6.632207653,0.018350183,0.137036452,-0.566205695,1
-0.00137953,0.284797093,3.184518909,13.0938514,6.637036896,0.013302368,0.547936428,1.25826955,1
0.001330797,0.282787592,3.248662859,13.60576408,6.629496438,0.008321856,0.911729873,7.392498447,1
0.001950897,0.280141635,3.304902034,14.09039681,6.63225114,0.0081963,1.201348661,9.667559145,1
-0.001723827,0.269500273,3.33794244,14.92464227,6.630636379,0.008604726,1.077056551,10.87322873,1
0.001677573,0.277027209,3.413240668,14.83590941,6.62529177,0.008211545,0.81571655,12.53375131,1
0.001400279,0.281467145,3.296529199,13.93922752,6.622317668,0.007855753,1.170332674,11.55953127,1
-0.001780276,0.270439862,3.350913964,14.86243885,6.616552189,0.009369549,0.966558453,5.267481013,1
0.005033739,0.282095229,3.240547792,13.59689128,6.612218421,0.008348983,1.777342137,15.92874338,1
0.000430376,0.28592767,3.168278441,13.07332171,6.612442126,0.008166066,1.568961683,16.59341578,1
0.002635771,0.285778473,3.162979443,13.00099162,6.61526195,0.009172212,-0.479232654,41.1173129,1
0.001782636,0.285448931,3.173782287,13.0715556,6.620609338,0.00908817,-0.483327398,48.45899476,1
0.001580625,0.284914439,3.19696465,13.2212188,6.621419035,0.008667969,1.550103042,14.85228603,1
0.000342917,0.285336855,3.17394514,13.08710292,6.621383776,0.008864472,1.615928499,12.51690446,1
-0.006162918,0.286508518,3.190713579,13.20119463,6.630410603,0.020747446,1.770405304,2.890959885,0
0.003405925,0.314512606,2.892440021,10.34453936,6.675689425,0.050441041,0.595228703,-0.579495245,0
-0.005375355,0.334417912,2.772438483,9.171983125,6.707486834,0.037108163,0.485292711,-0.909101337,0
0.000499217,0.350239531,2.743864179,8.621626754,6.71158905,0.028663523,-0.162311925,-0.951442147,0
0.004241841,0.326081282,3.162334504,11.27363219,6.704965755,0.022660234,0.637412466,-0.337648565,0
-0.002869668,0.285740056,4.010820837,17.69978838,6.696847207,0.013466459,0.266496745,1.166345006,0
0.002141065,0.284295441,4.092899573,18.24582423,6.704427501,0.009824441,0.645870404,3.963660605,0
0.001447488,0.276320639,4.137968976,19.12701513,6.695007379,0.012545429,0.122599037,1.620713291,0
0.00119046,0.276772642,3.863632448,17.66245743,6.684527969,0.00958,0.834395793,11.23170858,0
-0.000543862,0.269844843,3.722373917,17.24959834,6.683671079,0.010288502,0.483769419,7.052137628,5
5.89E-06,0.272023887,3.509168937,15.66829811,6.695889664,0.015421435,-0.003664389,0.724609868,5
0.004335957,0.284668541,3.394236226,14.36983997,6.717863955,0.015750261,0.372904052,0.553847393,5
-0.000348155,0.277347287,3.509015789,15.59980743,6.730476161,0.011395737,-0.53591783,11.63569635,5
-0.004894089,0.283760669,3.360691563,14.41146475,6.728265272,0.009971875,-2.807915568,87.83451047,5
0.004481173,0.288873452,3.367254338,14.15844994,6.724826486,0.010251359,-1.494950028,64.07455709,5
0.005200293,0.278219361,3.366799849,14.80030008,6.727008765,0.010545473,0.84517232,4.200414165,5
-0.001687507,0.267360099,3.437017365,15.82312943,6.730398778,0.009931091,1.172953217,6.195854188,5
0.002886468,0.277827487,3.397246959,14.8762037,6.743784768,0.016304895,0.492306696,0.725228295,5
0.000639313,0.278403392,3.362748263,14.6432881,6.759393365,0.012200104,-0.750683331,20.28676878,5
-0.003821326,0.266410735,3.536594263,16.48396507,6.766652516,0.01055546,-1.340681551,48.49830112,5
0.003811608,0.282701264,3.334057126,14.34266959,6.764367948,0.013747297,0.115624198,4.360675157,5
0.000592215,0.284020506,3.33012014,14.27879696,6.768273272,0.015362567,-0.01922503,0.065678216,5
-0.001898836,0.270061566,3.471655767,15.93821618,6.781687764,0.010291518,0.487983158,4.10448291,5
0.008042267,0.282944712,3.266778232,13.83551053,6.784183611,0.009211555,0.5444708,6.193805908,0
0.001916957,0.287070052,3.164302386,13.09641524,6.792348535,0.015296689,0.695962795,0.612622389,0
-0.005844275,0.289935394,3.09779068,12.56919481,6.835722133,0.036022364,-0.07034031,-1.504612404,0
0.001302383,0.299879633,2.990795802,11.43744953,6.871801703,0.011334402,0.437158933,4.363625905,0
0.000984061,0.286745222,3.068375008,12.58473245,6.862459346,0.017110048,5.59E-05,0.42686852,0
-0.000670997,0.275636234,3.105425254,13.52958227,6.846942139,0.012774846,0.945698786,3.166978295,0
0.00128988,0.279163688,2.967774988,12.58969026,6.854574421,0.015149422,0.241563071,0.495884664,0
0.003546642,0.292759272,2.932846945,11.73006281,6.860308184,0.011613527,0.30256716,2.012485015,0
0.005448159,0.292387275,2.94241407,11.79080297,6.843119921,0.015837954,0.028958942,2.533537855,0
-0.001966422,0.29303527,2.708376926,10.59210321,6.833088957,0.010934737,0.472242829,14.14436794,0
-0.002727578,0.295117789,2.687918256,10.43914421,6.831246785,0.010126832,1.181330245,5.223897297,0
0.00242962,0.285420383,2.859198237,11.7669021,6.828829793,0.009155454,1.102177175,9.28719024,0
0.003568869,0.295058572,2.880409774,11.32606735,6.828400912,0.009510014,1.101391186,11.11399931,0
0.003623775,0.301131217,2.736259388,10.33378908,6.826816341,0.00883335,1.411953735,13.44879295,0
0.000945033,0.292128435,2.69012932,10.51683193,6.829096222,0.010477412,0.825372232,4.020896745,0
-0.001966363,0.287127447,2.827810447,11.4456624,6.835399192,0.01168951,0.438540801,2.713277286,0
-0.002025199,0.28571683,2.865452912,11.69891039,6.836412048,0.010461983,1.053709022,4.656496488,0
0.000857856,0.285444276,2.849402903,11.62536444,6.830750438,0.009731166,1.38234719,9.554781649,0
0.001946836,0.284838568,2.851143838,11.6757119,6.826733889,0.009009251,1.225870678,11.50704201,0
0.005083629,0.294812402,2.853355349,11.17157391,6.822873579,0.009397475,0.819614044,5.307893997,0
0.004736965,0.295379889,2.838620464,11.07322425,6.816647829,0.01009297,0.912060243,5.308653192,0
-0.002370581,0.292247751,2.707948902,10.5810411,6.818267168,0.011012482,0.84305464,4.646822522,0
6.34E-05,0.302250464,2.742007387,10.29521045,6.823892648,0.00957576,1.061435178,6.629748351,0
0.006447209,0.298260957,2.800806294,10.71837163,6.825894002,0.009054822,0.901072739,6.763822131,0
-0.001975139,0.28969395,2.811715511,11.17266064,6.826490784,0.008867529,1.004845616,8.247043257,0
-0.003845149,0.300241291,2.834131103,10.8341102,6.830442374,0.010862772,1.060695826,5.699317046,0
0.004502773,0.308783038,2.791485484,10.20174399,6.857357407,0.025989344,0.440754944,-0.839047751,0
0.001370799,0.29322797,2.939950516,11.60050798,6.869495174,0.016731353,0.625848213,4.79541009,0
-0.002318717,0.281368779,3.017523102,12.67221228,6.854365158,0.01078541,-0.370421224,21.69854477,0
0.003052061,0.292166444,2.983678878,11.99165828,6.843542262,0.010749753,0.805445405,5.798294005,0
0.001774488,0.299042358,2.806819511,10.78727521,6.836585672,0.009793091,-1.554639123,66.62740461,0
-0.002692631,0.289956976,2.780100187,11.03015874,6.833628028,0.009784563,-1.367297552,66.46383568,0
0.002158709,0.293300733,2.947258119,11.69834169,6.836970629,0.020143316,2.202243538,4.918209737,0
0.004284413,0.30035862,3.001632733,11.55048746,6.869826562,0.034594156,-0.225313817,-1.538489884,0
-0.000148315,0.287751252,3.059366259,12.41632067,6.884204538,0.017424992,0.284245074,-0.413168811,0
0.002761276,0.283645832,3.140290506,13.06189371,6.867452512,0.010896905,0.491259345,2.607553911,0
0.000866769,0.282865446,3.170730676,13.28136561,6.85934639,0.010829182,1.082491784,6.315136757,0
-0.000110903,0.2817426,3.21732685,13.63367453,6.847932761,0.010701094,0.625572731,6.253875177,0
0.002854745,0.282504007,3.185261365,13.3906273,6.837542398,0.010148717,0.89906641,5.292274118,0
-0.001825921,0.271956502,3.223991064,14.16348623,6.837158312,0.009582549,0.728726374,7.03406344,0
-0.001662441,0.282388227,3.259953483,13.77486386,6.84494024,0.016843408,0.512840368,0.283748478,0
0.001167304,0.27953731,3.311714579,14.25568498,6.827283914,0.027537045,0.602222901,-0.866604853,0
0.004893971,0.273756202,3.416950197,15.16796653,6.801515797,0.009648726,1.220987624,9.98975753,0
0.007100222,0.278095333,3.25209414,13.97013369,6.792141233,0.010094349,0.050969269,7.265894614,0
-0.00187912,0.272463592,3.191236162,14.03731869,6.780323519,0.01066616,0.285854626,5.569867663,0
-0.002452168,0.282097949,3.242707125,13.77264501,6.778337424,0.023228805,1.611798631,1.986728569,0
0.000740616,0.285539786,3.154925594,13.04840299,6.797346769,0.027883727,-0.120695353,-0.90865706,0
-0.00142598,0.274369593,3.209210602,13.98837581,6.810238647,0.010547795,1.890799677,9.308129937,0
0.000637547,0.285095214,3.187995922,13.29795445,6.835772106,0.036665949,0.661611281,-1.226886189,0
0.002880171,0.298432303,3.098028946,12.12458765,6.867970058,0.025409803,-1.233667503,1.627585257,0
0.001812999,0.296079495,3.150077659,12.55133702,6.874467686,0.023514531,1.432444246,6.289497549,0
-0.006938265,0.319965258,2.994959051,10.84645184,6.835441153,0.047140041,0.664531871,-0.270306698,0
0.003215953,0.345140899,2.782290125,9.01319967,6.784923989,0.015066312,0.456253245,0.735364827,0
0.007319366,0.318434316,2.999439259,10.69628611,6.765852138,0.013746746,0.138956552,0.192593059,0
-0.004382466,0.269443794,3.640761046,16.25161537,6.74823543,0.013396616,0.031968796,0.003047145,0
0.001108736,0.266708387,3.736741453,17.41153254,6.737128013,0.009996415,0.676994532,2.405390141,0
0.001375109,0.286385534,3.375760303,14.22308152,6.732865906,0.008333281,0.696780672,3.862137967,0
0.000974821,0.286457064,3.381404292,14.22301979,6.731177248,0.007971582,0.832502643,3.64782486,0
0.0007966,0.272715466,3.553275731,15.93820313,6.733122744,0.007646593,0.793146603,5.09999882,0
-0.002756502,0.261396272,3.655256602,17.3306776,6.734401485,0.007308963,1.248752109,8.169777267,0
0.005017181,0.270659375,3.608099441,16.38063648,6.732432665,0.007867737,-1.600747088,72.43119796,0
0.004292476,0.292234065,3.457964769,14.20013059,6.739470128,0.011527903,-0.605065221,16.70812873,0
-0.002214491,0.278284636,3.693720844,16.36586805,6.752686746,0.008983004,0.324386186,3.193301032,0
0.000558694,0.263895386,3.933162618,18.78445299,6.758645085,0.007565166,1.126167746,5.009910874,0
0.002721824,0.261754644,3.953973764,18.9734615,6.75907026,0.007697698,1.478129378,9.376134372,0
-0.000961101,0.257530358,3.708958015,17.95240674,6.76394359,0.009106121,0.934694104,4.408825337,0
-0.001700082,0.261141624,3.600140964,17.06373404,6.768098068,0.007521382,2.200512633,19.2660135,0
0.004526472,0.266454911,3.703585016,17.16386421,6.767728533,0.006908226,2.748994946,26.90140147,0
0.003833692,0.266035015,3.719555977,17.3149915,6.77260279,0.00842549,-5.915482495,238.4435372,0
0.00284402,0.25560125,3.700111215,17.8726331,6.779468536,0.008614896,-5.981420399,237.7298453,0
0.003051884,0.271361661,3.528408389,15.8427153,6.786640603,0.008770673,0.406592179,2.469207114,0
-0.005828868,0.275553772,3.564986868,16.0493375,6.789039939,0.007704893,0.849696969,4.680760095,0
-0.002687079,0.270815167,3.618525873,16.51680785,6.793113109,0.011652385,0.770302518,0.93894037,0
0.001387351,0.269603728,3.596928188,16.34269497,6.800825446,0.009945918,0.282872061,2.113864179,0
-0.000554156,0.274106666,3.543434907,15.90031795,6.806082916,0.008221781,0.936883493,4.957742413,0
0.003772692,0.299935841,3.24797845,12.86503669,6.808897182,0.007492167,1.18295869,8.683376173,0
0.004002208,0.302134684,3.164562551,12.23881718,6.814087132,0.010379895,0.776520067,1.527273766,0
-0.00136169,0.299164106,3.269775475,12.86871433,6.826626096,0.01451161,0.69749703,0.294543584,0
-0.001744099,0.302371629,3.355694357,13.18357967,6.84897401,0.022178132,0.011534736,0.024002451,0
5.67E-05,0.298661735,3.517858906,14.32859405,6.875376892,0.016792938,-0.665167295,3.240120553,0
0.003779303,0.303857544,3.469786799,13.64241841,6.896056965,0.014600456,0.506141626,0.436337845,0
0.000470051,0.311436388,3.427718615,13.05547764,6.906085914,0.009895047,0.711568121,3.716533371,0
-0.003988639,0.307044647,3.477187623,13.78043026,6.911027036,0.009631845,0.588159175,2.584984624,0
0.003431612,0.295233646,3.542589626,14.72209798,6.917463357,0.009276957,0.474402163,3.883621059,0
0.00253624,0.296112381,3.598520817,14.99250966,6.906729889,0.015148654,0.250716645,-0.326315877,0
-0.000287096,0.294492585,3.650323321,15.38702155,6.89790208,0.008900999,0.696911371,3.077392193,0
0.001640305,0.29053792,3.584242399,15.23543948,6.899882562,0.008920642,0.790151572,4.843415214,0
-0.003079893,0.285195403,3.333667308,14.28769102,6.902613122,0.010567607,0.826580501,4.522437859,0
0.001732413,0.299319833,3.052761579,12.13148511,6.906164714,0.009330312,0.913540188,5.820711047,0
0.003983459,0.307343503,3.054925203,11.73740493,6.904580743,0.008929508,0.836411594,5.384858453,0
-0.001065752,0.300194913,3.106299728,12.29360448,6.901298686,0.008901324,1.049182674,6.544954572,0
-0.001193821,0.294569866,2.984542689,11.97088183,6.901710619,0.008800144,1.22007509,7.495742951,0
0.002747504,0.295449458,2.899155429,11.53903013,6.907395009,0.009534469,-0.232195019,33.19967089,0
0.005641427,0.304155692,2.921931749,11.18592027,6.91256752,0.01010391,-4.249014062,138.4864233,0
-0.003052898,0.294807547,2.962447958,11.74828407,6.914316559,0.009378235,-3.729794688,159.2069497,0
0.00039093,0.295326515,2.928431906,11.56743856,6.910588619,0.008956868,1.237328378,8.06210598,0
0.001550988,0.296218507,2.911203262,11.48152853,6.907188198,0.008119301,1.291001171,6.761114203,0
0.00015169,0.302748975,2.78101325,10.53046695,6.906154088,0.008487004,1.23982091,5.845283425,0
0.002795471,0.298281788,2.80457359,10.84163313,6.908947917,0.012320472,1.411721001,7.285753343,0
0.004004556,0.308680495,2.799651761,10.2738275,6.922380611,0.015827976,0.139406746,1.292224894,0
-0.00140181,0.307578531,2.917592133,10.89721556,6.930624553,0.009683534,0.791223109,3.34330294,0
-0.004558541,0.293142332,3.021032718,12.17043455,6.928109905,0.008660185,0.75514895,5.631649026,0
0.001200551,0.295182839,2.936317918,11.66536327,6.926234491,0.00926839,0.433008716,22.30788871,0
0.004382714,0.299420034,2.800278683,10.85566324,6.921150698,0.010357336,0.537576567,13.97703885,0
0.000485962,0.299550005,2.819686173,10.92600063,6.911862183,0.01125646,-0.074011225,7.460857241,0
-0.00368061,0.29877985,2.895701976,11.31060313,6.894679642,0.016451259,-0.111643077,2.952272238,0
0.004509731,0.307840785,2.856578691,10.73101763,6.875374494,0.012410852,0.483112754,7.748761415,0
0.002371857,0.296424144,2.878984958,11.38389529,6.865835299,0.008669499,1.216440007,8.670703603,0
-7.15E-05,0.298037261,2.869906771,11.25092819,6.864287949,0.009221916,1.012851638,4.279099054,0
-0.000100263,0.29074962,3.064216752,12.59457674,6.857864598,0.012104593,0.519316503,1.676771348,0
0.001373186,0.293273653,2.975726193,12.03515001,6.843662807,0.011235669,0.436772093,1.054788515,0
0.000763046,0.295306032,2.932597925,11.71712463,6.833826283,0.008856469,1.037907352,5.158322977,0
-0.001530088,0.29594306,2.923196057,11.62375172,6.836936188,0.0118797,0.861267828,4.075784688,0
0.001078707,0.317806633,2.807591008,10.06098902,6.856141009,0.017081806,-0.053226009,0.121725974,0
0.002062696,0.315831232,3.057079405,11.17523621,6.848219299,0.026929121,-0.577717712,-0.764172669,0
0.004096377,0.303724696,3.417279973,13.3626934,6.806847491,0.026042995,0.671706775,-0.751818932,0
-0.001907593,0.296172912,3.390679377,13.71986642,6.780622319,0.010876398,0.464114379,2.636264056,0
-0.004548274,0.303993141,3.188585181,12.43258518,6.776450784,0.0093473,1.204729741,7.532028852,0
0.000589443,0.321496688,3.171485234,11.63341003,6.774745451,0.009398218,0.963628078,4.276146465,0
0.003456573,0.320985245,3.314861809,12.28737296,6.775991767,0.010346665,0.304706395,1.667409713,0
0.003746868,0.309457428,3.553767257,13.81146123,6.78187839,0.008547108,-0.116606028,4.871740967,0
0.001093604,0.299866657,3.778931246,15.33139736,6.787587847,0.009513346,0.228462327,5.602927624,0
0.000278242,0.305225098,3.764259761,14.9986891,6.799332101,0.011023671,-0.556349326,4.034709844,0
0.000362608,0.323117934,3.554715653,13.14831691,6.809228461,0.008107393,0.814173949,6.707774635,0
-0.000357958,0.335860938,3.357269368,11.82411544,6.819439806,0.010862182,-0.178353417,5.380126768,0
0.002054522,0.362094535,2.983843257,9.457165398,6.839508711,0.017634264,0.708411001,1.111038781,0
0.001435187,0.37786006,2.743393006,8.158009296,6.866355569,0.019266069,-0.302873667,-0.650707032,0
0.000372443,0.380688739,2.663887237,7.858056138,6.884899248,0.009772668,0.420559001,6.132060598,2
0.00178571,0.385476408,2.633342147,7.625214149,6.89404008,0.010647832,0.817436121,3.156144521,2
-3.18E-05,0.380001207,2.66050105,7.956310745,6.9056427,0.012181125,-0.491441274,7.2170294,2
-0.000555091,0.376235339,2.713390811,8.276844462,6.907836751,0.009967459,-0.350883028,17.32544456,2
-0.000173211,0.379651786,2.716607259,8.139577057,6.900742177,0.010554011,0.102918688,1.560315929,2
-0.000801682,0.377685563,2.684943141,8.142979232,6.906258556,0.012740503,-0.307941393,0.320310945,2
0.002690042,0.359759157,2.7858429,9.106096367,6.917290769,0.008831816,0.548894947,3.710382468,2
-0.000742807,0.359170826,2.84334165,9.335414883,6.932405036,0.016350633,0.376795966,-0.112650186,2
-0.002900606,0.359806399,2.891549037,9.507629386,6.962515368,0.021636802,-0.068786935,-0.568164502,2
0.00351588,0.349737651,2.950777091,10.03346759,6.995304162,0.017798864,-0.034744086,-0.542754332,2
0.002785028,0.341173103,2.944721855,10.33330138,7.014438139,0.009584433,0.649007753,4.662483787,2
-0.002515562,0.343695711,2.938872897,10.25384888,7.046420779,0.042772654,1.233508461,0.065229964,2
-0.000434601,0.331565043,3.169831244,11.66008668,7.139529691,0.073765524,-0.41762758,-1.403484856,2
0.00235885,0.324138011,3.2442398,12.27294495,7.213185665,0.01906839,0.105268884,1.117486368,2
-0.001712899,0.348974274,2.914167261,10.04709128,7.270037515,0.061308395,0.783070793,-0.485234043,2
-0.002096224,0.356935726,2.866521443,9.563814787,7.414020593,0.128351874,0.987206265,0.329750885,2
-0.000407423,0.350457113,2.941325463,9.965612189,7.662550463,0.173548306,-0.383854353,-1.601587861,2
0.000555601,0.330331828,3.145995828,11.55929113,7.84444967,0.037752734,-0.722070883,0.181099624,2
-0.003110563,0.333087949,3.100923383,11.37797489,8.184408242,0.398180866,0.828677255,-0.910445781,2
-0.003947872,0.340505551,3.024253516,10.82359214,9.039910616,0.674497399,0.207235742,-0.832332405,2
0.004435835,0.326754095,3.031966778,11.15016981,10.18745847,0.709822742,-0.214275807,-1.089227577,2
-2.46E-05,0.321391237,3.057554696,11.3374963,11.17532915,0.479486691,0.087631384,-1.282807913,2
-0.00031366,0.331861565,3.077627584,11.16540424,11.72744707,0.270012264,-0.849154413,-0.732135187,2
0.000553659,0.339164122,3.06835731,10.86165894,11.60734831,0.38498521,-0.632836686,-1.165610537,2
-0.001806747,0.3177242,3.348857558,12.95289868,11.06921158,0.35456153,1.230277944,0.382523819,2
0.003901899,0.301150477,3.338748787,13.14236467,11.02883955,0.263838971,0.617902048,-1.140972941,2
0.004307007,0.300189693,3.405360319,13.47025633,10.85994268,0.455962954,-0.130986672,-1.411348388,2
0.002475723,0.304654363,3.051601355,11.61451448,10.56899599,0.262673663,0.171199452,-0.988418772,2
-0.00282945,0.308767637,2.971946344,11.13587496,10.04736056,0.652389426,-0.06736464,-1.675974246,2
-0.002647777,0.304163081,3.469019124,14.2118808,9.065247781,0.444647432,0.284682734,-0.779624281,2
-0.001410304,0.302992808,3.489142224,14.32229437,8.487484523,0.263308889,1.001604646,0.27601317,2
0.000954941,0.320395899,3.35741658,12.8272565,8.264565659,0.096832313,-0.146420504,-1.086785808,2
3.86E-05,0.32841462,3.245931936,11.99717838,8.200419072,0.108412631,0.508761004,-0.804252013,2
-0.003270231,0.320834252,3.251497334,12.47935182,8.1133564,0.093073781,0.258891097,-1.423916875,2
-0.000705754,0.329611897,3.110799991,11.3811563,8.136248016,0.102404261,0.023199254,-1.255214298,2
0.004279894,0.346039841,2.939799221,9.859803467,8.135146059,0.091476718,0.465430021,-0.977834423,2
0.016825248,0.353872392,2.71361395,8.49620448,8.148646927,0.136493917,1.792552249,3.565592684,2
-0.003881744,0.363108807,2.465041538,7.546148908,8.23903923,0.24913374,0.914801878,-0.132922533,2
-0.013889439,0.356668075,2.676934178,8.848969639,8.025004033,0.323655021,1.284723426,0.462894246,2
0.005279133,0.314844207,3.204077716,12.39695342,7.835959189,0.159426525,1.590231176,1.460914928,2
-0.00358274,0.295818534,3.426898388,14.69352815,7.899619293,0.163526502,0.797068628,-0.36360698,2
-0.003525768,0.30053576,3.547785565,15.20697551,7.916895839,0.071362777,1.776571928,3.576565268,2
0.009114022,0.308419115,3.42263787,13.79407612,7.97761394,0.114569733,1.532859228,1.603057891,2
-0.004878374,0.321062907,3.181498529,12.02916039,8.143674523,0.166421295,0.504244639,-0.912827118,2
-0.00602778,0.321693708,3.237374798,12.24585616,8.210609164,0.120805188,0.687567336,-0.580092782,2
0.008821832,0.329037069,3.191981497,11.70303399,8.266556876,0.123817051,0.242248325,-0.701006952,2
0.00619351,0.33835798,2.911789794,10.00655558,8.364307676,0.089900087,-0.222862899,-0.311108734,2
-0.005351545,0.311323526,3.213566779,12.56982785,8.279094969,0.11984568,0.254993751,-1.245780875,2
-0.004010284,0.290206869,3.683005523,16.13699319,8.173394775,0.051148126,1.697621744,3.343824659,2
0.014304592,0.300475766,3.311917889,13.30621406,8.365846034,0.322428021,1.783437953,2.119942754,2
-0.006030147,0.294338826,3.316063225,13.43129178,8.705824988,0.387046182,0.232562035,-1.374448833,2
-0.00569645,0.301746024,3.379511777,13.49261726,8.52499842,0.42028466,0.640413979,-1.026700674,2
0.004911791,0.311384242,3.338769642,13.06175587,8.194252123,0.148693277,-0.256588028,-1.077360309,2
-0.007388319,0.316701285,3.35377676,13.19701966,7.984129225,0.247088271,0.376448757,-1.211989046,2
-0.000832803,0.333105124,3.261336757,11.98431891,7.803364291,0.101011454,0.543602017,-0.634531277,2
0.002641048,0.304462616,3.536482733,14.33282553,7.878715134,0.144412539,1.006504796,0.208498174,2
-0.000947577,0.294913087,3.530293165,14.8428536,7.870834841,0.143836958,1.222749399,0.425595555,2
-0.020285339,0.339398759,1.575021146,12.61098157,7.644934137,0.842080852,-8.868453685,77.57363593,2
-0.01393432,0.329083535,1.533942032,13.88457079,7.659563283,0.844791889,-8.833180995,77.15504972,2
0.002518164,0.289319641,3.701214071,16.17291389,7.851977703,0.05623972,-0.687542662,-0.24509699,2
-0.000404107,0.27809006,3.806821978,17.28800691,7.920339748,0.070809927,0.499237405,-0.281250652,2
-0.00203491,0.279685519,3.751426501,16.98424413,8.110977936,0.174026528,0.641091614,-0.895433348,2
5.13E-05,0.2782863,3.729406953,16.80587754,8.306710216,0.113879793,-0.991645973,-0.564708659,2
0.001008833,0.301875106,3.428653657,13.91768429,8.519417082,0.219358479,1.366488407,0.613263263,2
0.001435083,0.310177004,3.357533932,13.165719,8.718779973,0.174306524,0.289184797,-0.739710017,2
0.00210347,0.290764147,3.572224084,14.88933942,8.761244965,0.077005467,1.259948183,1.076216018,2
0.001966115,0.289205946,3.563414139,14.74680641,8.839903586,0.092505445,-0.028241329,-1.360044874,2
0.002596619,0.303129086,3.343839159,13.12684478,9.018739046,0.113422935,0.177439269,-1.340310691,2
-0.000803349,0.311860402,3.285100916,12.46108589,9.190964508,0.090946258,-0.491420789,-0.616363628,2
-0.000363275,0.309483445,3.311709221,12.58422392,9.317103631,0.063151822,-0.150795593,-1.095939969,2
0.004133554,0.317363712,3.206601467,11.76452092,9.416382817,0.054474879,-0.113135892,-1.255306488,2
-0.000598931,0.316862484,3.198872686,11.78343222,9.492843791,0.03940748,-0.038846944,-0.802981606,2
0.000442193,0.326386092,3.081673731,10.85958925,9.529584176,0.021094023,-0.645782093,-0.282293676,2
0.006106535,0.332414107,3.087389162,10.61610521,9.540134702,0.010840169,0.147011978,1.261528785,2
0.000546302,0.305335666,3.459458308,13.55613693,9.542463357,0.010982142,0.73584534,3.23742105,2
-0.003540181,0.312905901,3.478229303,13.53443276,9.574609756,0.041662804,0.783669732,-0.439378512,2
-0.000934943,0.333925671,3.226442637,11.51816193,9.617956161,0.030556474,0.12740905,-1.324186447,2
-9.65E-05,0.332376759,3.1689699,11.32720761,9.592119816,0.043711182,-0.006032991,-1.098464746,2
0.000394337,0.330935478,3.167907558,11.35270786,9.520244762,0.042038892,0.361578097,-1.084608624,2
0.00394007,0.328628744,3.173140369,11.36470797,9.466628592,0.021443884,0.644632674,-0.300295813,2
0.000375078,0.342934394,3.027034227,10.24398299,9.457501221,0.02195349,0.03838445,-0.021639419,2
-0.001429786,0.332541762,3.18436459,11.35575953,9.415366527,0.055313844,0.17411944,-1.559774041,2
7.97E-05,0.329039855,3.239838636,11.69667872,9.324784088,0.043870301,-0.041189568,-1.467659167,2
0.002389526,0.341591708,3.06182156,10.51076688,9.237949371,0.053362576,-0.25514322,-1.177577737,2
0.002527693,0.332635063,3.170046748,11.37243107,9.14068985,0.060087159,-0.06963749,-0.995783906,2
0.000617922,0.332046789,3.17900666,11.40902971,9.032536261,0.066957891,-0.054450326,-1.137345964,2
0.002204126,0.330544454,3.228770408,11.61929376,8.917041997,0.065564202,0.131804745,-1.374057702,2
0.000725196,0.330892368,3.249395825,11.70804824,8.816122491,0.05029363,0.039289414,-1.105559567,2
-0.000269897,0.335270632,3.163243306,11.27923868,8.749631827,0.03281442,0.31898544,-0.846862417,2
0.002567969,0.335178741,3.190185562,11.36347321,8.704145976,0.038145037,-0.591244649,-0.51301326,2
0.000932556,0.323521264,3.322714812,12.42641445,8.628709139,0.063010929,0.269818099,-0.882100985,2
-0.000124002,0.312883432,3.491504685,13.62479951,8.545083727,0.037983432,0.144253614,-0.288122776,2
-0.0015888,0.316783303,3.447360489,13.17973009,8.53333871,0.060295681,1.048021498,-0.089510783,2
0.000218366,0.329975469,3.257849108,11.8551763,8.565967178,0.066818247,-0.030455344,-1.403390536,2
0.002097074,0.338247644,3.176222606,11.17729639,8.539191655,0.055497087,0.682723517,-0.695582986,2
0.000196681,0.326786365,3.312163057,12.22105611,8.491456441,0.019906941,0.485137259,-0.663887951,2
0.00113239,0.316672488,3.45072129,13.30572356,8.455579758,0.037821257,-0.687814022,-0.489990218,2
0.001731171,0.306257989,3.586024717,14.47249413,8.381687491,0.050713123,0.38756234,-1.359793572,2
0.000281943,0.306551245,3.600613344,14.51135763,8.323717717,0.019061061,-0.291886636,2.22876109,2
0.001854597,0.30684471,3.582926202,14.34938368,8.277625983,0.036210125,-0.031155549,-1.499929107,2
0.001279482,0.296978029,3.644988751,15.22519528,8.232024002,0.023746931,-0.99284286,4.885122843,2
-0.000192208,0.300516516,3.551162669,14.57409308,8.18515674,0.038982471,0.247859594,-1.200421703,2
0.002239452,0.313361068,3.40222109,13.19646882,8.12743454,0.031103975,-0.721169301,0.42807052,2
0.001564832,0.320688984,3.354875179,12.6002989,8.081691851,0.030013079,0.63074366,0.157174947,2
0.002109865,0.315737935,3.459119642,13.22299919,8.035379028,0.027577578,-0.244826299,-1.133445012,2
0.003293982,0.313320534,3.536534324,13.70940582,7.986154829,0.029807405,-0.113603639,-0.254891515,2
-0.001093689,0.302622638,3.668141799,14.95618411,7.936831502,0.027917747,0.189413132,-0.545320389,2
-0.000778342,0.296223334,3.66109691,15.30118803,7.89564427,0.020244352,0.047074214,-1.02712483,2
-0.000379028,0.30940491,3.531053611,13.98998978,7.859807096,0.021865065,0.082612696,-0.865959302,2
0.001224047,0.305795157,3.63053585,14.6005161,7.819964382,0.023281715,0.152813303,-1.342671714,2
0.002883774,0.301368736,3.600972725,14.62005134,7.797641645,0.009548902,0.803598917,2.729447336,2
-0.000313267,0.310593145,3.456670536,13.44465551,7.786168562,0.015615967,-0.260930997,-0.13582464,2
-0.000366701,0.304555881,3.564075202,14.31439847,7.752009528,0.026773197,0.203079475,-1.330060836,2
2.49E-06,0.311181978,3.416253323,13.3629454,7.724628666,0.009776563,0.886396445,3.117623046,2
0.001695714,0.309667244,3.466190017,13.64721592,7.697870037,0.028348255,-0.6873074,1.575969168,2
-0.000456822,0.307682393,3.543244293,14.19387005,7.655589403,0.026342461,0.222479194,1.433738612,2
0.000407194,0.296649337,3.623471337,15.25228246,7.615974426,0.027584808,-0.190635445,-0.652803016,2
0.001768988,0.286105482,3.812316669,16.67543909,7.580405535,0.022030708,0.789624763,-0.271594672,2
0.002234887,0.312800429,3.46025726,13.39711011,7.558422089,0.012421891,0.553410968,0.829240797,2
0.002508257,0.324750619,3.310689982,12.2576762,7.547201375,0.013772289,0.254958357,1.704106674,2
-0.001859783,0.317296292,3.462947371,13.35069324,7.520385415,0.027858839,-0.021346823,-0.796944444,2
0.001117964,0.291587364,3.747834479,16.06502617,7.483599963,0.020837537,0.262617605,-0.703282163,2
0.00047682,0.286551082,3.706249539,16.10412339,7.470023782,0.012277701,0.378764849,0.558302649,2
-0.001092852,0.299235008,3.639473693,15.05363091,7.465341023,0.011249875,0.401012788,1.80590043,2
0.003321651,0.306154778,3.655453387,14.75259868,7.442429461,0.02188515,-0.2050713,-1.021682881,2
0.002369797,0.306280518,3.618925097,14.60867115,7.420651245,0.015110739,0.637882151,0.607974895,2
0.000233747,0.287201658,3.80868904,16.65278399,7.40277383,0.018178298,0.506571,-0.197867378,2
0.000208583,0.288926327,3.735496125,16.12204077,7.375616728,0.016703279,-0.095075079,-0.071766913,2
0.000733671,0.287029388,3.755847358,16.32890525,7.352790397,0.013339204,0.527586457,0.911264656,0
-0.001413627,0.278020543,3.787831386,17.04631726,7.349300766,0.011278348,0.983523737,1.338253588,0
0.002486618,0.293768807,3.488098614,14.49271136,7.36579192,0.017664722,0.587007981,-0.268052221,0
0.001282608,0.302578088,3.496979406,14.07277486,7.374909919,0.018512268,0.396724085,-0.59412675,0
-0.003453997,0.308031774,3.402035007,13.66254585,7.408621652,0.038461012,-0.240075592,-1.52631514,0
0.000459856,0.321929678,3.158361782,11.66886905,7.449986267,0.015644521,0.865227897,0.804690185,0
0.000264345,0.328227792,3.162023631,11.29727778,7.473696191,0.022914136,-0.22341118,-0.904017733,0
0.000153475,0.342205042,2.9560417,10.19340791,7.520042092,0.048467652,1.758876376,2.415431912,0
0.001449384,0.351509084,2.824184719,9.276646325,7.637834058,0.103635377,0.007444007,-1.543762212,0
0.000175631,0.35488615,2.900932952,9.402463142,7.756996754,0.050102838,-1.365464752,1.059762639,0
0.001805485,0.343332624,3.072875678,10.53835315,7.789387458,0.015030148,-0.577455782,0.759316049,0
0.00220597,0.316729307,3.30677979,12.59854808,7.796887861,0.010644629,0.476949294,2.829626853,0
0.002401206,0.302467747,3.294091985,13.17440646,7.792993001,0.0152627,-0.109851652,0.123818731,0
-0.000169935,0.296477841,3.199200372,12.95894497,7.768740736,0.01982737,0.154640498,-0.365093017,0
-0.001497842,0.28526882,3.216287838,13.6692957,7.740221569,0.017902018,0.118814213,-0.385998065,0
-0.000103173,0.286883775,3.203847335,13.47834055,7.713389969,0.02076977,-0.663246024,-0.00497945,0
0.001432591,0.300127254,3.110582835,12.31271668,7.682037463,0.025271042,0.266763825,-0.864978469,0
0.002794758,0.291432591,3.066971039,12.46000502,7.656650761,0.015538134,0.621703637,0.271311831,0
0.00017758,0.296610486,2.997057642,11.73125518,7.641411318,0.013457053,0.789844042,1.673915294,0
0.00117334,0.308451002,2.946110816,11.01095097,7.619805581,0.01673118,0.128852945,-0.465032617,0
0.005057537,0.304228129,3.01510498,11.58205356,7.598446001,0.014966467,-0.258907789,0.745881476,0
0.000678569,0.296784452,2.988337426,11.75063456,7.586596135,0.015676883,-0.124096703,3.793609047,0
-0.001152969,0.299624138,2.923814087,11.27473671,7.580885533,0.012847417,-0.118718793,8.634309309,0
-0.000101741,0.298857515,2.938396518,11.40007591,7.579177638,0.013963788,-0.040584601,1.283923226,0
-0.001712298,0.304742472,2.823671274,10.53380286,7.564311927,0.024312569,-0.172763128,-0.511892488,0
0.002264635,0.314733439,2.807428404,10.03893034,7.533546993,0.02399359,0.269951797,4.467674973,0
0.003170903,0.312708619,2.843210237,10.28526129,7.510470908,0.014561156,-1.083331666,25.44989314,0
0.004603612,0.310908682,2.887511243,10.54100726,7.496621922,0.013413771,0.299385675,0.469050873,0
0.004785782,0.311911052,2.877827062,10.42903632,7.482181113,0.013794388,0.454213716,0.792209502,0
-0.004092074,0.302068824,2.892886915,10.9684611,7.471983664,0.015611057,-0.25959988,2.861827881,0
-0.005179609,0.306525164,2.79844288,10.31298238,7.449976948,0.024417824,0.415640609,-0.776626199,0
0.007538629,0.317125803,2.71857907,9.510503994,7.434153203,0.014092545,0.243132613,0.109580106,0
0.007417007,0.314480997,2.766382277,9.823971004,7.424126162,0.019962247,0.249117971,-0.731598994,0
-0.004562177,0.303768788,2.859465748,10.70273756,7.413392803,0.012706211,0.204497646,0.463840165,0
-0.000653902,0.299909125,2.905866039,11.14607969,7.409107862,0.013807305,0.451397125,0.315752431,0
0.000405592,0.304788052,2.792271072,10.35148406,7.39686639,0.013178796,0.463095077,1.409121244,0
0.003150755,0.309560897,2.684921164,9.620728034,7.383978217,0.014042958,0.718556593,0.898488522,0
0.006152612,0.320118217,2.670996924,9.157821999,7.376432691,0.01492707,1.06175306,1.949520002,0
-0.005986522,0.302078798,2.957411466,11.2887694,7.381361716,0.016284584,0.411590261,0.287792932,0
-0.004433997,0.298706706,3.039863588,11.87368315,7.376460212,0.01443715,0.238178821,4.059430782,0
0.002406993,0.316362616,2.776077779,9.824507561,7.363828714,0.00960882,0.309359701,21.49491732,0
0.005636751,0.319039464,2.694847096,9.338270267,7.350814274,0.01337659,0.246816138,1.472946982,0
9.41E-05,0.304139681,2.848373369,10.66234768,7.333598764,0.011444419,0.469510726,7.45136752,0
-0.00091316,0.305501691,2.813508948,10.45988232,7.324032375,0.008948722,-1.259496003,52.6563745,0
0.00503334,0.317884058,2.716275881,9.449247468,7.332353755,0.016266087,0.101215329,3.790603121,0
-0.002083623,0.308993133,2.738585293,9.848792356,7.341990825,0.01296294,-0.224307705,1.285958127,0
0.001073162,0.307660738,2.744283923,9.96631523,7.331934357,0.013338847,0.265809601,3.555224299,0
0.001853668,0.305373157,2.774938407,10.21498078,7.318391909,0.012564263,-0.164250659,5.161649217,0
-0.003303661,0.30821672,2.704421887,9.692103626,7.319437136,0.015566063,0.414191175,0.970547813,0
0.005008229,0.316591688,2.690299206,9.332331671,7.318224062,0.014415894,0.729732206,1.418211488,0
0.000601927,0.311006973,2.66868198,9.473672953,7.305148479,0.011524499,0.709961998,2.825816597,0
-0.000723757,0.311145115,2.688562585,9.558348532,7.292300415,0.011307651,0.734230734,5.090986429,0
0.000851552,0.313921423,2.628958496,9.17339032,7.283874239,0.008978942,1.279704071,9.622690812,0
0.000461478,0.314080535,2.632026731,9.214199152,7.275517818,0.010539666,0.50845641,2.710238562,0
0.001836633,0.310135773,2.698197878,9.633743502,7.281097358,0.017313297,0.640316777,-0.043716559,0
0.000339242,0.320697381,2.700521601,9.199065616,7.309137235,0.02599601,0.434360677,-0.438282741,0
0.001272459,0.325388467,2.792519529,9.491470461,7.335711452,0.0244126,-0.165072094,0.463531636,0
-0.000366453,0.326198474,2.928400832,10.15104469,7.339262227,0.01989528,0.558159141,0.723595293,0
-0.000634866,0.31994057,3.065689358,11.05948241,7.319303949,0.021925878,0.172106672,-0.048546495,0
0.002678957,0.30982852,3.094465994,11.60374794,7.29204058,0.019727834,0.643449483,-0.498035138,0
0.002957343,0.309739476,3.101946437,11.64235512,7.270803343,0.012434047,-0.311673002,1.069369548,0
-0.000314412,0.31566447,3.020149883,11.00513326,7.254797527,0.013805231,0.516472993,-0.033982123,0
0.004464778,0.323438952,2.826900666,9.792120844,7.241406196,0.010180829,0.747153827,4.029543224,6
0.001281869,0.313703857,2.865251294,10.38996767,7.237761361,0.010077543,0.250002651,9.206217132,6
-0.00542722,0.311026429,2.983163789,11.05686933,7.237583106,0.010139416,-0.670778571,25.01037425,6
-0.0021465,0.308600576,3.012790281,11.23636415,7.237194661,0.00982461,-0.049425121,22.1647715,6
0.001023945,0.308925477,2.971526326,11.06733828,7.2368236,0.010817808,0.720658192,3.808544875,6
0.006440238,0.309892799,2.917755845,10.78222535,7.238462121,0.010700436,0.739596445,5.926528588,6
7.12E-05,0.300484249,2.955181566,11.38770489,7.239353779,0.009386783,-0.654754582,53.25792139,6
-0.003854272,0.303424541,2.919644531,11.04769598,7.236088889,0.01004635,-4.546608645,149.1555944,6
0.002448813,0.316283464,2.830319984,10.03104675,7.230310767,0.01099348,-2.496015791,81.19145022,6
0.003561238,0.311024703,2.931435028,10.69167658,7.218626186,0.011892078,0.591069436,4.994915424,6
0.004227114,0.310118817,2.937329393,10.78696477,7.211397661,0.008837473,1.498812743,9.935136448,6
-0.00193107,0.306090108,2.885875573,10.72049097,7.208125687,0.009581478,0.760156728,4.363772233,6
-0.003782259,0.305860331,2.893208343,10.8079472,7.20005406,0.010518695,0.437995653,3.900376106,6
0.006006906,0.312629162,2.86174092,10.4061921,7.190993772,0.011021675,0.711964876,3.644055362,0
0.000632799,0.298718132,3.00970694,11.69978509,7.176655742,0.01474622,0.062033083,0.500183038,0
-0.00227674,0.314012705,2.860100193,10.25741548,7.189677211,0.025182909,-0.092978353,-1.300529343,0
0.007084338,0.317870234,2.847167896,9.971042753,7.204106031,0.014367743,0.014184203,0.817468517,0
-0.001179781,0.302391383,3.06395195,11.69642108,7.199429539,0.013895031,0.516539632,1.403161296,0
-0.004040745,0.302886586,3.178015457,12.29441365,7.201668767,0.010724073,0.678036913,2.62946116,0
0.003937088,0.309902697,3.148397005,11.8297059,7.197404371,0.010432773,0.846891335,2.091627841,0
0.006024981,0.310299943,3.030117506,11.20767067,7.200687408,0.020324769,2.411046044,9.843624455,0
0.001485253,0.316060272,2.899139025,10.29776029,7.20352963,0.021609245,1.597433277,6.614431746,0
-0.00644288,0.329215888,2.70180851,9.005815634,7.19885946,0.017339227,0.164467736,-0.034580315,0
-0.002789102,0.329566869,2.69648482,8.997564821,7.200138147,0.016782226,0.346807857,0.254829388,0
0.00396785,0.329464499,2.637846013,8.671194362,7.189190728,0.019636546,0.418505078,-0.004181709,0
-0.001378889,0.321057012,2.655996257,9.072048893,7.163176673,0.017696935,0.048539728,-0.180244074,0
0.001675428,0.33109741,2.614987055,8.537071985,7.143631526,0.013313584,0.769501377,1.508470666,0
0.004767,0.33845995,2.604455356,8.263145383,7.13455816,0.009487208,1.057757591,6.025230282,0
-0.000706506,0.339716106,2.622797888,8.29202294,7.138405773,0.011999756,0.723799162,1.554625827,0
0.002678768,0.346873342,2.438254847,7.244832523,7.144538879,0.014154432,0.652147851,1.035377383,0
0.003299306,0.331702398,2.525333584,8.113741557,7.142126628,0.013796811,1.037037421,2.076552643,0
-0.00505392,0.316285014,2.757842781,9.730440948,7.138455963,0.009282961,1.197960932,5.886053998,0
-0.003632505,0.331165978,2.644994972,8.683673728,7.142214475,0.010150173,1.120613526,6.755854307,0
0.000182151,0.332939164,2.564981188,8.263275799,7.143451527,0.01019389,0.763645674,16.86775359,0
0.001629684,0.329649567,2.628964482,8.647506595,7.136833681,0.010391326,0.643407337,13.54456236,0
0.002730933,0.345160617,2.497851175,7.589244857,7.126211003,0.012099135,0.709739154,2.739773567,0
-1.41E-05,0.343210529,2.395861879,7.174896272,7.116196387,0.009869986,0.945530233,5.577364299,0
0.003106855,0.342151506,2.394724798,7.190438727,7.111997332,0.009520678,1.093063978,7.454628701,0
0.000329923,0.337256254,2.499357201,7.82064385,7.104463904,0.010885324,0.591182459,2.961942469,0
-0.004639925,0.331593442,2.651979546,8.699848327,7.111709377,0.017871569,0.389141386,-0.44598412,0
-0.000778924,0.330787335,2.817715862,9.51716156,7.129463468,0.014126564,-0.154470938,1.777318621,0
0.006344094,0.330155768,2.92610155,10.04133093,7.132960728,0.012442598,0.679715149,1.186146371,0
0.002221573,0.33025749,2.882991918,9.798578871,7.130465862,0.012580925,0.81113052,0.814983238,0
-0.000648285,0.305645899,3.087234486,11.70899343,7.129893112,0.011700323,0.781855289,1.574749696,0
-3.59E-05,0.304773022,3.000994388,11.31869297,7.123021698,0.013084175,0.574229944,1.927333099,0
-0.000623834,0.317479563,2.778440399,9.778452398,7.110658482,0.010831006,1.437629529,9.26942503,0
-0.001391203,0.315600054,2.832644445,10.11732096,7.102884674,0.009844415,1.561216949,12.85868415,0
0.00166505,0.324339321,2.823564375,9.737663062,7.095183672,0.010732849,0.134894054,11.00128446,0
0.001351011,0.334236769,2.780624412,9.182760011,7.098011344,0.01440201,0.670137145,4.421149464,0
-0.003408155,0.327529542,2.934101982,10.15534733,7.11360272,0.014983538,0.114077499,0.934914673,0
0.0006218,0.318169413,3.08735509,11.25070357,7.122304426,0.010375002,0.234801266,11.5593351,0
0.005985051,0.325399429,2.869712306,9.902345814,7.131252507,0.013204031,-0.810418652,17.8134336,0
0.002809577,0.325989382,2.710313885,9.19837267,7.141483852,0.009718326,-1.31256387,58.24022393,0
-0.0005851,0.318685892,2.714223313,9.494713902,7.141558729,0.00933429,1.304798647,7.076769104,0
-0.002169198,0.317486219,2.797397883,9.891085899,7.160655485,0.029428399,0.84654397,-0.505620955,0
-0.003388851,0.334279853,2.60164107,8.459638105,7.167607117,0.050385798,-0.345508465,-0.938185335,0
0.002484231,0.345406857,2.619833532,8.217133289,7.172121974,0.060066257,-0.201050049,-1.37094987,0
-0.000529345,0.317574751,3.082230428,11.27571334,7.21827834,0.046235761,-1.362005948,0.818061471,0
8.11E-05,0.310756812,3.047149733,11.42087008,7.264409365,0.026754943,1.163995498,1.081323975,0
-0.00201108,0.324353999,2.720437112,9.540395563,7.339534324,0.065756642,0.197678012,-1.471892726,0
-0.001157397,0.315238876,2.724873118,9.953178512,7.439994267,0.057827811,-0.139692239,-0.076779721,0
0.002519132,0.30592492,2.95722715,11.23960092,7.524658694,0.049651077,-0.437807545,-1.248954191,0
0.000729061,0.307514034,2.872916566,10.6743108,7.599213627,0.037020152,-0.082380446,-0.947888566,0
0.003854527,0.31985591,2.7898485,9.733339723,7.639250456,0.017035498,-0.583590939,4.100587177,0
0.000559596,0.321110132,2.868623322,10.03106989,7.631725039,0.020946608,-0.113895195,1.519191342,0
-0.002950117,0.315425427,3.008933046,10.97377012,7.605143302,0.019061736,-0.001793956,1.476098889,0
-0.001258549,0.327781015,2.968922708,10.3279445,7.588561412,0.026285082,-0.138921948,0.225599727,0
0.002754214,0.347943274,2.856587926,9.207822993,7.55457889,0.041170389,0.551351342,-0.545583119,0
0.002752409,0.352122879,2.964380986,9.603037797,7.512301254,0.021266542,0.677189813,0.032656129,0
-0.000741067,0.3416286,2.917977187,9.737242991,7.497563934,0.014325498,-0.105162121,5.616718228,0
-8.95E-05,0.332859287,2.89745119,9.940529757,7.498838752,0.013916199,-0.406138305,6.858326879,0
0.001970025,0.337873819,3.046550546,10.40584451,7.494847488,0.014736592,-0.059554353,0.742974508,0
-0.000178619,0.332606596,3.176469341,11.18220911,7.487964085,0.016506848,-0.287312409,0.141299326,0
-0.001599609,0.2988179,3.538802664,14.4328328,7.475540706,0.021319522,0.222694514,-0.493957429,0
0.000654713,0.291569952,3.604222735,15.10702841,7.485516303,0.044213682,1.724826702,2.460821454,0
0.004098509,0.300795409,3.450296841,13.88811324,7.579854529,0.082208911,-0.250889669,-1.475542202,0
0.001030406,0.287873638,3.70114409,15.89656799,7.648651614,0.020757916,-0.005799895,4.310602457,0
-0.003001033,0.287461723,3.613975386,15.54649378,7.648677226,0.01029084,0.357526604,10.26128548,0
0.000434745,0.28102696,3.38819303,14.67774878,7.654775402,0.011422147,0.064761693,1.466943225,0
0.002375002,0.268971197,3.443070944,15.62230992,7.652068874,0.013019016,-0.076897285,0.883143656,0
0.001142931,0.287700491,3.287378613,13.67122697,7.63298814,0.016700624,0.19164641,-0.490589861,0
0.000146033,0.302032148,3.156953529,12.2360603,7.61587519,0.011332945,0.440007868,1.172431974,0
0.004129643,0.281653442,3.345056841,14.25160542,7.605850274,0.011019485,0.872349284,2.201371508,0
0.004429701,0.269492349,3.353815391,15.01579002,7.602655193,0.009728591,1.331700337,7.152150687,0
-0.001877766,0.284707184,3.054051323,12.59188789,7.608818109,0.010385614,0.848807497,4.561258453,0
-0.002320594,0.286100298,3.048146185,12.51366937,7.609918812,0.010276117,0.684880491,3.213450666,0
0.004269496,0.292588406,3.114317701,12.51609924,7.609502193,0.011107755,-0.019000468,10.53018022,0
0.003330152,0.292877973,3.109759995,12.48143987,7.606440135,0.011618522,0.08462456,9.14866857,0
-0.002807837,0.284683458,3.040896689,12.47402349,7.600044141,0.009451687,0.798000597,5.767889669,0
-0.00211634,0.302447428,2.876000595,10.8266387,7.587670408,0.015820158,-0.21436406,0.040129041,0
0.001335362,0.301182367,2.934228838,11.26310761,7.559779031,0.020140835,0.207372307,-0.578217931,0
0.002360099,0.29501677,2.981796966,11.77624775,7.542123304,0.010840801,0.499760799,3.020272659,0
7.17E-05,0.29158852,2.988053861,11.93329144,7.532681547,0.013196091,0.681223746,0.940987747,0
1.40E-05,0.280772636,3.05177531,12.87691917,7.513408606,0.015280234,-0.342387544,5.841516678,0
0.005392116,0.296852366,2.944254063,11.58477035,7.501863262,0.010938244,-0.135457921,20.31293054,0
0.000354433,0.303205073,2.842430376,10.73663595,7.498100281,0.009612071,1.112257599,3.689824088,0
0.000441565,0.302914201,2.850921536,10.79757606,7.493496486,0.009309327,-0.706496859,38.73727407,0
0.005152124,0.303319093,2.797972587,10.56327478,7.502689035,0.018257223,0.62670136,3.095391931,0
-0.000264973,0.303661563,2.76900478,10.37004645,7.512724522,0.015978877,0.383917647,0.244243781,0
-0.003352406,0.289320618,2.873010922,11.52979237,7.513735199,0.012039585,0.527147796,1.826992038,0
-0.00135687,0.281032305,2.848617537,11.90269521,7.507903344,0.012748483,0.674490487,1.657307203,0
0.008606827,0.308443859,2.701366015,9.867670358,7.497555814,0.009945845,1.299036321,4.831739139,0
0.003329551,0.305257577,2.761053015,10.20342234,7.501780919,0.015989722,1.166489198,2.290375693,0
-0.002820949,0.317616282,2.697725701,9.429930441,7.499042892,0.018104306,0.300807412,9.488341721,0
0.00450512,0.322559611,2.541624724,8.502822806,7.502681514,0.017739537,-0.486407166,8.867970421,0
-1.17E-05,0.304644269,2.73597173,10.07762644,7.526115363,0.014315804,-0.272748637,1.682775929,0
-0.005289583,0.32204193,2.660004566,9.092784921,7.540469742,0.010076386,0.218399362,9.940126459,0
-0.000852892,0.318456157,2.647638749,9.196189105,7.547578485,0.00965163,1.032923721,6.00502473,0
0.002619559,0.298617414,2.806544175,10.76099842,7.556105205,0.011601305,0.152071372,8.904289822,0
4.43E-05,0.289937606,2.812259409,11.14260902,7.558767864,0.010342057,-0.013319423,12.84547734,0
0.005040455,0.302059719,2.784297455,10.47748706,7.55388892,0.009124567,1.100750717,4.650466238,0
0.002717488,0.304727694,2.75451404,10.25495689,7.552663585,0.008862182,-0.323280869,40.99345612,0
-0.004868709,0.2921093,2.834471482,11.20990594,7.551139777,0.009114735,-0.276433007,35.60951604,0
-0.000193778,0.293653431,2.80468675,10.97148478,7.549287088,0.008892207,1.293162294,6.832504823,0
0.001577467,0.310820646,2.654968231,9.523767526,7.555024338,0.010488007,0.468117482,2.005310529,0
0.002824768,0.317176619,2.684522809,9.316995207,7.569459643,0.012587544,0.304458258,0.618877845,0
0.002359307,0.293500096,2.955822657,11.55946136,7.584066282,0.011350607,0.581293829,2.420035874,0
-0.00116633,0.27843032,3.092946178,13.13335262,7.585648182,0.010352145,0.876792895,3.77794193,0
-0.000547374,0.278110173,3.087823773,13.13688737,7.576096725,0.010241609,0.594555056,4.373679037,0
0.002073853,0.278853438,3.044410695,12.8836661,7.568118777,0.014053531,-0.496897229,2.479040563,0
0.001707537,0.278849177,3.055262713,12.90723359,7.545096207,0.024901926,0.365383133,-0.995250003,0
0.000378708,0.277877639,3.088234503,13.10625789,7.523040336,0.010026123,0.997446199,5.037642239,0
0.000900768,0.278631573,3.068714431,12.97079975,7.519666399,0.010782111,0.657615201,2.286619732,0
0.002340565,0.277870851,3.069986657,12.96335302,7.526980645,0.014634104,-0.914863274,17.34417938,0
0.002775369,0.277379249,3.096301778,13.08716401,7.53481429,0.010126457,-2.652995573,89.69831746,0
0.001599152,0.293772982,2.986559379,11.67460283,7.533744758,0.00841242,1.115305525,8.254918426,0
0.002340238,0.301945861,3.029418229,11.50902043,7.535773032,0.008196998,1.14017614,8.397911392,0
0.004957162,0.28673739,3.121636238,12.71899905,7.540346582,0.008577548,1.064462271,4.907757601,0
-0.002431471,0.278250679,3.11339579,13.17069412,7.546161543,0.008668789,0.734974433,3.917785596,0
-0.005066705,0.278100655,3.154828304,13.53626763,7.552726037,0.008766919,0.951924453,7.69614182,0
0.006625979,0.29054928,3.01237933,12.08982932,7.554236112,0.00866396,0.566986412,8.922775859,0
0.004252781,0.30279037,2.962378024,11.18741336,7.555816923,0.011920069,0.898987662,1.768606165,0
-0.003935793,0.275939016,3.175203659,13.60120178,7.543708638,0.020033897,0.15027792,1.802251358,0
-0.002008569,0.259431833,3.301698173,15.31437288,7.51687039,0.015077508,0.034812118,4.09432949,0
0.001317117,0.272731122,3.227024141,14.17306657,7.49841156,0.011537697,0.336643396,1.651461147,0
0.002900482,0.273441482,3.197696405,13.98618503,7.485827691,0.010341886,0.870760557,3.735860214,0
0.003288417,0.27946948,3.156306758,13.38658962,7.479239655,0.009240675,1.328584156,7.771615405,0
-0.000449092,0.291789561,3.031550427,12.04425925,7.467969349,0.016184113,-0.409735114,3.050810343,0
-0.001794577,0.285540286,3.101356325,12.70611646,7.444919423,0.017816591,0.379386714,1.976966676,0
0.004245889,0.284394302,3.21003498,13.34609171,7.433501979,0.008550556,-0.007333681,23.88493272,0
0.007299833,0.291904981,2.990643877,11.81975079,7.429320908,0.012500353,0.035773792,1.457029302,0
-0.002222129,0.286817438,2.933637831,11.85121048,7.410479682,0.017524261,0.517360209,0.021535928,0
-0.001214349,0.291650006,3.074234769,12.35498822,7.391329738,0.011146965,0.728286396,3.079050684,0
0.003745455,0.292728054,2.989584789,11.84927062,7.392631858,0.012091823,0.647485234,2.106984279,0
-0.002850606,0.282603558,3.022873323,12.52875968,7.400536019,0.009431865,1.063564943,7.785425918,0
0.004464111,0.287926765,3.070937803,12.48911227,7.405487551,0.011110124,0.756138675,3.149361573,0
0.004844572,0.287871796,3.043840508,12.35726372,7.411057173,0.010330005,0.408247014,3.548425894,0
-0.005046295,0.283255762,3.009799,12.32867398,7.409726116,0.009242558,0.957262963,8.092409683,0
-0.001874621,0.28232678,3.005344617,12.41177447,7.39888698,0.012011363,0.458338445,2.067251863,0
0.00129487,0.27602671,3.137022022,13.53390829,7.386266817,0.009183872,0.778540542,4.333543612,0
0.004479126,0.288930942,3.047712809,12.34637113,7.376769856,0.00999696,0.894393749,5.080496356,0
0.007676631,0.292601497,2.937290609,11.54071712,7.368132945,0.009863642,-0.155977799,31.23878558,0
-0.002664237,0.286120928,2.926735671,11.85715587,7.355960355,0.013198838,-0.414364222,8.925711782,0
-0.000902919,0.296149917,2.937667364,11.49411317,7.340960584,0.011284925,0.523017543,5.213242216,0
0.006068148,0.309800363,2.786105856,10.05957326,7.334682356,0.010245002,1.146948378,5.672242975,0
-0.002386525,0.315000953,2.740182801,9.620067129,7.333480726,0.011353747,0.860445212,6.758398186,0
-0.000417945,0.303720159,2.98976074,11.30501177,7.325135367,0.012555772,0.579208425,3.965154734,0
0.004961046,0.297510957,3.060069628,11.9267022,7.322148078,0.010632246,-0.668908643,27.85570079,0
0.000611147,0.287739857,3.072755903,12.53543719,7.325097874,0.009063498,-1.007565895,56.22419019,0
0.002671129,0.277109403,3.064914887,13.08905557,7.322450529,0.008613189,1.171704946,8.685361136,0
0.004538655,0.280405114,2.977562766,12.46580458,7.316761562,0.010136737,0.665441329,4.44703818,0
-0.003983721,0.280903199,3.003030009,12.7359449,7.31042475,0.009225188,1.022130479,5.412809569,0
-0.004521116,0.28213209,2.980749482,12.48794585,7.311785017,0.009575478,1.141642619,5.027795914,0
-0.000140161,0.281419132,3.021994623,12.55318136,7.309916251,0.012017563,-3.076950869,102.891375,0
0.000591372,0.283182208,3.014174561,12.45664846,7.296169009,0.014008659,-2.082075948,54.99122796,0
0.001496593,0.282397381,3.011851649,12.51798806,7.277804783,0.013894462,-0.009402967,6.671880576,0
0.005460866,0.292443235,2.971418561,11.75412167,7.262201582,0.011451472,0.843592666,5.095984163,0
0.004396493,0.294654885,2.92687954,11.42707058,7.253149196,0.010063184,1.088674411,4.477331206,0
-0.00237168,0.28494102,2.942019006,12.03829308,7.246606009,0.008957108,0.784524846,4.532880252,0
-0.001509626,0.284623794,2.929740812,11.97168215,7.237704195,0.010690428,0.276094553,2.370135271,0
-0.000549571,0.282575667,2.975689612,12.25149681,7.227132416,0.010706286,0.742424989,3.230145538,0
-6.74E-05,0.280780065,3.064044257,12.84145255,7.217085048,0.010149472,0.895061068,3.022261208,0
0.006050714,0.292064028,2.995935006,11.94841732,7.210889707,0.008420776,1.182409301,5.101518437,0
0.006916207,0.296218765,2.864693568,11.07492528,7.210495649,0.008774182,1.130641691,5.329748348,0
-0.002650484,0.284921166,2.917241795,11.8201653,7.218290547,0.012663913,0.702310946,1.145383378,0
-0.004523457,0.295602242,2.974400468,11.56465052,7.229070336,0.011005462,0.353254062,1.94680948,0
0.006358422,0.306784548,2.92153548,10.79256775,7.227051871,0.010743817,0.519486478,1.701286836,0
0.004813719,0.300977503,3.050453919,11.74353896,7.222580392,0.009909902,0.63840839,2.574764018,0
-0.005319678,0.292249368,3.063741065,12.2759723,7.227091708,0.010003319,0.323715759,2.789547205,0
-0.004060573,0.295014882,2.992879952,11.74503569,7.231811305,0.008765617,0.936592984,5.106415539,0
0.00450138,0.300325196,3.050050401,11.87394889,7.227185767,0.010565257,0.722159824,2.535517133,0
0.006624534,0.287626256,3.063239465,12.63750232,7.214709255,0.011685589,0.397513573,2.160017742,0
0.004659066,0.284049331,2.871329285,11.69484417,7.205246081,0.010295414,1.199237187,5.693660235,0
-0.000637423,0.284221752,2.911995855,11.97904551,7.201130513,0.010535801,-3.018349764,116.5664031,0
-0.000761653,0.285950038,2.87309761,11.74943357,7.190814318,0.01429291,-0.980104421,29.27322412,0
0.005272483,0.287873196,2.81902036,11.23071709,7.176890727,0.011266831,-0.271237311,20.07925429,0
-0.000427872,0.284988476,2.907911259,11.90075027,7.170792607,0.009288907,-0.408842367,40.16568755,0
-0.003263508,0.286059497,2.88472066,11.75989192,7.165652847,0.008401804,0.900404631,6.054467964,0
-0.000276777,0.284800559,2.929519294,11.99438579,7.154047993,0.011245694,0.184278936,0.555998105,0
-0.001752849,0.285747806,2.926141379,11.94587875,7.138981628,0.011250188,0.362896748,1.791637782,0
-0.001613414,0.285247153,2.931023953,11.99388899,7.128816768,0.010060882,-0.689649995,28.47736464,0
0.006474485,0.296132565,2.896148943,11.21358556,7.120406669,0.012554342,-0.096071502,10.08672251,0
0.00754834,0.297042876,2.874581325,11.07335041,7.106458991,0.013531563,0.933207609,1.767267962,0
-0.004503734,0.285563878,2.954945964,12.12417496,7.094294466,0.009975497,1.347830732,11.43820285,0
-0.005212182,0.282820835,3.010608002,12.51604942,7.085828509,0.010255027,1.233828601,8.305833256,0
-0.000938167,0.281770751,3.005131058,12.53857288,7.079419436,0.010617501,1.170746556,4.893587239,0
0.002949973,0.302865638,2.733710736,10.16386579,7.087258802,0.019724185,0.862564961,0.313595961,0
0.005498356,0.316774755,2.693488816,9.410076494,7.07610708,0.026243134,0.741876328,-0.476140437,0
0.00264537,0.315742443,2.784569593,9.90971683,7.052709906,0.009136633,1.134225284,6.726997621,0
-0.001113137,0.321130416,2.657070695,9.149060577,7.063117926,0.023857327,1.094384311,0.180036854,0
-0.002002474,0.331475459,2.661393386,8.746292743,7.082391303,0.021037964,-0.379821579,-0.124516948,0
-0.00118978,0.341340376,2.596675614,8.117160931,7.089391218,0.013779776,0.463060642,1.298799317,0
-0.000671513,0.345220709,2.640901675,8.217674353,7.092548752,0.013998526,0.217894759,1.419679373,0
-1.94E-05,0.341037699,2.72372632,8.704885069,7.089527948,0.010965519,0.936192608,5.259720433,0
0.000840846,0.333144994,2.715712785,8.975076652,7.08520971,0.011866592,-0.77869697,34.20910895,0
-0.000681401,0.330189462,2.800283947,9.487789636,7.08493478,0.012874384,-0.731122079,23.51627841,0
-0.001459959,0.340821289,2.716791578,8.761359854,7.109825734,0.031060561,0.381965355,-1.089490897,0
-0.001133299,0.327354209,2.870935414,9.94748981,7.132957785,0.017543822,0.173458656,-0.055927216,0
0.000346246,0.300828391,3.137018911,12.39171777,7.122177342,0.013283845,0.855365209,1.466447903,0
0.007376541,0.31114682,2.971595256,11.01655906,7.115708978,0.00846324,-0.60114753,46.92374585,0
0.002443981,0.315395913,2.831965721,10.19556907,7.12916554,0.015227199,-0.080728165,4.470920719,0
-0.004442453,0.298779003,2.851015872,11.07257888,7.143529837,0.010069492,0.646787787,4.605068171,0
0.000943928,0.310345969,2.868499985,10.6067205,7.140971429,0.010581946,0.8524938,2.851685448,0
0.006682186,0.326867607,2.874922095,9.935991832,7.12513455,0.016104061,-0.714274524,4.402851286,0
0.000967797,0.314922096,3.091170053,11.4370066,7.126856613,0.021687371,0.245297297,0.925172844,0
-0.004677102,0.310729451,3.219447364,12.26535545,7.138095202,0.015581827,0.146083785,0.744331055,0
-0.002533022,0.307298856,3.396281561,13.25905318,7.141289084,0.009539893,0.6599943,7.114384683,0
0.004033532,0.301546982,3.49295815,13.92311876,7.145218113,0.008501132,1.076704005,12.95193627,0
0.006120882,0.277666396,3.651327696,16.05509299,7.143794686,0.008792369,0.807372343,6.031477481,0
-0.002635117,0.257321161,3.804781583,18.54269799,7.139053018,0.00972776,0.834214054,4.442581217,0
-0.003657918,0.261260206,3.710684001,17.7781384,7.131727982,0.008488761,0.867165253,9.161201327,0
0.001437103,0.258554713,3.714509923,17.85785166,7.126918847,0.007655398,0.984478504,8.491292427,4
0.004624603,0.25867419,3.663679161,17.52023478,7.119482095,0.009496204,0.734933916,2.863971796,4
0.006080324,0.257058452,3.740442958,18.09862993,7.10603556,0.010597075,0.369126172,1.345071442,4
-0.002606121,0.264202637,3.606225688,16.91560596,7.099016135,0.008273449,-0.271719239,31.25311828,4
-0.000655302,0.267068321,3.493193988,16.12073361,7.093699319,0.010274745,-0.675775466,26.93717226,4
0.003974278,0.261034,3.667339283,17.48479543,7.082428196,0.009007858,-0.575682836,22.18435006,4
0.002304709,0.259375003,3.769941539,18.14376203,7.077338409,0.007119357,1.395459007,12.82090571,4
0.000397947,0.262365784,3.647312577,17.23605094,7.077364131,0.007501643,1.40589243,15.3967432,4
-0.002082066,0.249148741,3.717554466,18.77631371,7.074682563,0.007652629,1.031077937,10.90893819,4
0.001413712,0.27517438,3.463952898,15.33581589,7.085406494,0.019331752,0.853900758,-0.37556351,4
-0.000560466,0.277858444,3.368423595,14.59642087,7.100045068,0.016857433,0.128648273,-0.249968029,4
0.001969312,0.261708522,3.589990449,16.9450683,7.093869128,0.014035282,1.130880502,1.685688961,4
0.002301453,0.275891851,3.509203622,15.55891017,7.080533872,0.010488435,0.615196526,2.341591874,4
-0.000158962,0.267582396,3.668864907,16.98352327,7.069379262,0.010360124,0.814889524,2.187264356,4
0.003575782,0.274740116,3.503796258,15.56341068,7.06705295,0.010070984,0.792900103,2.851471774,4
0.000925709,0.282980658,3.458338498,14.83359814,7.067485864,0.010561511,-4.11189922,159.7656059,4
-0.002724786,0.274610726,3.634825033,16.35370926,7.06680445,0.009069359,-6.92387084,290.4167891,4
-0.000850028,0.26133924,3.66473051,17.46095783,7.06605993,0.00876689,0.633440929,3.445414309,4
0.006252993,0.272159394,3.586682823,16.16404845,7.068439811,0.012588751,0.907776858,1.349422805,4
0.004326364,0.273393469,3.56220635,15.93269048,7.08330683,0.01453737,-0.418024126,0.015581431,4
-0.003713294,0.267644278,3.48489948,16.02219352,7.092264666,0.007198896,1.555634613,10.77057572,4
0.003369991,0.266944568,3.470826733,15.9614851,7.087588228,0.008745206,1.216942669,7.480982409,4
0.004262486,0.263780125,3.568542279,16.70199098,7.081709943,0.00780224,1.561359454,11.08854643,4
-0.00367409,0.268550191,3.441026433,15.70795302,7.083628736,0.009432696,-1.101328931,44.83439512,4
-0.00161397,0.270000883,3.35162581,15.07962196,7.09084756,0.009480853,-1.639483972,49.72155163,4
-7.70E-05,0.269418363,3.376311208,15.24693846,7.094938006,0.007707053,1.07375456,6.570565678,4
0.001194462,0.26705487,3.497430593,16.03907628,7.097263881,0.00780512,1.227061283,8.220989217,4
0.002159827,0.281426641,3.334980158,14.20879618,7.098587418,0.008755471,0.72283863,5.055339609,4
0.00060126,0.280227597,3.380845732,14.52957872,7.091653279,0.010759099,0.749452826,1.334405794,4
0.004991795,0.275776349,3.481522133,15.33559029,7.086532375,0.008043975,-1.229027647,59.04714759,4
0.002537737,0.28167886,3.250796352,13.80829384,7.092892347,0.009903021,-0.721856787,29.33422923,4
-0.002955257,0.270871696,3.346359748,15.02822789,7.097299957,0.008397858,1.003089545,6.12093585,4
-7.75E-05,0.281721097,3.285256985,13.97356792,7.095231138,0.00904476,1.002182396,5.053723534,4
0.001096704,0.27961606,3.350073847,14.40365448,7.085622896,0.011671837,0.77160498,1.927281441,4
0.0006595,0.27765625,3.403230143,14.80672186,7.081366021,0.009813873,0.913922651,3.868250948,4
0.000682892,0.277566646,3.365210582,14.59001377,7.082487815,0.009595448,0.776220082,3.601661706,4
0.002814717,0.286838444,3.401631544,14.26294924,7.076345389,0.00923924,0.50191297,3.971050716,4
0.002081268,0.289783479,3.354223908,13.85273819,7.073325893,0.00855251,0.945667522,5.804853773,4
7.27E-05,0.261762022,3.713701666,17.56573402,7.075240653,0.007687087,1.277863639,7.726541192,4
-6.32E-05,0.271965134,3.643856693,16.49634008,7.080548096,0.008537859,0.934691599,6.188477409,4
0.000629785,0.288780981,3.239133797,13.28385788,7.089365005,0.00968677,0.806465616,3.494186159,4
0.004743524,0.275987485,3.29002544,14.27156457,7.088278743,0.011654446,-0.667584342,18.23564169,4
0.000917038,0.26169403,3.661695195,17.32930147,7.085225024,0.012865802,-0.292359654,11.47822006,4
-0.002013225,0.277033935,3.436828116,15.00674315,7.094428853,0.013479655,-1.354583831,23.71999533,4
0.001095651,0.277852916,3.373550547,14.62396183,7.095112501,0.010538752,-1.661347089,63.69564413,4
0.002944565,0.273586805,3.512379996,15.64303025,7.098762512,0.012896513,0.286976131,-0.18509748,4
0.003544778,0.278922979,3.283237614,14.05457993,7.111052159,0.009881291,0.57181919,4.993653047,4
0.001297793,0.268823999,3.392370172,15.3277642,7.10562646,0.011867229,0.721305689,2.444568674,4
0.002375166,0.276739947,3.411458121,14.90486532,7.100058855,0.008467367,1.143636427,6.429128033,4
-0.000557157,0.265832003,3.437613794,15.70535441,7.102786582,0.008109507,1.68581329,12.99465333,4
-0.001611884,0.270544601,3.324038995,14.84789055,7.107675171,0.009675082,1.019760188,6.344136102,4
6.96E-05,0.283188477,3.253823058,13.69672283,7.112991987,0.008161929,1.031140133,6.24492884,4
-0.000488277,0.264958295,3.605715428,16.78967565,7.117828533,0.009681995,0.803581973,2.385837708,4
0.00136613,0.28004634,3.338159488,14.32261073,7.126906749,0.010190831,0.526544458,3.71698116,4
0.001359473,0.281445959,3.297599647,14.01770395,7.122368349,0.012595194,0.35191882,0.90567802,4
0.003079075,0.273722598,3.591641793,16.13309862,7.108935438,0.009205198,0.946239367,3.595191286,4
0.002355658,0.277079536,3.358958619,14.58374412,7.109593146,0.009758518,0.984232751,3.999278312,4
-0.000293348,0.268512285,3.359977908,15.10048299,7.117553983,0.01004511,-4.435352934,167.290569,4
-0.000424798,0.278910816,3.394846866,14.71627132,7.121564429,0.009410831,-5.490829918,228.2591334,4
0.005016384,0.28889077,3.323750731,13.7214105,7.121384048,0.008365742,1.382577775,8.232565973,4
0.001679058,0.277429708,3.455652787,15.1151688,7.123908234,0.009550577,1.380887417,5.483840461,4
0.000243465,0.281744886,3.264984069,13.81952635,7.130910982,0.009813791,0.851084162,3.388235571,4
-0.000297821,0.279539016,3.399039472,14.67465735,7.134459959,0.008426177,0.933993872,5.486422859,4
-0.000411536,0.275421876,3.626147593,16.22119163,7.132284164,0.008339141,1.141301265,6.899298532,4
0.002927497,0.286171432,3.525033212,14.94050582,7.133181817,0.008846077,0.774501304,3.380034095,4
-0.001775881,0.291061936,3.344027396,13.75150235,7.137293897,0.009230708,-5.00600887,174.7674777,4
0.003780317,0.29257416,3.201600167,12.98880971,7.134582465,0.010290523,-3.270953421,110.6069451,4
0.004788143,0.279555644,3.356496442,14.52036821,7.131506184,0.009394191,1.114307849,4.913971318,4
-0.002034635,0.284552584,3.174996708,13.23132193,7.137633296,0.011507459,0.553296707,0.885159285,4
0.000196322,0.29345592,3.192361418,12.84380707,7.140626362,0.010259517,0.568360288,3.217375571,4
0.00083005,0.274033428,3.613547658,16.22555451,7.137997709,0.008912679,0.720624859,5.349019059,4
0.000783534,0.274964559,3.524923021,15.70420205,7.144263513,0.010311351,0.518870029,3.27982187,4
0.000402963,0.274465869,3.548783245,15.85469842,7.154031263,0.008978974,1.030643698,7.91848145,4
0.002035289,0.286807595,3.330048457,13.87545757,7.15707659,0.009489922,0.722757679,4.981697614,4
0.006788177,0.288700313,3.267539164,13.41017645,7.14913341,0.011707921,0.826300074,1.545361138,4
-0.002111958,0.278248362,3.346298945,14.46663204,7.140879495,0.008975049,1.002610799,9.41446645,4
-0.004843898,0.276425139,3.428438447,15.05757074,7.134455981,0.010814624,1.001868462,4.959415514,4
0.005886605,0.287632252,3.322755651,13.7934482,7.131550271,0.010924933,1.071511975,3.672009432,4
0.006623199,0.286164562,3.331740267,13.89821957,7.138280923,0.012252911,-1.316089241,22.87504557,4
-0.000782495,0.26711391,3.850380446,17.96135445,7.152333178,0.020201693,1.305628439,6.755348593,4
-0.003299299,0.288315587,3.405809793,14.28511791,7.211054175,0.053865485,0.056050194,-1.55052672,0
-1.81E-05,0.303292419,3.202700439,12.42693686,7.267981393,0.019086454,-0.894351711,0.262459704,0
0.001132795,0.301528361,3.322765839,13.06527077,7.274010413,0.008099846,0.791837878,7.439315065,0
-0.002487481,0.294664595,3.344871263,13.64185286,7.272921426,0.008880929,0.972453336,6.956576104,0
-0.001024299,0.308753361,3.1968263,12.16280609,7.280792073,0.011252063,0.230133702,1.932401964,0
0.0022901,0.319176491,3.07071521,11.07328197,7.290698133,0.008890056,1.084357042,5.995019943,0
0.003465663,0.315320928,3.128444924,11.52043021,7.300785283,0.011423696,0.689954643,2.786265886,0
0.003797333,0.307250107,3.146149776,11.98644244,7.304197475,0.009569273,0.956309027,5.37517769,0
-0.001626395,0.305539035,2.963443625,11.23592944,7.30386358,0.011140371,0.703254035,2.073037936,0
0.000432502,0.30318117,2.970322755,11.39491483,7.308835602,0.010646789,0.411968531,3.25854381,0
0.004144756,0.301408134,3.013948863,11.68236039,7.312799454,0.010494523,0.956153346,4.576805024,0
-0.00057157,0.297517204,2.913973717,11.41373554,7.315855953,0.011232134,0.56230818,3.034776949,0
0.000800603,0.292782388,3.049892081,12.31467785,7.320522472,0.01006661,0.373043549,3.997380696,0
-0.000631066,0.301120363,3.139981124,12.25683627,7.326348223,0.009035671,0.978781668,5.289225508,0
-0.002067123,0.299890147,3.233564185,12.77445941,7.341102709,0.016326537,0.191141127,-0.631165355,0
0.00163487,0.308474302,3.220016277,12.28037561,7.350969696,0.011856012,0.063410785,1.328226101,0
0.003105756,0.320557112,3.078874442,11.09044437,7.342233113,0.012215569,0.031923592,9.561418257,0
0.002237889,0.308205873,3.19126197,12.27812549,7.339623478,0.009275927,-0.593959614,26.83540226,0
0.001802856,0.300629692,3.121762741,12.30962895,7.34568318,0.009685618,1.008814266,3.354749993,0
-0.0017091,0.31387079,2.765826211,10.09213574,7.354689898,0.011353311,0.494993946,1.555563835,0
-0.00102356,0.31558757,2.7587565,10.02970862,7.350707245,0.013885872,0.188584951,0.409584191,0
0.003885263,0.30723448,2.892796143,10.89501786,7.339678792,0.011173364,0.450129874,7.543409544,0
-0.000297219,0.30598365,2.864856904,10.71327776,7.34177475,0.011471263,0.203155234,6.486662914,0
0.006221551,0.312067868,2.700442254,9.67941078,7.348160281,0.010372842,0.601568122,3.697292564,0
0.005606441,0.311162824,2.743773253,9.975242576,7.355780792,0.012595136,0.696198406,3.959562866,0
-0.005358183,0.314124489,2.969396409,10.93215748,7.360793468,0.01143698,0.520654573,6.074796454,0
-0.005835257,0.314339276,2.979961675,11.05218162,7.37266813,0.021290727,0.921694487,-0.263343054,0
0.004209333,0.304223384,2.97596826,11.46663108,7.382009888,0.019559878,0.261595367,-0.58182075,0
0.000720304,0.293077904,3.047076354,12.41579705,7.370813642,0.014828321,0.742431809,0.859017337,0
0.00153173,0.295544108,2.960992601,11.89819023,7.360138757,0.009030078,0.733412519,4.690037804,0
0.001646053,0.298302664,2.886688777,11.37938627,7.364789145,0.010803752,0.6636911,3.242967785,0
-0.002852515,0.297111982,2.934088002,11.68518769,7.373281097,0.009236722,0.9249012,5.426626763,0
0.001929435,0.301950189,2.809003622,10.81956886,7.372986221,0.008994205,1.08152824,5.105255403,0
0.002063043,0.305215136,2.741272128,10.30849079,7.371789714,0.009232294,1.162266652,5.760239657,0
0.001160104,0.298066021,2.893625713,11.33390925,7.372445188,0.00902401,0.278721014,16.09488284,0
-0.003112858,0.28405004,3.000971708,12.6662305,7.371881594,0.008417954,-0.096200478,18.87533262,0
0.000149682,0.285612418,2.942765278,12.35284065,7.363637052,0.013193199,-0.027119663,0.22737026,0
0.004253651,0.297257036,2.883231106,11.47103816,7.351257433,0.010937022,0.850856707,2.541934751,0
0.007598282,0.299785497,2.806667883,10.92766268,7.346719524,0.008814969,1.368911646,8.78766072,0
0.002068052,0.291823808,2.740207547,11.05356715,7.352574594,0.011007974,0.907583003,3.534819743,0
-0.005750512,0.290200945,2.827132292,11.59523457,7.359147045,0.009071993,-0.905544322,50.8297761,0
-0.000501971,0.304603636,2.745948837,10.41748161,7.359346281,0.00910305,-0.478151967,55.71893343,0
0.005481844,0.297067687,2.862386704,11.30816222,7.358405631,0.009754346,-3.930519113,185.9013854,0
-0.003089852,0.282239574,3.033098051,12.89364074,7.36119194,0.010298456,-5.050561455,170.759338,0
-0.002432831,0.302056043,2.825787467,10.83050965,7.362099838,0.009247796,-0.701909115,36.53111839,0
0.002149129,0.300055665,2.842917124,11.05551856,7.353962217,0.009832561,0.757829621,4.201910615,0
0.000379996,0.286770398,2.887267816,12.00244824,7.351341847,0.008531422,0.889375341,6.124345049,0
0.008219631,0.300280218,2.755806977,10.61242145,7.35831059,0.011034659,1.394353947,4.408454912,0
0.000448909,0.313837368,2.715698422,9.795888037,7.378113229,0.019316872,0.29597262,-0.625666726,0
-0.006390741,0.297304586,2.91267766,11.52142171,7.398004368,0.011395929,0.295401865,1.647536279,0
0.001146208,0.283154289,2.999170571,12.7319735,7.396879033,0.009999737,0.840941326,3.50178654,0
0.008134807,0.297808402,2.842925167,11.17347621,7.390734754,0.010553927,1.100588465,4.456991915,0
0.005387061,0.303950675,2.917896619,11.19891579,7.391331209,0.012020883,0.446479623,2.77730235,0
-0.001342399,0.315858663,2.846524894,10.29374499,7.400403758,0.016654713,0.343792244,0.872678282,0
-0.003591947,0.316701878,2.913547819,10.55821148,7.399482346,0.016624884,0.575626128,0.458749042,0
-0.004297642,0.299546316,3.182801152,12.70056051,7.388211005,0.009222703,0.88766064,4.319412149,0
0.001775613,0.303266391,3.007331711,11.70694455,7.38370454,0.009102062,-4.653542531,190.7523109,0
0.000995453,0.307637127,2.842023224,10.75522028,7.381740516,0.009638483,-4.485601628,164.9271895,0
0.001354824,0.300892844,2.929215347,11.48225537,7.384733854,0.012504903,1.269126556,11.17428714,0
-0.000831652,0.304044793,2.841083923,11.04259435,7.43035153,0.045920176,0.123882596,-1.50623826,0
-0.004488857,0.316596066,2.829912729,10.37998904,7.499482128,0.033395221,0.064742769,-1.451965808,0
0.00123897,0.316665673,3.06169478,11.27044427,7.530773381,0.018838638,-1.773150508,4.171794131,3
-0.006873387,0.314257913,3.071180443,11.51752825,7.591923959,0.10589686,1.34561618,0.129991197,3
0.000877703,0.311047245,3.133268995,11.93712171,7.792188481,0.172714572,-0.542114277,-1.225085171,3
0.010356334,0.306253382,3.328745815,12.91348402,7.985765348,0.061364055,-0.50762684,-0.66918349,3
-0.000633486,0.28438825,3.412828076,14.36882086,8.075175803,0.047090367,-0.101333793,-1.018022163,3
0.000538892,0.261181424,3.447946636,15.65988878,8.143274798,0.034321033,-0.342201759,-0.843814041,3
0.003622912,0.269658391,3.438927481,15.09946145,8.184488188,0.018204133,-0.558730755,1.747889689,3
-0.00023414,0.272912397,3.416460197,14.99842562,8.206956373,0.012964545,-0.560008225,13.36802774,3
-0.00144344,0.276133329,3.520071393,15.56582154,8.219413212,0.010137113,-0.326220484,11.25770798,3
0.000973101,0.27393399,3.535526977,15.72763054,8.223511669,0.009791614,-0.198523579,14.40254271,3
0.004391889,0.275041836,3.476093839,15.32581489,8.225035804,0.0097505,0.674777651,2.767793656,3
-0.001169867,0.273102151,3.618764708,16.26250436,8.218860136,0.012521545,-0.460375652,11.08150955,3
-0.004634445,0.273790103,3.615545019,16.22343283,8.215866688,0.011097651,-0.603261052,18.19257951,3
-0.003515135,0.287960782,3.416264863,14.46487217,8.215588488,0.013114098,0.457935912,6.985666618,3
0.000487512,0.297282246,3.31159094,13.35324751,8.235272435,0.030183186,0.543767312,-0.233275534,3
0.00543837,0.281729875,3.461609962,14.7082791,8.273731123,0.024111513,-0.029611251,-0.583246009,3
0.004215022,0.26757586,3.631683458,16.44503524,8.275383868,0.018190876,0.808350943,0.736221343,3
0.004165643,0.264874548,3.710880331,17.15977982,8.254025923,0.011929223,0.455134712,2.972941844,3
-0.000747175,0.257574103,3.607201085,17.11611854,8.239546313,0.011102337,0.355717876,2.237974008,3
-0.00140608,0.261124656,3.52869258,16.39716323,8.226053238,0.011474731,0.70838173,2.148249416,3
-0.000976658,0.257672103,3.699689749,17.63707855,8.204745592,0.018086739,-0.407503933,-0.576956039,3
0.000952201,0.25707007,3.700429046,17.69745611,8.174816404,0.0205727,0.260548908,-0.451511937,3
0.007162465,0.268772523,3.596316279,16.19333188,8.159138325,0.012815214,-2.708494544,73.80473447,3
0.003351222,0.281321468,3.503093924,14.97360634,8.149486542,0.016267592,-1.029996253,24.81379545,3
-0.00391093,0.271602649,3.532182705,15.95801979,8.135182571,0.010880313,0.812785232,1.464479915,3
-0.000537421,0.269642827,3.551962375,16.17693713,8.15882612,0.032815386,0.382734292,-1.393132886,3
0.005407798,0.275454729,3.618207363,15.87432496,8.182464327,0.017604749,-0.491555335,2.207251282,3
-0.001025691,0.264476173,3.763700254,17.44729708,8.176544625,0.009680621,0.728740131,4.456205588,3
-0.001646818,0.266123136,3.752704483,17.38608347,8.167927115,0.013765583,0.158951417,0.674342528,3
0.00245566,0.27016089,3.58465282,16.14894663,8.146054677,0.018826054,0.264658152,-0.618231266,3
0.001764685,0.271515477,3.530036011,15.77195604,8.126915305,0.010568254,0.899084269,4.878349045,3
0.002386224,0.271930981,3.514517865,15.62650654,8.117778288,0.011059869,0.205663608,2.345162101,3
-1.47E-05,0.272179332,3.564471393,15.96644404,8.098028019,0.018897802,0.083532903,-0.419977264,3
-0.001035939,0.273073707,3.558945778,15.89273444,8.074640874,0.013769746,0.388272341,0.330171723,3
-0.000995217,0.262178334,3.556349193,16.52729583,8.058901542,0.012092177,0.447081697,1.028858039,3
0.006262593,0.269706607,3.576285794,16.09151774,8.042364393,0.013386084,0.279611823,0.785132418,3
0.00050063,0.274692718,3.489427875,15.38981997,8.023431233,0.014229546,0.233885683,0.782754429,3
0.001117185,0.273851247,3.478595901,15.31683,8.005838939,0.012840953,0.185169609,2.331617527,3
0.004422285,0.272998557,3.4557166,15.20301405,7.984928295,0.016295732,0.057019206,-0.069936423,3
-0.003025517,0.264017398,3.553904228,16.48555394,7.967020144,0.013826193,-0.362138754,5.804943307,3
-0.001107723,0.260965338,3.674440494,17.41380608,7.947538212,0.019341771,0.462833453,0.272957292,3
0.000576468,0.274875031,3.432220134,15.1390894,7.937242399,0.010139601,0.775441597,2.374165595,3
0.004888393,0.286720366,3.282720586,13.58389663,7.936148998,0.009980277,0.837005749,2.878980159,3
0.000777302,0.27243517,3.522083511,15.65400991,7.927118955,0.009152573,0.24550014,3.575617559,3
-0.00336028,0.274435729,3.539275778,15.71986697,7.916536277,0.012547485,0.063477371,0.474106494,3
0.005930426,0.282868649,3.411136072,14.43516271,7.920930154,0.020697221,0.962105164,0.679071897,3
0.006667027,0.272783838,3.456044357,15.26138317,7.926238414,0.01757377,1.105928588,1.549616286,3
-0.002090914,0.267152893,3.499841256,16.04709932,7.908799417,0.014347322,0.22936848,-0.317336485,3
-0.004167539,0.264114332,3.593855534,16.77460721,7.890666199,0.010506296,0.711973639,3.597209263,3
0.000816735,0.262707531,3.59006993,16.68135088,7.882481766,0.007660003,0.894593543,11.4689765,3
0.006630851,0.274594894,3.440825397,14.99783951,7.877770996,0.009368435,0.220872951,5.314646918,3
-0.000832744,0.276492003,3.434080747,14.96684143,7.865357099,0.013410336,0.268792252,0.836030283,3
0.001233202,0.278300951,3.419454735,14.83813103,7.850375802,0.010903552,0.557771511,2.624405499,3
0.001832696,0.278279645,3.417032761,14.80962837,7.842792565,0.008702193,0.721740877,4.231072755,3
-0.00028624,0.278876676,3.381721956,14.58384968,7.841328539,0.008782719,0.451748045,3.252312351,3
0.001286963,0.277372534,3.438135152,15.07103994,7.830298996,0.014647702,0.020915922,-0.205959724,3
0.002450677,0.274171006,3.466121799,15.42807312,7.815693556,0.013920649,0.166190414,0.453361433,3
0.005884232,0.294502758,3.249303777,13.02949104,7.833702469,0.027117803,0.095383369,-0.974492593,3
-0.00418415,0.292909407,3.391280344,13.83018078,7.851574108,0.015935944,0.40488267,-0.2479374,3
-0.003540992,0.265418026,3.774494995,17.60013232,7.842492676,0.013525112,0.744354531,1.551262793,3
0.001341274,0.250159489,3.945545399,19.81474946,7.830044283,0.013418961,-0.231694491,1.024702147,3
0.005054725,0.265972349,3.649785389,16.76116991,7.815775953,0.01334782,0.34844971,0.685356576,3
0.003337097,0.265278406,3.688311267,16.99408209,7.808017949,0.008906863,0.385716555,6.237029751,3
-0.003375458,0.257770506,3.697652636,17.77123436,7.798670415,0.012778364,0.206829702,0.443984173,3
0.001305058,0.271722673,3.560896229,15.97470045,7.781191145,0.012341247,0.369076945,0.755301654,3
0.002334555,0.269050031,3.6400556,16.49252706,7.774254663,0.008582097,0.836743443,6.481865961,3
-0.001351809,0.256056343,3.731606641,17.94304427,7.777822386,0.00834451,0.996212912,6.81687438,3
0.00507843,0.26515912,3.721101465,17.15014173,7.778088706,0.0083908,1.197246835,6.197335179,3
0.000904953,0.267749053,3.65388826,16.68857031,7.768927165,0.012126056,-0.007560173,1.309674738,3
-0.00250022,0.269278206,3.608356851,16.45430819,7.75328271,0.013728609,-0.299226045,9.983397654,3
0.00091452,0.268273532,3.621614528,16.54608982,7.738767951,0.011449208,-0.121329578,17.22283854,3
0.000414472,0.256451711,3.682566041,17.67726352,7.726872526,0.010019924,-0.76323741,27.36334127,3
0.001643529,0.258461877,3.623586056,17.19766579,7.723692322,0.00826142,-1.58762672,55.80713377,3
0.004889178,0.270858034,3.543664181,15.85538011,7.726801518,0.007585191,0.815373155,7.570788839,3
0.001770728,0.260139002,3.588063067,16.8809399,7.726130567,0.008185039,-1.196191666,67.22215937,3
-0.005597201,0.269805423,3.39331476,15.26096288,7.722826494,0.017599624,-0.033334521,3.770941222,0
0.000570125,0.297670633,3.137752709,12.26928592,7.720414025,0.019723194,0.28956897,0.670548608,0
0.007637669,0.292935125,3.18047843,12.65525474,7.739092854,0.024396287,-0.129739643,-0.618952449,0
0.004251264,0.292021864,3.203532328,12.91180754,7.75684373,0.016310525,0.103021337,0.951152455,0
-0.003892953,0.294460209,3.259415792,13.15981915,7.768393871,0.019331704,-0.206045959,-0.793375609,0
-0.001562871,0.306164907,3.230093679,12.42152228,7.775658689,0.011887427,0.110882385,1.57870944,0
0.000326928,0.304692515,3.229577987,12.45987627,7.77370006,0.010706793,0.363705692,3.33687022,0
0.001430603,0.303176045,3.243673699,12.63733509,7.774189213,0.01007078,0.696459428,5.307193469,0
0.004729895,0.30366637,3.193901812,12.34783953,7.769480024,0.008950574,0.917865423,7.718984346,0
0.000217137,0.295885072,3.179858937,12.6780798,7.76957125,0.008496705,0.790173665,5.700513676,0
-0.001297387,0.302405303,3.031481579,11.65733502,7.76797033,0.009564996,0.855636027,5.129412879,0
0.00011911,0.302629121,3.034654756,11.67363207,7.759415272,0.010568522,0.87039008,4.953525244,0
0.001437692,0.298972711,3.135911283,12.37147357,7.757704054,0.013689777,0.807307737,1.096653499,0
0.00333439,0.298211947,3.137868375,12.3903906,7.756226349,0.014652196,0.852868647,0.962042612,0
0.002105033,0.298728264,3.121840431,12.27632702,7.752853503,0.011486182,0.92127911,4.483045855,0
0.000442723,0.300958016,3.132624163,12.25706719,7.758094515,0.012150838,0.518931145,2.993546273,0
0.002513665,0.297339419,3.252096429,13.05082681,7.752230399,0.013638605,0.482402963,1.139076633,0
0.001481382,0.296419642,3.258807976,13.11979191,7.747667585,0.010064347,0.659732419,5.695367405,0
0.001100019,0.3002044,3.148427253,12.34921975,7.753608813,0.009090371,0.939302102,6.495445159,0
-0.002378821,0.298785019,3.219163843,12.7632823,7.752658463,0.009565545,0.458302357,2.068829517,0
-0.001249459,0.306267696,3.23403942,12.47828853,7.749568503,0.012844283,0.507828656,1.542454298,0
-0.000637286,0.299725709,3.122357389,12.2804243,7.759433038,0.017402731,-0.044870862,-0.079409817,0
-0.001644634,0.295162222,2.986664957,11.85275562,7.764767293,0.011999719,0.784195438,2.439590916,0
0.003889206,0.311896806,2.935721827,10.8998785,7.799570465,0.052753695,0.887363549,-0.568987807,0
-0.000532902,0.315636211,2.880460974,10.55785073,7.953567832,0.126785207,0.122368722,-1.459113606,0
-0.006231007,0.30691489,3.00654427,11.51431473,8.079384341,0.049918029,-1.14190096,1.0788467,0
0.004902394,0.311292356,3.082528399,11.55227504,8.118803515,0.03286037,-0.440238761,-1.06940943,0
0.007647975,0.323228979,2.943486458,10.38415688,8.15626346,0.015418039,0.356934328,0.007962488,0
0.001231901,0.327229112,2.807616736,9.598583527,8.207555607,0.059093882,1.215391487,0.184461781,0
-0.001648479,0.322042465,2.90863515,10.16075334,8.263022014,0.047705655,-0.068601648,-0.909917635,0
-0.004448417,0.314926114,3.101753352,11.43549502,8.252483313,0.032287625,0.742944099,-0.069990336,0
-0.001407381,0.301712353,3.256563117,12.86675691,8.211226,0.020553929,0.108134543,-0.516431727,0
0.003105443,0.284780559,3.514658651,15.06621553,8.187243271,0.016478062,0.075356466,0.310956828,0
0.005485206,0.281175822,3.610830951,15.82524385,8.151092475,0.035854388,-0.18548146,-1.260587436,7
0.001173144,0.283757614,3.551613993,15.40635605,8.109306226,0.023762409,1.392681888,1.402014381,7
-0.002128183,0.272070732,3.656610516,16.77505956,8.090290124,0.011421829,0.14418859,3.068391529,7
-0.001314207,0.27374624,3.58391255,16.22401333,8.084236635,0.010534777,0.609091572,1.968196783,7
0.001253874,0.290809276,3.302378526,13.71972934,8.074881036,0.013688166,0.563879049,0.758574005,7
0.005159853,0.286840846,3.408706024,14.45442094,8.056505912,0.01310672,0.26352891,4.804672932,7
0.000516567,0.278635654,3.405212049,14.93790745,8.042293276,0.010606271,0.34885029,10.98130936,7
0.000747201,0.280513241,3.319498325,14.32504451,8.026425498,0.014716358,0.23211105,0.034736866,7
0.000684566,0.29139782,3.318203204,13.67474159,8.005072839,0.017372306,-0.494114794,0.183270908,7
0.003126349,0.290305635,3.347112125,13.86611895,7.985916628,0.016513521,0.720044244,0.399833614,7
0.00513361,0.287142724,3.426598209,14.47293071,7.965362603,0.015360294,0.080569617,0.28534423,7
-0.004777176,0.281219576,3.396775718,14.71345823,7.939205824,0.018624496,-0.202442229,-0.570275713,7
0.001155062,0.281467364,3.346989245,14.40924836,7.905731692,0.0254223,-0.322109115,-0.753975165,7
0.001321524,0.278943685,3.445242248,15.140641,7.868123245,0.024684105,0.513316347,-0.389863903,7
-0.003870732,0.281157338,3.39385119,14.69871233,7.838364574,0.015791716,-0.097165873,3.135017522,0
0.000991876,0.292441966,3.275935427,13.45177145,7.825737599,0.012981096,-0.165027032,6.745760613,0
0.002858165,0.291064949,3.317923978,13.70372732,7.812853241,0.017088618,0.61688391,0.006699974,0
0.00607162,0.289496998,3.344307951,13.82228809,7.795693098,0.011368879,0.648745975,3.890164589,0
0.000712143,0.279068081,3.36519236,14.65749417,7.783239038,0.01670958,-0.711348942,0.634498939,0
-0.005211809,0.282562128,3.282965298,14.02905163,7.77764413,0.016204254,-0.560009307,3.924316412,0
0.000356088,0.296090004,3.225926503,12.96545899,7.770624052,0.016341986,-0.558896826,3.652939476,0
0.002225209,0.294273652,3.327829496,13.60707176,7.753242438,0.016407929,0.501215643,0.235281686,0
0.001789581,0.290915079,3.384947574,14.06357415,7.755103847,0.017415214,0.407957657,-0.05404852,0
0.00155242,0.278132656,3.449485121,15.21671054,7.758262089,0.015039528,0.576979543,0.442395311,0
0.003590803,0.278504191,3.410585769,15.03294289,7.744935499,0.011224655,0.053680857,4.495600242,0
0.003653229,0.282133709,3.299095023,14.25649604,7.730921664,0.012853276,0.437907598,1.775748556,0
-0.003555594,0.279111456,3.135072412,13.58883126,7.7190488,0.009283104,0.783119234,7.336973584,0
-0.003463597,0.29693876,2.932428275,11.57381916,7.710494178,0.010794116,0.556866978,3.163071658,0
0.004758937,0.301210435,3.027846459,11.83316311,7.698367637,0.013526543,0.215326889,1.052861474,0
0.008766135,0.287863144,3.092642614,12.77483843,7.686705399,0.012272181,0.906316082,1.740394604,0
-0.000851539,0.282722981,2.973615056,12.50864625,7.672220939,0.013110733,0.272291713,0.35917767,0
-0.005029875,0.282394013,3.016978757,12.8101336,7.661099516,0.008749389,0.847243826,4.668037321,0
0.004262205,0.29125216,3.021148726,12.32019575,7.650472478,0.013875337,-0.036848545,0.21717465,0
0.004113477,0.296027989,2.903451609,11.50770425,7.634992708,0.012406932,0.838090856,1.907381467,0
-0.003091925,0.286393719,2.938991845,12.09874127,7.62978096,0.009368404,-0.910540456,50.76188222,0
-0.002122892,0.281936196,3.034081235,12.80474254,7.632697896,0.009089604,-1.089417915,59.39447975,0
0.001095226,0.282762127,2.944943054,12.33181167,7.631690598,0.00969384,0.546163025,4.841951369,0
0.004470272,0.295807407,2.911974694,11.53706028,7.621426501,0.012307411,0.420263004,1.678088258,0
0.003522439,0.300042818,2.826412428,10.90696703,7.614607021,0.009780859,0.299136829,13.66708858,0
0.000318911,0.297833934,2.898373941,11.33923973,7.611190741,0.01013203,0.501483171,12.2236098,0
0.005343175,0.291579674,3.045373984,12.27900989,7.602546147,0.01078098,0.642000645,3.639609027,0
-0.002136507,0.280147287,3.117678832,13.29056017,7.591671971,0.011581514,0.905501378,2.420442641,0
-0.001151524,0.289302992,3.156652956,13.07913158,7.587403652,0.008721609,0.571776763,3.836260723,0
0.002203073,0.302295039,2.956221669,11.33089687,7.597882734,0.01520888,1.036226405,2.130331772,0
-0.002497526,0.291467311,2.982037846,11.99226344,7.591650227,0.01923044,0.818701135,0.472722358,0
-6.64E-05,0.276817106,3.158421249,13.81662893,7.571016966,0.010647232,0.447030068,4.267563528,0
0.007008323,0.290046611,3.024238652,12.30455372,7.560834231,0.010494019,1.310051599,7.521265262,0
0.003505535,0.30069237,3.039085041,11.93053344,7.560662351,0.011518098,0.87153034,3.623904317,0
-0.004898882,0.294553331,2.987415665,11.95104843,7.561214011,0.01083194,0.481820165,1.869684883,0
0.002094223,0.30671358,2.859337831,10.57630154,7.559188788,0.009291593,0.932881636,5.503092357,0
-0.002802861,0.319735426,2.844922649,10.09984486,7.565168762,0.012102342,0.305454945,1.578490265,0
-0.00077247,0.312624235,2.900645955,10.67984336,7.558079038,0.018871251,-0.218532071,-0.544166622,0
0.005768764,0.304384492,3.074311367,11.65569392,7.562817219,0.026203907,0.31082959,-0.960369048,0
0.000229961,0.30282889,3.196505147,12.38932493,7.558021,0.027652447,0.607238302,-0.948870143,0
0.001913328,0.296034697,3.295803755,13.29230489,7.528848158,0.01301627,0.25925396,0.880640947,0
0.000622742,0.259932632,3.577555085,17.01519713,7.515162659,0.011055644,0.9582181,3.2158149,4
-0.00202667,0.245660435,3.687380033,18.89949383,7.506257793,0.010007979,0.457269596,3.167504105,4
0.003766081,0.270651281,3.53371967,16.05217353,7.501668985,0.00960079,0.932077261,5.043913856,4
0.000650783,0.260387914,3.591678793,17.04437973,7.492688588,0.011266516,0.577066522,2.788418636,4
-0.002418477,0.250353346,3.549524214,17.51113231,7.484565353,0.008587896,0.918597279,12.16093538,4
0.005410041,0.260578472,3.524031593,16.59262101,7.476254763,0.011615986,0.419104375,2.890889629,4
0.001813424,0.263594876,3.472231877,16.09429402,7.470140021,0.009241208,1.030314797,5.529393705,4
-0.001854898,0.26658688,3.439397164,15.72122839,7.47778898,0.011758242,0.589437154,1.389276547,4
0.000122275,0.263831987,3.517998579,16.33410365,7.488868005,0.012079873,0.634487647,1.020512757,4
6.72E-05,0.261144458,3.552487309,16.63125528,7.495641654,0.011829133,0.776507278,1.247475271,4
0.004354562,0.273727636,3.455237133,15.26266852,7.493940135,0.011987989,0.53782507,1.551768163,4
0.005495616,0.274654698,3.460771027,15.27992637,7.483615821,0.012286265,0.449616181,0.53742942,4
0.002135559,0.260995372,3.571773774,16.76515483,7.476196671,0.008469446,1.465548158,9.930693508,4
-0.000906778,0.270717544,3.501720982,15.71417695,7.476750892,0.008557482,1.328439959,8.478136062,4
0.001141545,0.269924583,3.545653334,16.00658611,7.465307726,0.017027611,-0.621866993,6.447038829,4
-0.000662077,0.245784882,3.761003132,19.04651998,7.448220498,0.013090068,-0.177801404,16.0053498,4
0.001927244,0.260410305,3.546260966,16.62998713,7.452600752,0.01299325,0.037605173,0.264125065,4
0.00351469,0.271703685,3.491263616,15.56574672,7.460895157,0.008321366,1.129955114,6.666342548,4
-0.001992599,0.263252117,3.509221042,16.31701139,7.462978527,0.009444126,1.013971008,5.286632942,4
-0.001371643,0.266829063,3.366506564,15.29160723,7.463204793,0.010226257,0.873578347,3.770934393,4
-0.000669852,0.262614211,3.510367223,16.3118863,7.458542197,0.009734531,1.520755315,9.537080596,4
0.001233412,0.26068843,3.575190406,16.76017591,7.468207278,0.014955401,0.419155743,0.465015929,4
0.000984558,0.2594398,3.62120705,17.18491938,7.477491651,0.009092351,1.008253627,4.745966733,4
0.003712084,0.273882317,3.45133099,15.2888283,7.469542531,0.011228439,0.193043485,1.993098859,4
0.001233215,0.275146988,3.384097005,14.79473364,7.460913903,0.011434488,0.688471444,2.292996966,4
-0.002333012,0.260544934,3.595075914,16.9256403,7.451879501,0.012630803,-1.045355421,26.29661269,4
0.0017091,0.259626861,3.64702343,17.34368794,7.43428906,0.015524499,-0.182998633,8.189955344,4
0.001178493,0.276077848,3.385061408,14.77017337,7.41961719,0.010000949,0.198007928,2.53857392,4
0.002563758,0.275893721,3.356102547,14.59186628,7.414233889,0.011707691,0.158656709,0.900173438,4
0.002054103,0.261732462,3.511463233,16.40009787,7.420052283,0.013629847,-0.128289821,0.520436257,4
-0.001428308,0.264566654,3.434873142,15.80587004,7.424068396,0.009742321,0.733270426,4.202677692,4
0.000600573,0.277189508,3.290629211,14.14594436,7.41273128,0.013586467,-0.147580795,0.687762921,4
0.001681582,0.275960168,3.342761699,14.46837503,7.403000532,0.012361345,0.722258849,1.212419341,4
0.005307717,0.271030501,3.532318381,15.84110994,7.394793592,0.010644404,0.968081635,3.64878121,4
0.005829934,0.271224351,3.519048881,15.78487249,7.387514605,0.008235315,1.397615025,13.24003972,4
-0.00303309,0.266525681,3.400416995,15.50659928,7.39108587,0.01010962,0.504474944,3.71514925,4
-0.001360748,0.282388585,3.164700736,13.21580348,7.397194454,0.00965586,0.563059126,3.796448768,4
0.005634672,0.276714094,3.308733657,14.24864067,7.394753647,0.009635431,0.924402698,3.412887056,4
-0.001352325,0.265811659,3.40272398,15.54795598,7.393012619,0.008510794,1.397872022,9.434975745,4
-0.004407159,0.269399712,3.310079003,14.84310556,7.38925209,0.010213866,0.962795283,4.397450291,4
0.004804583,0.27612653,3.313124145,14.37721909,7.376671001,0.011520508,0.431898446,1.25863927,4
0.0042683,0.2801171,3.096949189,12.94768452,7.376991326,0.0127581,0.764927996,2.783428342,4
0.001418171,0.264489606,3.322612404,15.06061878,7.377305004,0.011840531,1.180900967,4.199405748,4
-0.000262207,0.278128743,3.216728115,13.68312713,7.371584702,0.00868652,1.183509513,5.83315267,4
0.002340369,0.276803395,3.255175881,13.98404274,7.361531557,0.014789993,0.334701893,-0.090979688,4
0.001778333,0.273639688,3.380066741,14.85169163,7.354283742,0.009943171,0.933679227,4.196386219,4
-0.003921367,0.268593214,3.210549802,14.17169804,7.361307744,0.009875837,1.050024166,5.323485754,4
-0.001344151,0.269932568,3.283393387,14.5438276,7.353504072,0.014236552,0.350291385,0.691646602,4
0.006147949,0.291713973,3.160058181,12.67640867,7.336805507,0.011222788,0.434677,1.230208573,4
0.006220479,0.287758354,3.193095625,12.99755713,7.329848862,0.010310307,0.831796218,4.894993541,4
-0.003869666,0.264944658,3.393724663,15.50248499,7.31968035,0.013416952,0.623621262,1.273460967,4
-0.003038459,0.28371969,3.063498493,12.59283986,7.313654654,0.009700301,1.155502577,8.15512025,4
0.003853716,0.293944805,3.022900666,11.89816672,7.304185377,0.016067234,-0.079625675,6.610521142,4
-2.28E-05,0.265447507,3.438744958,15.8475345,7.285680444,0.010365652,-0.402234779,29.54898304,4
-0.001373219,0.28331736,3.139618707,13.0583027,7.28178493,0.009034886,1.461344365,8.845048576,4
0.002515012,0.281926429,3.129802776,13.03058203,7.278872245,0.01008018,1.119008889,6.009102046,4
-0.000160485,0.265447203,3.373474044,15.42220493,7.273227201,0.00801219,1.366517227,9.014653369,4
1.47E-05,0.281385356,3.13714376,13.11580176,7.267191696,0.009983388,0.484607506,2.528299655,4
0.005715748,0.281442717,3.122300565,13.00854167,7.258492879,0.009419709,0.723108795,4.747330892,4
0.005052272,0.280510676,3.197853791,13.5168921,7.26099047,0.011437884,0.710638575,3.037816671,4
-0.000463394,0.279785929,3.282088551,14.02976157,7.255398451,0.015853923,0.307459706,0.367683417,4
