mean_ecg,std_ecg,skew_ecg,kurt_ecg,mean_eda,std_eda,skew_eda,kurt_eda,Label
0.004351678,0.47804304,0.664135725,2.342119681,1.227940369,0.105724387,1.419955086,1.778175163,0
0.008851547,0.39883164,1.074500913,4.886048232,1.425596346,0.160363919,-0.42227751,-1.641661031,0
-0.00250606,0.222399076,3.978281544,19.38310203,1.581581824,0.02557347,0.354902691,0.304603697,0
-0.010576839,0.227405632,4.785043144,26.06199591,1.599036244,0.017751063,1.023985339,5.395149589,0
-0.003937722,0.234028652,4.938944372,27.10232041,1.598358427,0.01706586,1.265134025,6.116408728,0
0.000909877,0.250049046,4.401956258,22.71314006,1.628658186,0.056234165,1.165089932,-0.072638976,0
0.002641342,0.259215064,4.141954853,20.25799589,1.69111824,0.056676257,-0.800542274,-0.650758254,0
0.001244221,0.259189975,4.27371912,20.82482452,1.718075834,0.018005842,1.362800421,2.368961562,0
0.000558446,0.246657133,4.57558729,23.9637085,1.711602075,0.016304684,1.598570486,3.635912959,0
0.002135795,0.240455527,4.732367937,25.25799119,1.70889146,0.016837285,1.640429146,4.009852966,0
0.00286836,0.233061679,4.838961971,26.55994038,1.709826061,0.016964227,1.509308802,3.276316719,0
0.002287471,0.231290007,4.84512653,26.86329373,1.709004865,0.017136396,1.524537486,3.007542389,0
0.001941814,0.233098095,4.766616677,26.1057778,1.702038138,0.018239705,1.204946614,5.352030941,0
1.00E-04,0.236206766,4.71211713,25.35035702,1.694871793,0.017368291,1.344788162,6.356657835,0
0.000782815,0.235197877,4.7492685,25.7767198,1.688462721,0.017262069,1.401324296,3.812344742,0
0.003031546,0.234237319,4.748357199,25.80930443,1.673462623,0.020855421,0.736160694,1.364368909,0
0.001291874,0.234546569,4.655933054,25.16388857,1.655742863,0.018363646,1.121598217,1.858707568,0
-0.000891142,0.226946087,4.808080516,27.14842092,1.638250569,0.020466622,0.749512159,1.120516044,0
0.001378634,0.226825982,4.879743909,27.55723318,1.616759218,0.021225768,0.784370029,1.175259522,0
0.001045663,0.226992137,4.857268871,27.35084287,1.595125089,0.021221984,0.878117548,1.29042876,0
0.003341825,0.238106718,4.613431188,24.48471088,1.574418804,0.019607719,0.859398134,1.279690066,0
0.001610367,0.238815778,4.601820353,24.43866407,1.558377838,0.01859255,1.043354966,1.621804247,0
0.000193941,0.236957025,4.709221894,25.52266289,1.579031917,0.032508816,0.203755924,-0.835070343,0
0.000954372,0.234958777,4.773928611,26.07273788,1.604196548,0.017770318,1.269489741,2.857727596,0
0.001294458,0.235572502,4.723831643,25.53268221,1.595976857,0.018647919,1.319126213,2.648780516,0
0.002434511,0.236196349,4.668547332,25.10065061,1.582152557,0.019193378,1.163612931,2.284674086,0
0.000372162,0.226200161,4.811972614,27.1761072,1.567201451,0.018918278,1.102818318,1.741162017,0
0.001720295,0.236585941,4.622875332,24.75311082,1.552014487,0.019468633,1.062555546,1.971153632,0
0.001370263,0.236815857,4.668180103,25.04234175,1.534056146,0.020666599,0.968569479,1.757477208,0
0.00133631,0.235777477,4.689178153,25.20487637,1.515443584,0.01924731,1.107071631,2.240442315,0
0.002803057,0.23581064,4.643977106,24.84079269,1.499240385,0.01906309,1.063675875,1.900568398,0
0.00031313,0.226294585,4.852405173,27.43742048,1.483100455,0.019719138,1.019709624,2.295297277,0
2.44E-06,0.226761183,4.833729156,27.31148549,1.468408585,0.018813635,1.14506003,2.586452448,0
0.001331517,0.238078635,4.565316486,24.24698127,1.455403846,0.018867329,1.306253084,2.676923247,0
0.000725634,0.247647775,4.417342811,22.48408851,1.442169516,0.018636036,1.368862071,2.990014886,0
0.002767508,0.246405462,4.484943821,23.06051898,1.429095949,0.018329886,1.319594672,2.416634281,0
0.001748618,0.235728622,4.677517444,25.27031606,1.416025216,0.018246241,1.259517566,2.43810078,0
0.000927213,0.235140876,4.639825677,24.95589749,1.404576492,0.017969457,1.337165124,2.80537289,0
0.001634772,0.236154503,4.632586121,24.83135117,1.395465142,0.017572794,1.501333213,3.412535451,0
0.001265965,0.236541049,4.659013613,25.04637973,1.387503815,0.017587987,1.460181058,3.349449916,0
0.002564915,0.234675403,4.661998191,25.21982178,1.379289191,0.018163997,1.266444713,3.794643113,0
0.001368628,0.231354708,4.698637541,25.69464483,1.371184322,0.018414797,1.285804124,3.138952222,0
0.001431728,0.242374754,4.524031972,23.45656786,1.363261741,0.018760912,1.130680917,4.692668429,0
0.001855682,0.246024459,4.477247922,22.96831021,1.354604612,0.017985986,1.101877429,4.623970123,0
0.001203114,0.243761326,4.550856379,23.54548609,1.3472532,0.017209952,1.24628005,5.851292526,0
0.000382383,0.230867942,4.82382174,26.54376182,1.34107617,0.017104959,1.361659353,6.188496425,0
0.002039193,0.233414455,4.741996658,25.89254699,1.335311563,0.016943919,1.655615728,3.783054234,0
0.001233582,0.245798134,4.492076995,23.06058549,1.329562923,0.016982484,1.629159922,3.571748708,0
1.34E-05,0.245083565,4.484550492,23.16346919,1.324466324,0.017074302,1.702923563,3.970517897,0
0.00668044,0.242503975,4.545712304,23.56807497,1.32084307,0.017453264,1.632733498,3.487139429,0
0.001626657,0.243923725,4.518382273,23.47218142,1.318451091,0.017407569,1.578387744,3.075190843,0
-0.003300025,0.238745582,4.511915024,24.37555592,1.315443638,0.017277723,1.572231112,3.150453531,0
0.000389903,0.230574931,4.630035093,25.78129501,1.310613523,0.016899599,1.567464233,3.252636206,0
0.000420266,0.229152162,4.739668361,26.57811087,1.307216808,0.016926955,1.711077246,3.858378824,0
0.001059644,0.237812308,4.568015436,24.50914698,1.305151912,0.016983805,1.3815936,6.014936403,0
0.001376665,0.250635055,4.243238876,21.41346652,1.303073611,0.017325389,1.231725267,4.987389976,0
0.001443989,0.24908116,4.271382327,21.64329954,1.291576876,0.020372619,0.961749106,1.549546542,0
0.000528227,0.244976311,4.516797228,23.27443822,1.280354745,0.017121467,1.559760026,3.616513588,1
0.004208542,0.255494979,4.44134002,21.7146766,1.277210672,0.017161449,1.596670784,3.422141123,1
0.001958313,0.245418046,4.642250696,23.79317864,1.270456314,0.017701874,1.458245618,2.726395356,1
-0.001323284,0.224063204,5.081253055,29.15806001,1.266657203,0.017469614,1.592927585,3.119270514,1
0.000811105,0.234354925,4.862250969,26.50343864,1.266047124,0.01769908,1.513783832,3.081543826,1
0.002033059,0.244796935,4.656825877,24.04987774,1.263813182,0.017417462,1.541002761,3.121903086,1
0.003242608,0.242679724,4.679070293,24.21874639,1.262402289,0.016648193,1.647144936,3.479661202,1
0.001587197,0.244314785,4.66885241,23.96627942,1.263327244,0.017082547,1.675443013,3.917075299,1
0.002118105,0.243025825,4.711878672,24.32914342,1.263559287,0.017488223,1.630548639,3.634298432,1
0.001745126,0.234749433,4.752336097,25.24171274,1.262448665,0.017278181,1.644875828,3.687083675,1
-0.000266294,0.238483119,4.66543973,24.49700743,1.262421581,0.01707808,1.701002415,4.283449526,1
0.001766739,0.241261002,4.665200996,24.3250971,1.262022836,0.016683972,1.681487825,3.96472121,1
0.000751426,0.229777543,4.847989054,26.81575461,1.261349433,0.016688373,1.640145642,3.574400228,1
-0.00054209,0.223275285,4.930852642,28.23506956,1.261081205,0.016954645,1.558597158,3.246122104,1
0.001149608,0.225202117,4.86026895,27.46277969,1.262506376,0.017025527,1.531600539,2.946862031,1
0.000346337,0.226067096,4.838244221,27.25070284,1.264110783,0.016841547,1.532786969,2.974549531,1
0.003449818,0.225592009,4.829197973,27.11919358,1.263973836,0.016980401,1.533873234,2.979660858,1
0.003250534,0.225452087,4.90198461,27.57085033,1.263122559,0.017414666,1.606370424,3.251268285,1
-0.00218437,0.226365335,4.919120037,27.66556578,1.262503324,0.017497968,1.621430358,3.350641059,1
0.001319183,0.235283336,4.720516783,25.31007303,1.261557552,0.01769183,0.932487308,12.62580905,1
0.004646726,0.235103546,4.756633357,25.59955171,1.259928567,0.017374142,0.964594569,13.62163413,1
0.001776005,0.22425293,4.999224512,28.4763947,1.258934675,0.017122699,1.794816028,4.486185534,1
0.00175963,0.224666421,4.931550858,27.8840402,1.259049988,0.017326157,1.726083952,3.805158041,1
0.001885914,0.226061268,4.883489761,27.40597065,1.258228248,0.017293168,1.608826922,3.129636188,1
-0.001265357,0.22516236,4.954672579,28.06921169,1.256473105,0.016644168,1.582601705,3.406706331,1
0.000992556,0.23533338,4.769800466,25.72811058,1.255971309,0.016628887,1.655945041,4.16848965,1
0.002117732,0.235554151,4.771039052,25.65437264,1.255583136,0.017128256,1.645287315,4.04794573,1
0.001183469,0.225002599,4.994156954,28.19295553,1.255104719,0.01666387,1.609351754,3.707652806,1
0.003542921,0.224455792,5.010084421,28.35123077,1.255065809,0.0169264,0.973457725,13.56583768,1
-8.55E-05,0.215385315,5.182355867,30.89738921,1.254785429,0.017643117,0.250452051,24.08241126,1
-0.002043477,0.216116043,5.170039025,30.76466082,1.254243142,0.017555341,0.865419014,15.82190873,1
0.000385633,0.225722694,4.971041813,28.05126424,1.25314173,0.017077371,1.673514647,3.535891462,1
0.001685564,0.226345463,4.941176987,27.82208786,1.251814869,0.016769197,1.677826361,3.78646808,1
0.001897032,0.226329381,4.937159052,27.85104798,1.250837163,0.016818138,1.758645826,4.524848529,1
0.001173281,0.226323616,4.939040332,27.83219363,1.250719179,0.0168336,1.716589674,4.184633833,1
0.001801045,0.226461262,4.937675925,27.82141102,1.251464135,0.016798961,1.536158482,2.961858464,1
0.001854597,0.227201095,4.883877887,27.38326696,1.251894815,0.016873779,1.579134974,3.264540298,1
0.000627842,0.228768092,4.865638045,27.07815564,1.252694757,0.016786319,1.657335563,3.533361304,1
0.000936369,0.228156282,4.888508894,27.37941899,1.252559117,0.016763806,1.659209764,3.723868274,1
0.002983919,0.226647324,4.870751902,27.32301682,1.251483427,0.017383007,1.65011829,4.108572938,1
0.003513179,0.225981229,4.900304753,27.48536031,1.250486592,0.017480827,1.644378265,3.914153689,1
0.001478243,0.225756479,4.950595597,27.90693274,1.250202887,0.017251542,1.621558914,3.31148973,1
0.001201623,0.225635678,4.963378794,28.02330385,1.250683049,0.017222996,1.680996087,3.700637237,1
0.003061131,0.224064267,5.016034218,28.53716718,1.252010563,0.017171128,1.685616883,3.805706115,1
-0.0005303,0.216158299,5.133521039,30.52460932,1.253522001,0.017144767,1.613460867,3.149190376,1
-0.001740156,0.218185102,5.045949558,29.69488558,1.253145218,0.01684262,1.712765095,3.514001743,1
0.001695275,0.226534716,4.929784647,27.67811102,1.252771269,0.016776397,1.768668932,4.153876395,1
0.001555402,0.226573967,4.927886904,27.63777317,1.252994592,0.017288119,1.231616725,10.73442685,1
0.002298301,0.225680074,4.969695569,27.98435481,1.25407753,0.017369971,1.128796055,10.65275778,1
0.002771517,0.226298493,4.945265913,27.71214976,1.255575562,0.01704949,1.591025357,4.390174696,1
0.001145442,0.227857158,4.895782202,27.24227397,1.257132285,0.01720239,1.576145181,4.086201207,1
-0.000713346,0.226362993,4.949146263,27.89120197,1.257522202,0.017283199,1.142337166,7.23696172,1
1.35E-05,0.225623374,4.976589045,28.27797661,1.256573759,0.017112833,1.168910875,7.470606652,1
0.002119282,0.225612632,4.973427749,28.21497773,1.256477683,0.017302413,1.103749488,7.948068172,1
0.001734283,0.225866147,4.927126386,27.75430446,1.256998934,0.017445494,1.175411383,7.585426087,1
0.000331781,0.227263964,4.895128208,27.37611973,1.257752064,0.017092435,1.655269416,3.671631097,1
0.000807508,0.229705326,4.850097907,26.86642178,1.25880661,0.01672405,1.517044194,3.59248914,1
0.002551987,0.229488455,4.887905629,27.14982951,1.258712769,0.016800356,1.474541573,3.255491149,1
0.002549979,0.226897557,4.930676458,27.65433286,1.257983398,0.017174077,1.586426888,3.474271421,1
0.001381949,0.22659806,4.930459487,27.66705325,1.258761106,0.017519664,1.722244025,4.252040688,1
0.002673915,0.225974557,4.971432741,27.96043523,1.259599086,0.017289693,1.720155457,4.113339088,1
0.00094659,0.21464777,5.185049454,30.92337784,1.259980992,0.01713427,1.016209873,11.36248926,1
-0.000854324,0.216350615,5.129029755,30.4109198,1.260821588,0.017387734,1.061553473,11.09862325,1
0.001001476,0.228466997,4.874624851,27.14273495,1.260902623,0.017358026,1.739075563,4.182718951,1
0.00263496,0.227677363,4.906717242,27.43053927,1.260328565,0.017570764,1.856222193,5.003686929,1
0.003795319,0.226981291,4.904912586,27.43816339,1.259620067,0.017349331,1.871439367,4.651314241,1
0.002242009,0.226432197,4.936998983,27.67126471,1.258319419,0.016758102,1.813568542,4.104538875,1
-0.000375419,0.21624663,5.180232582,30.7661438,1.257624871,0.017041414,1.40735254,7.646131692,1
-0.000499845,0.216811476,5.118163194,30.26787845,1.257592882,0.017323219,1.07895129,11.10926164,1
0.001843643,0.226399112,4.900034951,27.42651656,1.257723618,0.017057052,1.395039883,7.737076398,1
0.001530611,0.226822347,4.913661095,27.54748828,1.257945415,0.017062597,1.334493197,6.684137464,1
0.001936687,0.227456304,4.899581439,27.41487684,1.258301272,0.016974762,1.274204889,6.615092747,1
0.000973716,0.226904215,4.893019591,27.41718706,1.258446721,0.017103803,1.368973834,5.616348985,1
0.003078526,0.23605745,4.754207498,25.41117733,1.258159583,0.016865309,1.461949355,6.891125402,1
0.003132608,0.237228542,4.724624421,25.1319225,1.258468519,0.016631044,1.734136113,4.66149706,1
-0.00222566,0.22733932,4.920492492,27.65221899,1.25778329,0.01731436,1.428272821,2.91713673,1
0.000893836,0.235753098,4.74944114,25.41991533,1.256607274,0.01717484,1.50544968,3.161551123,1
0.00171031,0.245443821,4.557023708,23.20557145,1.256713758,0.016952138,1.648659973,3.788304519,1
0.001119167,0.244395666,4.597280437,23.6589345,1.256028312,0.017027054,1.533971351,3.358044215,1
0.001933214,0.233959547,4.822867077,26.19849661,1.254535784,0.01681064,1.633792908,3.517547188,1
0.00163062,0.234181422,4.857007854,26.32623966,1.253987013,0.017145387,1.674166654,3.799964676,1
0.001342405,0.234255018,4.843243709,26.10297073,1.254254641,0.017257641,1.638572469,3.852566687,1
0.000337731,0.224243701,5.00911357,28.27156358,1.254836764,0.017549803,1.206743657,8.423415071,1
0.002330887,0.234953525,4.786868797,25.66017545,1.254957036,0.017685053,1.228823741,8.195530854,1
0.003275011,0.235628785,4.803722331,25.76834835,1.254066195,0.017045426,1.678936489,3.555212735,1
0.00120042,0.22607772,5.005400987,28.20133186,1.253662709,0.016776996,1.732627973,4.031729284,1
0.000681558,0.223492903,4.985291702,28.50325733,1.255210876,0.017040781,0.802630154,16.99969473,1
0.000239809,0.216628722,5.12611526,30.32829561,1.25728302,0.017254871,0.828083293,16.72680854,1
0.000502206,0.23011989,4.889731754,26.84900848,1.257110051,0.0170278,1.755816264,4.316074853,1
0.002791279,0.236081776,4.768715828,25.36348765,1.256006513,0.016851606,1.721442012,3.920008599,1
0.00050441,0.214697765,5.226129716,31.18233831,1.255907876,0.016936242,1.646921725,3.319655705,1
5.45E-05,0.215170756,5.197278813,30.99976466,1.256926346,0.016788508,1.558785251,2.98811376,1
0.001670622,0.227592546,4.892890134,27.30395219,1.258112281,0.016793146,1.585882916,3.37280936,1
0.000704197,0.216146903,5.166186574,30.6711722,1.259494781,0.016979309,1.732054976,4.179152901,1
0.002521336,0.214143192,5.258300697,31.44800943,1.260817773,0.017012178,1.779131825,4.248961686,1
0.001531651,0.215436866,5.195446281,30.91315082,1.260825457,0.017118022,1.596079021,3.664314583,1
0.00066874,0.217527859,5.132176119,30.24262204,1.2600314,0.01677071,1.561715521,3.49887915,1
0.002997947,0.227781119,4.939621336,27.51642102,1.260134833,0.017103707,0.487136033,22.59957714,1
0.0005121,0.216066024,5.196598925,30.86563861,1.260566929,0.017266014,0.535404996,22.64426382,1
0.001308982,0.216641266,5.148585767,30.45993083,1.260566548,0.016701417,1.647176345,4.459460633,1
0.002913404,0.227402174,4.940293364,27.59619274,1.260517992,0.016638404,1.683823789,4.023032785,1
0.00164362,0.22608038,4.981464179,27.9961688,1.260705076,0.017011444,1.803135167,4.996109706,1
0.000910924,0.226160144,4.95362949,27.80734738,1.261223275,0.017118144,1.810111502,5.116698263,1
-0.000423896,0.228019524,4.88166105,27.1557022,1.262052427,0.017114774,1.681237533,4.048670506,1
0.000164206,0.227259837,4.905936675,27.38348462,1.26347956,0.017064869,1.615979117,3.526513479,1
0.001879323,0.228511958,4.887893744,27.22248915,1.265429361,0.017116155,1.631648744,3.737945996,1
0.000998271,0.228293256,4.902435635,27.35490225,1.266764832,0.017200443,1.688428254,4.030227526,1
0.002852849,0.225274415,5.019989663,28.37077946,1.26668287,0.016905401,1.741163077,4.383617489,1
0.000862237,0.214966573,5.255305829,31.42549193,1.267614746,0.0169677,1.361615927,6.439475324,1
-0.000927612,0.215982491,5.211417442,31.02794972,1.269037792,0.017088848,1.349159382,5.981650766,1
0.002217453,0.225958033,4.992967713,28.13578195,1.269341714,0.016965792,1.691144864,3.991937996,1
0.002494256,0.224902113,5.03769895,28.5528331,1.269317736,0.017250844,1.379863776,6.329449991,1
0.003072484,0.225153371,5.034296794,28.57806733,1.269426509,0.017381166,1.342531313,5.822003837,1
0.002147853,0.226490261,4.952552814,27.8579009,1.269374248,0.017004254,1.636348288,3.547700112,1
-0.00089859,0.226815125,4.909313661,27.66936346,1.27115375,0.017272191,1.646961193,4.073917841,1
0.000306061,0.245623861,4.544426991,23.33657815,1.274146434,0.017294479,1.669383347,3.965175768,1
0.00302589,0.253768416,4.383829394,21.63667549,1.275584521,0.017089499,1.613832628,3.223496377,1
0.001107513,0.241658681,4.603724117,24.00792636,1.275723485,0.017063567,1.549428911,3.269560131,1
0.000261573,0.240232144,4.683626683,24.47773799,1.27520365,0.01724674,1.621107838,3.650183416,1
0.002322497,0.241860028,4.702207304,24.53846206,1.275056621,0.017392379,0.966614911,12.08452179,1
0.001807938,0.243991204,4.694456274,24.30850875,1.277054432,0.017413335,0.883289978,12.01846785,1
0.000415447,0.235450304,4.825778996,26.03160031,1.279419599,0.01698256,1.623696506,3.340258672,1
0.00190758,0.226101061,4.949728441,27.85341457,1.279869189,0.016671386,1.633488071,3.414662308,1
0.000743905,0.214731911,5.195843124,30.99320448,1.280138561,0.017065927,1.719519226,4.3802179,1
0.0003558,0.214398301,5.186062267,30.90008324,1.28042063,0.017290141,1.7119511,4.295752913,1
0.002681874,0.225651658,4.905900409,27.53744939,1.280846732,0.016758652,1.630442652,3.578342706,1
0.003833215,0.225640577,4.937842815,27.77075687,1.281564931,0.016817454,1.279345521,7.549131391,1
8.11E-06,0.215131024,5.159290478,30.66465401,1.282198988,0.017096341,1.290349813,7.663344751,1
-0.001050326,0.203598157,5.398930192,34.20092745,1.282678005,0.017257128,1.68374453,4.188375472,1
0.001936778,0.215169884,5.137368575,30.52605907,1.28261043,0.017155461,1.650754318,3.833720708,1
0.001027405,0.215439657,5.141097671,30.58912376,1.281771742,0.016938494,1.54569841,3.941142382,1
0.000775471,0.215095154,5.171278452,30.87835308,1.281362479,0.017170303,1.56619311,4.006424508,1
0.003326444,0.224948719,4.922929306,27.71367533,1.282246508,0.017233532,1.686500522,4.308257577,1
0.002725643,0.224888789,4.956046592,27.93355071,1.283883885,0.017015156,1.660994637,4.101729152,1
-0.00019916,0.215138743,5.210778548,31.08857722,1.284771184,0.016741846,1.597974749,3.488611195,1
0.000316871,0.214942661,5.200049705,30.93419367,1.285163661,0.016614323,1.603651515,3.510855667,1
0.000887342,0.224888554,4.952425414,27.7401729,1.286168834,0.016462165,1.647898884,3.720691549,1
0.000445927,0.225525992,4.944734232,27.69022653,1.286277553,0.016696607,1.666639928,3.75429011,1
0.003053264,0.226414795,4.904809206,27.34214373,1.285685076,0.016839869,1.583933426,3.675448168,1
0.001444172,0.226242262,4.917650707,27.45967438,1.28607799,0.016696788,1.617948987,3.947282766,1
0.000399804,0.226558419,4.988939698,28.07329992,1.286806597,0.016785733,1.767179358,4.36156668,1
0.001734996,0.214745885,5.266466032,31.55345813,1.287255696,0.017189702,1.559596588,5.237905243,1
0.000375235,0.214900789,5.204148234,31.01331509,1.287149266,0.017242285,1.483572008,4.784005058,1
0.000781821,0.227193775,4.929262905,27.51001323,1.286614554,0.016929741,1.690365269,3.678345004,1
0.00080193,0.226330449,4.986231591,27.98419603,1.285981533,0.016993319,1.713982851,3.976238571,1
0.001968528,0.226131733,4.976873568,27.99486715,1.285136305,0.017405215,0.080741048,33.33500467,1
0.002113017,0.21509535,5.215133521,31.14270836,1.28479053,0.017194936,-0.015849599,34.41346752,1
0.000928848,0.214750377,5.246173293,31.30342415,1.285051509,0.017411766,0.489783638,23.88213089,1
0.002454588,0.225676434,5.008570853,28.16954514,1.285465676,0.017397918,0.517938502,24.38792117,1
0.003483313,0.226324934,4.961507944,27.88631782,1.28542148,0.016567148,1.661050506,3.817308162,1
-0.000284376,0.216178833,5.202040211,30.96919411,1.286424691,0.016454724,1.540722138,3.205976648,1
-0.000765132,0.215717268,5.244638822,31.26371561,1.287892042,0.016268888,1.551440791,3.612394129,1
0.004184902,0.234919747,4.833614491,25.95234741,1.288130678,0.016530848,0.91847775,12.55150793,1
0.001213571,0.22604211,4.996307104,28.07866746,1.28793602,0.016883668,1.030599761,12.15230823,1
-0.000547191,0.228569324,4.897227271,27.15994917,1.287870026,0.017444674,1.658215024,3.65506878,1
0.003392081,0.235670092,4.758631949,25.36483422,1.287087468,0.017445777,1.675369859,4.39459234,1
0.003387046,0.223246503,5.054053759,28.67735891,1.286479242,0.016945911,1.764107082,4.952323105,1
-0.00023015,0.21328172,5.284998673,31.62659953,1.286920221,0.017031482,1.605082957,3.417998339,1
0.000630877,0.213637214,5.253293924,31.38151322,1.287428611,0.017191275,1.61314037,3.599409547,1
0.002061898,0.223646066,5.050550773,28.63498754,1.287234225,0.017127839,1.694020277,4.230427588,1
0.000869574,0.214022506,5.200003204,31.02521985,1.28755564,0.016930654,1.580176828,4.447310949,1
0.000471307,0.216661603,5.119981897,30.16339725,1.288680158,0.016624457,1.576967856,4.417597544,1
0.0018294,0.226790928,4.964563617,27.70392189,1.288840321,0.016451673,1.646928627,4.026703501,1
0.002586319,0.226911028,4.977130085,27.79927095,1.289513615,0.017140096,1.689948302,3.635676818,1
-0.000389171,0.217171643,5.19156336,30.6980072,1.289732579,0.016863021,1.64662145,3.863015769,1
-0.000263521,0.216304393,5.206463057,30.86837269,1.289753614,0.016445957,1.423020222,5.32227915,1
0.002714964,0.225980312,5.003461437,28.07979141,1.290459878,0.016714958,1.474275529,5.197252933,1
0.001547124,0.214716778,5.24863249,31.29619682,1.29035323,0.0167705,1.620798973,4.028830701,1
-0.000440297,0.203751271,5.47838944,34.71007452,1.290511594,0.016931893,1.613734453,3.927037188,1
0.001836914,0.215163495,5.201637783,30.86447168,1.290961947,0.016844181,1.687931586,4.190682274,1
0.004423998,0.225257829,5.005088953,28.10213583,1.291352844,0.016846893,1.730821594,4.377342458,1
0.00067322,0.215216933,5.199302727,30.91191606,1.291610064,0.016826465,1.713299266,4.011907183,1
-0.000208642,0.215622289,5.150438499,30.54418388,1.29162723,0.016995364,1.731174222,3.767342123,1
0.004231155,0.22579068,4.953110604,27.75337727,1.292046411,0.017187724,1.707836029,3.735867241,1
-0.000360855,0.216041819,5.177122793,30.70489096,1.292341287,0.017135746,1.17443237,8.39057985,1
-0.001414575,0.216347566,5.185238384,30.76920104,1.292529787,0.016844143,1.177601198,9.224670201,1
0.003658421,0.226061905,4.969020261,27.82519643,1.292710658,0.016610564,1.666467102,4.154103839,1
0.001156566,0.214731802,5.198194931,30.9029295,1.292706299,0.016639096,1.733755215,4.443384306,1
0.00021923,0.226602887,4.969968221,27.9025698,1.29324319,0.01661087,1.789922755,4.62732032,1
0.003053781,0.238296307,4.728890754,25.03924298,1.293600573,0.01684641,1.67359226,3.895041611,1
0.001463268,0.238563808,4.708026828,24.85870582,1.29432809,0.017037858,1.641737968,4.078300764,1
0.001021578,0.246716089,4.598861167,23.33027314,1.29561021,0.016937866,1.525662146,5.743460783,1
-0.000549159,0.247517759,4.58895367,23.44161577,1.296889387,0.016778059,1.511761752,5.65466341,1
0.001638284,0.246184771,4.541233924,23.14165509,1.298463821,0.016908118,1.728203796,4.78503468,1
0.001553035,0.234314163,4.750562471,25.42878456,1.299292973,0.016798791,1.770031921,4.944995845,1
0.002751611,0.233794463,4.819092031,25.89093866,1.299666541,0.016451292,1.68613354,4.047458181,1
0.004045794,0.236299876,4.626576574,24.44063367,1.303639112,0.018725788,1.517842474,2.85252404,1
-0.00180338,0.23895872,4.51303836,23.83373083,1.306769889,0.019144653,1.260650432,2.321749666,1
-0.001221398,0.253650079,4.44669504,22.03240341,1.308504868,0.0179395,1.010155813,4.966800195,1
0.002406934,0.242994575,4.727070362,24.54287345,1.31245297,0.016493363,1.292579841,7.133017895,1
0.002823807,0.227546282,4.967899383,27.53993546,1.316134262,0.016415057,1.418051245,8.113910972,1
0.001520521,0.227137576,4.862554153,27.11833653,1.320263835,0.017909599,1.392979481,6.673257121,1
-0.001005962,0.232978395,4.780438151,26.36789344,1.326553672,0.018208503,1.432578218,2.976932951,1
0.000603516,0.243714894,4.664851759,24.35553613,1.331804875,0.016991675,1.580552376,3.517198614,1
0.002838324,0.228230588,4.963644058,27.73224269,1.332745089,0.016832076,1.672559464,3.968920771,1
0.002599921,0.227515428,4.954843929,27.76815264,1.333544431,0.016787534,1.721615902,3.952502211,1
-0.000119862,0.225929918,5.018269818,28.52437922,1.333697019,0.016673477,1.773274417,4.409521171,1
-0.001137543,0.217011176,5.273543506,31.35111868,1.331924329,0.016589047,1.771039367,4.383257229,1
0.002271417,0.227008427,5.06379099,28.41586206,1.329847009,0.016699879,1.699087044,3.851092775,1
0.000961879,0.226720103,5.078252725,28.58934225,1.328600366,0.016766543,1.563971388,3.640203662,1
0.000953012,0.227012036,5.093176356,28.7296897,1.327189255,0.01625648,1.593145208,3.537820188,1
0.00169077,0.227093528,5.061139106,28.42533127,1.326322556,0.016325554,1.735636476,3.791834296,1
0.002955852,0.226244418,5.040180619,28.25915718,1.326001685,0.016775979,1.232849407,9.26427199,1
0.002912986,0.224863382,5.029145023,28.24820138,1.324255317,0.016875841,0.790770383,13.12113306,1
0.002118184,0.224635747,5.038523576,28.32106679,1.322414453,0.016733112,1.223184477,8.574162696,1
0.001081454,0.226144228,5.037989457,28.37741107,1.321337182,0.016579963,1.618849587,4.311632002,1
-0.000329878,0.226623297,5.013398553,28.20087304,1.320444162,0.016657745,0.951719739,11.91528012,1
0.002343037,0.225299638,5.03792466,28.30348199,1.319825963,0.01617984,0.892482661,13.27280694,1
0.002552902,0.225870111,5.036726366,28.2174463,1.319502531,0.016073388,1.644800535,4.177881216,1
0.000405821,0.216211249,5.223661425,30.86931119,1.318684496,0.016795924,1.658688751,5.06203657,1
-0.000495313,0.204423311,5.51698271,34.85807376,1.318030276,0.01709483,1.574827325,4.477172568,1
0.000458614,0.216576288,5.242038247,30.95680277,1.317953273,0.016834343,1.600717508,3.59502672,1
0.00200116,0.227428746,5.010874953,27.94115613,1.318215452,0.017019021,1.52466983,5.180531831,1
0.00184828,0.226946161,5.048406692,28.37178513,1.318212455,0.016931695,1.549210858,5.84877472,1
-5.72E-05,0.216174454,5.282651081,31.45721724,1.316721126,0.016640511,1.592068591,5.257976869,1
3.14E-05,0.216152562,5.27750912,31.39501085,1.315515137,0.016701752,1.618527225,4.581143247,1
0.002203615,0.226733429,5.017264326,28.16537488,1.316375678,0.017185919,1.644338692,3.681073366,1
0.002224784,0.226335528,5.002003719,28.09747222,1.315764018,0.017007584,1.578180837,3.444631826,1
0.000874146,0.226657045,5.01284291,28.10378126,1.313432421,0.016637519,1.710532195,4.095643366,1
0.001651297,0.226488154,5.035342513,28.21757683,1.313193239,0.016786267,1.841394473,5.292791996,1
0.000962965,0.214915394,5.303372866,31.64898511,1.313364083,0.016856581,1.820545826,5.095568819,1
-9.53E-05,0.21466376,5.296858727,31.73397359,1.312348883,0.016662786,1.735528945,4.564842922,1
0.001320655,0.225926229,5.041039073,28.36717158,1.311851392,0.016515272,1.70492772,4.927457119,1
0.002331632,0.226303778,5.019041729,28.08777549,1.311822837,0.016806309,1.714093444,4.450586831,1
0.002646397,0.226242871,5.017232465,28.14843414,1.311134502,0.016711415,1.834434214,6.005561607,1
0.001069146,0.226581223,5.023059049,28.2496976,1.310562897,0.01657085,1.858293066,6.152509118,1
0.001858514,0.225809721,5.047134028,28.459501,1.310440663,0.016873899,1.770570262,3.985504542,1
0.001275702,0.225816151,5.039183328,28.38725759,1.310660607,0.016895154,1.756602913,3.974141132,1
0.000769324,0.225992766,5.031224503,28.28368357,1.311159788,0.016867594,1.676017799,3.963089721,1
0.001336212,0.226510988,5.007018909,28.11179466,1.311224038,0.016892738,1.196574253,8.241341183,1
0.001874222,0.226576908,4.975938336,27.89862781,1.311505508,0.01681569,1.224934403,8.384584572,1
0.000844378,0.216889958,5.141403374,30.16171712,1.312665176,0.016892618,1.639190397,3.713148918,0
0.007871926,0.228371017,4.7581741,25.91240156,1.318569074,0.023198479,1.733056243,3.996283714,0
0.002078894,0.242080601,4.312774261,21.51225925,1.311645508,0.025867046,1.488321139,3.109100717,0
-0.008456144,0.266511263,3.979228654,18.43519725,1.310735485,0.021458372,0.860261404,1.303948798,0
-0.000658186,0.29005922,3.640236717,15.42625374,1.327835846,0.018950545,1.015476708,2.365799182,0
0.003086452,0.266551857,3.924763155,18.20552562,1.332674789,0.017077138,1.637294472,4.096846023,0
0.001676847,0.243695931,4.577220035,23.82310793,1.330873271,0.016999321,1.582890748,4.049502666,0
-0.00061959,0.24085808,4.787267221,25.57841578,1.331424931,0.017107157,1.431030715,2.994204833,0
-0.000404794,0.227351954,4.95416635,27.99799585,1.334738759,0.01758541,1.532265832,4.244867375,0
0.002968826,0.228600178,4.90877919,27.24334479,1.338743537,0.017050887,1.671972456,4.849361227,5
0.002433825,0.23124817,4.90254399,26.84172406,1.341663579,0.016753813,1.57421102,3.268362012,5
-0.001656732,0.224029035,5.079998346,29.15100042,1.350615365,0.019285342,1.196981897,2.31750495,5
0.003437949,0.221807712,5.111210269,29.5554755,1.361624799,0.017818948,1.415577553,3.50024105,5
0.004343399,0.229103466,4.908851155,27.05239132,1.36635704,0.01683932,1.586806197,3.79556722,5
-0.005206297,0.234817988,4.847093276,26.327329,1.372211783,0.018192325,1.34308422,2.69047855,5
-0.000266314,0.225261708,5.043480251,28.83170754,1.383702469,0.019040734,1.064939872,2.599012972,5
0.006771116,0.23240264,4.824902934,26.12590444,1.391338021,0.016442614,1.765924466,4.938661746,5
0.001801836,0.231787188,4.803710188,25.89796868,1.392942483,0.016777685,1.092251768,11.62774706,5
-0.000639659,0.219000274,5.123051139,29.66135865,1.394126674,0.016996362,1.027672521,10.97857895,5
0.002775552,0.226391018,5.004573127,27.96742431,1.394045421,0.01651151,1.648742244,3.914105322,0
0.000139173,0.226013207,5.03258622,28.28479028,1.394918932,0.016546476,1.728603649,4.10879966,0
0.000491985,0.230138327,5.010025847,27.95135263,1.401930237,0.018274166,0.93304414,8.325101099,0
0.004193266,0.242632859,4.665150846,24.38960245,1.409692655,0.02366089,1.997131304,8.688085395,0
0.000493777,0.242968141,4.492932328,23.18888204,1.405247389,0.027564407,1.41158275,3.81016551,0
0.002485336,0.246269853,4.317440471,21.76999992,1.39783674,0.021642499,0.791549968,1.612974235,0
0.001624525,0.245875254,4.345631574,21.879624,1.396265084,0.016969922,1.467275173,3.344470537,0
9.92E-05,0.232198325,4.65231683,25.040471,1.393821607,0.01681628,1.665510354,3.95276069,0
0.000247415,0.220389408,4.95376628,28.58270844,1.390448706,0.016607379,1.633741829,4.398503767,0
-0.000455154,0.219530181,5.028109863,29.36497656,1.387820707,0.016986595,1.254175721,6.96535571,0
0.001236583,0.220148584,4.982690112,28.86546236,1.384424809,0.017445591,1.33043732,6.023548971,0
0.00198162,0.221400475,4.959178811,28.52534939,1.379715838,0.017186893,1.707739744,4.022050633,0
0.001631712,0.21038539,5.223638887,31.95930969,1.375141689,0.016485134,1.616194902,4.016715767,0
0.001319563,0.210570138,5.197727342,31.70282918,1.372155544,0.016508059,1.521034374,3.53679047,0
0.00192213,0.211063772,5.155972121,31.25512768,1.370296696,0.016855959,1.650244876,3.912655169,0
0.000942902,0.21107548,5.105605815,30.8335504,1.368805368,0.016903281,1.664925703,4.046725387,0
0.000291962,0.2224157,4.828987283,27.42030095,1.367385265,0.016682313,1.591639342,3.724809183,0
0.002784661,0.220910506,4.904655735,28.12772552,1.36569628,0.016867338,1.620974825,3.900469234,0
0.001449201,0.209860484,5.168051846,31.51027476,1.363560486,0.017008655,1.683003157,3.925312562,0
-0.000201808,0.211425742,5.151578566,31.16119692,1.361551503,0.016807585,1.384016101,6.299714652,0
0.001409853,0.222017427,4.969058837,28.40363946,1.360196304,0.016815137,1.389165813,7.133456902,0
0.000632446,0.22207353,5.004374185,28.67379817,1.358654513,0.017097766,1.679027876,4.817769384,0
0.000573938,0.223294175,4.989099289,28.41118115,1.356982531,0.016953238,1.654554517,3.923797946,0
0.00167021,0.223614982,4.974578654,28.24837659,1.355172838,0.01639495,1.661762414,3.72392148,0
0.003053009,0.222857044,5.000333448,28.53026961,1.353463473,0.016530392,1.658200576,3.621589821,0
0.003313091,0.223332344,4.996104071,28.5298046,1.351956831,0.017179333,0.756385879,19.22604731,0
-8.45E-05,0.213133693,5.160527452,31.08538538,1.350547736,0.016336501,0.70787152,23.03926218,0
0.000335469,0.22318894,4.95300515,28.08785305,1.351268877,0.015925271,1.678005701,3.984901893,0
0.001246327,0.232660759,4.772327523,25.6887018,1.351515906,0.016226692,1.658927986,3.861388911,0
0.000795476,0.222505567,4.955654017,28.11234513,1.35071858,0.016447165,0.986024654,13.64300772,0
0.002238811,0.232502294,4.779396324,25.77184646,1.350562613,0.016605185,1.070148511,14.16704845,0
0.002062088,0.232714086,4.771071227,25.76558834,1.350624248,0.016300652,1.731224543,5.190619254,0
0.001877034,0.22276716,4.968746485,28.21951618,1.350565992,0.017195689,1.605016346,3.895840309,0
0.000983839,0.223627904,4.923828067,27.80969771,1.349239022,0.017320677,1.688843416,3.955284554,0
0.000786477,0.222930149,4.995141759,28.53182692,1.348835427,0.016484303,1.68742979,3.983233251,0
0.001274283,0.227013956,4.971994118,27.79098368,1.350009973,0.016722197,1.598760549,3.407309737,0
0.001895828,0.225934478,4.960773767,27.75710913,1.350532314,0.01677477,1.568224532,3.618865255,0
0.00175179,0.217749839,5.159477067,30.08814886,1.350209972,0.016480522,1.640326129,4.306698432,0
0.00036504,0.21987246,5.10203969,29.47688791,1.349389594,0.016714976,0.379550576,30.41041881,0
0.000132555,0.220787009,5.076187653,29.3119225,1.348860931,0.016789304,0.327877086,29.54945913,0
0.000484589,0.21929169,5.131069984,29.90743067,1.349009977,0.016765715,1.518185653,3.643417486,0
0.00107322,0.220599447,5.010150945,28.81798771,1.350037384,0.016818632,1.485278589,3.373916012,0
0.00303241,0.234651721,4.619795308,24.80514765,1.352256557,0.01668824,1.583957081,3.729363909,0
0.000950415,0.237799396,4.59953188,24.58097747,1.350759833,0.016629849,1.609523825,3.733215948,0
-0.000579934,0.226317901,4.886157656,27.55472931,1.348296193,0.016466491,1.665548395,3.695269802,0
0.004729019,0.224370714,4.883882224,27.50219662,1.348337609,0.016926889,1.663770294,3.740049089,0
0.003653019,0.223771751,4.80788034,26.89674414,1.349807903,0.017398302,1.547516922,3.485498983,0
-0.001545371,0.235546831,4.397113824,23.49156723,1.350842449,0.024363806,0.704150839,7.788317197,0
0.000506653,0.245222453,4.28268919,22.01484153,1.35153983,0.026300723,0.86247044,6.141414261,0
-0.001554441,0.240544116,4.512204779,23.44416509,1.351185989,0.022225195,1.135108783,3.051751183,0
0.002116935,0.25300355,4.338082624,21.27627119,1.350913838,0.019779421,0.810784084,2.675600188,0
0.004015738,0.251201069,4.494120709,22.31740013,1.349900218,0.017591223,0.856947287,13.4455969,0
-0.001273937,0.22427621,5.144963035,29.12655047,1.346232877,0.016793062,0.832651615,15.27847224,0
0.003100937,0.223388148,5.149546563,29.09218554,1.345519475,0.016159574,1.607104967,3.994187671,0
0.002164712,0.216387119,5.246716822,30.88249764,1.345962797,0.016992904,1.377742805,6.528757644,0
-0.002124004,0.208086603,5.424616375,33.60806324,1.345532281,0.017184486,0.580640877,16.96573574,0
0.001068237,0.225711806,4.999392492,28.02147534,1.346698706,0.019528823,0.793474798,9.121626852,0
0.001993162,0.228168052,4.969961163,27.76163557,1.352837971,0.020200956,1.052146935,2.390121709,0
0.00075221,0.218241428,5.273179808,31.05811318,1.355861391,0.017133777,1.43404536,5.685513431,0
0.00258577,0.213592322,5.377204732,32.01851959,1.354323142,0.016749662,1.340359486,5.114005784,3
0.002500246,0.213296292,5.361990431,31.81432435,1.353844452,0.016692601,1.517837953,3.664326861,3
0.001762626,0.214926077,5.312170977,31.21735335,1.353658894,0.016939792,1.60498982,3.52481637,3
0.00273075,0.214578576,5.326734466,31.39670423,1.355616542,0.0169825,1.560824793,3.371469965,3
-0.000137833,0.216776472,5.288024289,31.00501163,1.358277839,0.016854051,1.624446983,3.908376863,3
-0.000434215,0.217268554,5.272544297,30.84739094,1.359619359,0.016885197,1.656654008,3.814719186,3
0.001656176,0.214457738,5.334016696,31.53135964,1.359558596,0.016860638,1.626929524,3.462828728,3
-0.00017807,0.204270621,5.571568762,34.88243278,1.358013426,0.016692217,1.640919103,3.428534193,3
0.000287122,0.204513384,5.583801645,34.93795918,1.356267548,0.016150097,1.641964892,3.607414892,3
0.002311981,0.213881375,5.344957242,31.7382197,1.355904661,0.016184416,1.663855005,3.811198783,3
0.002427665,0.202140634,5.645937727,35.75842169,1.356254687,0.016447659,1.728397427,4.057191671,3
0.000371874,0.218874553,5.013027416,28.76086908,1.358128956,0.016822246,1.736929908,5.077115954,3
0.000135864,0.228746874,4.829893264,26.31644194,1.36089423,0.017194324,1.637901542,4.431585557,3
0.001635818,0.214530501,5.399739695,32.25564868,1.362477384,0.017132516,1.531207066,3.099411867,3
-0.004482886,0.246911174,3.663176311,18.08886844,1.365500641,0.01711836,1.347816515,2.561874103,3
0.000883229,0.252168933,3.491560443,16.72252119,1.373790686,0.017900215,1.100074102,2.419827254,3
0.009529306,0.236868681,4.749328636,25.23418049,1.377455848,0.016670295,1.476296704,3.467139936,3
0.00131046,0.23386941,4.960240825,26.91408026,1.373951394,0.016392688,1.576650484,3.505831285,3
0.000893457,0.225088726,5.088276338,28.58711491,1.371932493,0.016395195,1.610652144,3.671333963,3
0.003921498,0.239365492,4.485454998,23.34510322,1.372274235,0.016968855,1.678729626,4.267782528,3
-0.000588239,0.259616261,3.719108042,18.32911822,1.371297291,0.01747187,1.614656915,3.814561294,3
-0.00136116,0.246609799,4.07037464,21.52688411,1.369935771,0.016658057,1.614556743,3.304572572,3
0.001871881,0.229731736,4.981692258,27.50163689,1.37059942,0.015999868,1.579304733,3.323921246,3
0.003365302,0.227127888,5.029600189,27.95028131,1.370484379,0.01606825,1.552826219,3.316331997,3
0.000497785,0.207625037,5.456349981,33.69882844,1.369540732,0.016188436,1.677786512,3.554746181,3
-0.001197909,0.20917024,5.469077261,33.6457157,1.368817357,0.016116657,1.693777169,3.816448095,3
0.001613238,0.220080533,5.227984162,30.25652391,1.369485256,0.015982074,1.665865098,3.856398777,3
0.000700522,0.220523047,5.21630596,30.11941001,1.371327536,0.016171433,1.669289315,4.210639472,3
0.000837845,0.220072675,5.249441142,30.42475353,1.372960009,0.016456706,1.56015934,3.855591381,3
0.003675234,0.23061103,5.02229414,27.58624126,1.373106384,0.016403539,1.513109111,3.341114617,3
0.003808463,0.229275271,5.03489193,27.68632173,1.373208782,0.016516276,1.595822715,4.439122896,3
0.000359691,0.217802892,5.280943902,30.76089871,1.374451937,0.016489843,1.562733308,4.500814219,3
-0.001907364,0.219104207,5.28771555,30.89266044,1.375275912,0.016489957,1.647554292,3.781923886,3
0.00073645,0.219811707,5.307308965,31.07981909,1.373923819,0.016346405,1.668200087,3.781414304,3
0.002865319,0.231217574,5.016745476,27.63158212,1.372174181,0.016055823,1.5724671,4.013908343,3
0.000160374,0.232187617,4.977740296,27.19431589,1.371907643,0.01644354,1.539542,4.250643125,3
0.001611014,0.219288636,5.298565805,30.8282022,1.372101702,0.016324004,1.506857677,3.76512442,3
0.003594517,0.227472258,5.070906622,28.18778838,1.372941807,0.016322026,1.42337795,3.477809402,3
-0.000150245,0.218289756,5.283222956,30.91140133,1.373301969,0.016550773,1.38485262,3.459398239,3
-3.77E-05,0.20956082,5.503311486,33.92157769,1.374147252,0.0171155,1.584978364,4.460606223,3
0.001702724,0.230498149,4.971094169,27.36855994,1.374037715,0.017199817,1.640923957,4.583029018,3
0.002870152,0.228889998,5.044339117,27.93141898,1.371704429,0.016413165,1.650155381,3.88804459,3
0.002635999,0.218169235,5.308416237,31.06847914,1.371353422,0.016323113,1.75054185,4.032206603,3
0.001096416,0.218367329,5.277813134,30.74178702,1.372189931,0.016465004,1.733335399,4.278619702,3
0.002726656,0.217454021,5.325480736,31.03334241,1.373013033,0.016606102,1.110946419,10.44624053,3
-0.000572734,0.207856483,5.572678976,34.43747988,1.374350194,0.016659012,1.08890978,10.36580922,3
-0.000215947,0.219448801,5.246430364,30.51792626,1.375715692,0.016645287,1.65065761,4.177891252,3
0.002179668,0.230697892,5.018757143,27.53459374,1.37679051,0.016596656,1.640389285,3.87571857,3
0.001273878,0.222202252,5.211065153,29.95430654,1.377256502,0.01636527,1.588976347,3.813753773,3
0.000312613,0.220578674,5.251788402,30.42940239,1.376691382,0.016382787,1.496100673,3.924703338,3
0.001455885,0.218887011,5.287273629,30.85701576,1.37643231,0.016368992,1.490862732,3.671513496,3
0.001843571,0.219928154,5.261538956,30.5788524,1.377100808,0.016322285,1.605209423,3.862335243,3
0.000153442,0.220518091,5.262933987,30.49377413,1.377906309,0.016284961,1.702397363,4.298456071,3
0.000814695,0.219586393,5.281822279,30.63589349,1.378839765,0.016587342,1.675514988,4.107543055,3
0.000650482,0.219322476,5.293522776,30.77085014,1.378994642,0.016706667,1.629225106,3.728152781,3
0.00147772,0.219240993,5.265623293,30.45689953,1.379067121,0.016240816,1.628540354,3.782946849,3
0.002267925,0.23123771,4.99132133,27.18261976,1.38091507,0.016299268,1.60739842,3.890305224,3
0.00121703,0.231059893,5.037944093,27.61400221,1.382454354,0.016203044,1.656001911,4.285719253,3
0.001462921,0.229383885,5.096967509,28.22050947,1.382827759,0.015948585,1.666356051,4.354513677,3
0.000423019,0.23006849,5.063038871,27.99984421,1.380736978,0.016387335,1.488170713,3.631455765,3
0.001462758,0.219426568,5.291436326,30.90039841,1.377792195,0.016166159,1.531251854,3.336898672,3
0.002453097,0.218910228,5.278707088,30.85502452,1.377310126,0.016030602,1.783334374,6.416958235,3
0.000668832,0.219083523,5.264896853,30.70469937,1.378744779,0.016351447,1.757297324,6.621601144,3
0.001869716,0.219758879,5.246321699,30.51469943,1.379409191,0.016415089,1.482652307,4.585311618,3
-0.000385954,0.221354326,5.196589217,30.105323,1.378496443,0.016158951,1.544035195,4.779983498,3
-0.000392526,0.221540734,5.191946836,29.98260617,1.378296988,0.016060895,1.66704459,4.201229151,3
0.004214807,0.230421708,5.015310907,27.5690986,1.377650125,0.016269779,1.548509567,3.886944287,3
0.003453173,0.229265454,5.047310715,27.91904007,1.376575797,0.016195464,1.542875025,4.001498919,3
-0.001463588,0.219667436,5.293136558,30.93113959,1.376743862,0.016117454,1.634395467,3.997739251,3
-0.000768821,0.220204526,5.30350189,30.90894627,1.376989147,0.016155532,1.622222328,3.646868135,3
0.003117645,0.232250823,4.993706198,27.2598586,1.376232856,0.01625781,1.08130614,10.87419988,3
0.002699001,0.237960586,4.81942874,25.52127101,1.376364681,0.016363694,1.135541031,10.67710995,3
-0.00016866,0.222536547,5.159055784,29.5332427,1.376771763,0.016300081,1.634014027,4.053982326,3
0.003005578,0.225039207,5.121493079,28.8801356,1.376375253,0.015920759,1.53214675,4.154877489,3
0.002182938,0.217953483,5.219915244,30.53084575,1.377064405,0.016117292,1.592178747,4.386666034,0
-0.001811528,0.197343802,5.708675758,37.48447014,1.378651592,0.016299279,1.60316724,4.268201741,0
0.001064157,0.210327197,5.368731099,32.83955805,1.380450657,0.016269963,1.552131499,3.533597401,0
0.001801647,0.235527036,4.770545564,25.67942877,1.387289211,0.0195999,1.407247392,2.80577033,0
-0.001196647,0.245875932,4.429795053,22.49763962,1.392657035,0.018842423,1.467140842,3.205495057,0
0.001712612,0.263523872,4.188552881,19.62947811,1.393144717,0.016387636,1.647793267,3.978306755,0
0.004861516,0.269576812,4.218468265,19.29153705,1.391163417,0.016272271,1.575761743,4.031033171,0
0.000927063,0.238061126,4.765121967,25.11747783,1.386369106,0.016146998,1.618577526,4.229351595,0
0.000707094,0.229172105,4.911461008,27.05176093,1.383306558,0.016059813,1.576020851,3.663644211,0
0.001931861,0.230656047,4.871798833,26.72171873,1.381211799,0.016326962,1.111347553,8.936420292,0
0.000906921,0.230914539,4.851316748,26.65792568,1.38043578,0.016425245,1.153505574,9.135136122,0
0.001747434,0.231342209,4.847207067,26.68374794,1.380443682,0.016594508,1.583548184,4.004426383,0
0.000975056,0.222061043,5.060241955,29.2235046,1.380842699,0.016610387,1.607733806,4.239647821,0
0.001389823,0.230144961,4.864906393,26.81987093,1.381744167,0.016238124,1.686798587,4.597616401,0
0.000925003,0.230274084,4.845788386,26.78594102,1.381027821,0.016069435,1.696075251,4.167906964,0
-0.000442906,0.221374367,5.034664746,29.19920267,1.380030278,0.016124101,1.662432865,3.92454698,0
0.004312539,0.229427637,4.847125373,26.71020066,1.381774902,0.016294822,1.568690952,3.521983248,0
0.00343362,0.229607892,4.840636346,26.64291049,1.385180882,0.016631229,1.706852757,4.053476585,0
-0.001944554,0.219593011,5.089873921,29.54977997,1.387328284,0.016451171,1.771711077,4.622310584,0
0.000464839,0.22965745,4.872689897,26.80552526,1.388588878,0.016778558,-0.261963838,34.73174686,0
0.000497896,0.230431983,4.905041439,27.09468556,1.389270074,0.016510192,-0.396470117,36.83792067,0
-0.000115821,0.220161255,5.167912124,30.19527959,1.388935525,0.01540144,1.569721571,3.885647281,0
0.002355632,0.220672481,5.114860407,29.7413357,1.388920702,0.015959316,1.527777674,3.893578128,0
0.002860611,0.22665086,4.620937325,25.94251045,1.387156078,0.016462882,1.499966253,3.891542699,0
0.001131199,0.235889852,4.392091994,23.40798026,1.385240773,0.016588846,1.449551882,3.776255949,0
0.001495154,0.237919342,4.66381994,24.65300583,1.386050579,0.016897079,1.503261708,3.916487616,0
0.003306283,0.22858128,4.862458137,27.01143781,1.385708455,0.016478221,1.629169556,4.02369969,0
-0.00127909,0.220630474,5.014528741,29.12721326,1.383501053,0.01629427,1.566988391,3.762839908,0
0.000716008,0.229190512,4.941686283,27.41539899,1.380961772,0.016362316,1.563840796,3.711105603,0
0.004083827,0.234848917,4.841363242,25.95723941,1.379508536,0.016497835,1.543126507,3.397969026,0
-0.000913637,0.225971361,4.986396776,28.1223906,1.38030014,0.016618032,1.49341579,3.307569873,0
-0.000257557,0.220020409,5.058378667,29.66626444,1.381061281,0.016287581,1.646301303,3.897475333,0
0.003393526,0.228454257,4.808873149,26.67392129,1.380388314,0.0160884,1.657527057,3.918790189,0
0.001078929,0.227450133,4.818918389,26.71020274,1.381948907,0.017155069,1.562288909,3.634579976,0
0.000528815,0.21814695,5.070260996,29.60234832,1.381687927,0.017845616,1.44309097,3.301801059,0
0.00206732,0.231326211,4.82135546,26.48393312,1.378514154,0.01723283,1.375283545,3.346366376,0
0.001322545,0.233490023,4.704311447,25.53781356,1.378462165,0.01681978,1.50780186,3.904455681,0
0.001872698,0.234807711,4.555726322,24.45523606,1.37889061,0.016095576,1.64393882,3.940544563,0
0.00044974,0.245886844,4.34379611,22.22188365,1.38018461,0.015903682,1.576927338,3.962709886,0
0.002497258,0.24233718,4.526872542,23.56596362,1.381648799,0.016225482,1.660033451,4.285509572,0
0.002207886,0.230472086,4.83478542,26.62142959,1.380573872,0.016257423,1.62652308,3.933339697,0
-0.001254521,0.222391848,4.949630825,28.38565003,1.379994147,0.016079248,1.593772611,3.686274647,0
-0.000115298,0.237226904,4.655964238,24.80735953,1.379984828,0.016321477,1.64223093,3.900216229,0
0.001449594,0.24964781,4.355742261,21.94751211,1.377882876,0.016447987,1.526795721,3.626383045,0
0.002862259,0.262287675,3.995822151,18.87583961,1.376695796,0.016355095,1.506175407,3.409999785,0
0.00013043,0.275874268,3.830226346,16.96307837,1.38239806,0.018438432,1.240620735,2.523115925,0
-0.001361128,0.26900072,4.087345987,18.76894512,1.388861574,0.017801027,1.077378418,3.01898595,0
0.003792664,0.251772367,4.483231385,22.29573758,1.387781143,0.016950126,1.322983214,3.483540598,0
0.003980785,0.240728593,4.7153072,24.74354179,1.38589641,0.016875565,1.566118696,3.550007649,0
-0.000536924,0.23191665,4.875095522,26.77272486,1.387368611,0.0166185,1.536483821,3.847530895,7
0.001640599,0.23526575,4.779172437,25.76029327,1.389372526,0.016400671,1.579233519,4.112528314,7
0.001912354,0.234970249,4.770927433,25.69861943,1.389603588,0.016254291,1.741505447,4.500047021,7
-0.0002084,0.234871484,4.791627171,25.8779694,1.388377108,0.016362823,1.750615052,5.054175017,7
0.000597133,0.235087621,4.776200005,25.75178608,1.387256186,0.016529959,1.627928835,4.468891443,7
0.001769669,0.233106193,4.800386584,25.99809932,1.386554228,0.016389544,1.66742016,4.103724729,7
0.003725065,0.243378967,4.582319058,23.53526276,1.38762643,0.016525734,1.75835152,5.092000183,7
0.000346638,0.237288968,4.704616006,25.12868975,1.390935407,0.016550279,1.632062075,4.463606982,7
-0.002068059,0.226325847,4.959956462,28.08116788,1.393568584,0.016251018,1.521069985,3.416778084,7
0.002763055,0.234712843,4.759224196,25.62527212,1.393175507,0.016065459,1.489678278,3.73393642,7
0.005120486,0.23540696,4.714557431,25.22642399,1.39191524,0.016314595,1.200508833,8.11195529,7
0.00046072,0.222407962,4.955167857,28.31714564,1.39183742,0.016985148,0.684817154,19.04156183,0
0.001446167,0.23081566,4.692946871,25.7080525,1.39502073,0.020367194,1.402582346,10.15269595,0
0.001285178,0.242597472,4.440378941,23.0254855,1.398956626,0.019945464,1.607013939,3.984289732,0
-0.00148628,0.247886251,4.300065685,21.8712811,1.402036994,0.017007402,1.318772231,3.064048709,0
0.000815545,0.240734662,4.422995733,23.34180111,1.406594849,0.017484969,0.222589081,21.5268938,0
0.005482721,0.235851188,4.581072119,24.30675107,1.411881202,0.017221167,0.340386167,25.00291716,0
0.000739982,0.226253409,4.740297814,26.52093278,1.416632843,0.016530399,1.7150525,4.247427055,0
-0.002143557,0.227003844,4.8045057,27.03325313,1.41951452,0.016260453,1.77997562,4.509683312,0
0.001753313,0.236087634,4.744538798,25.33951183,1.421472604,0.016332237,1.690595756,4.3354206,0
0.000248696,0.226050562,4.943257929,27.8807913,1.422447804,0.016294125,1.683813739,4.12139909,0
0.001469768,0.223973778,4.932253194,28.06611082,1.422552817,0.015947203,1.665371525,4.102820427,0
0.000585257,0.224206105,4.913594207,27.86618603,1.422184644,0.015827878,1.671590101,4.164558691,0
0.000525728,0.225531156,4.893625696,27.60563203,1.421660995,0.016156759,1.642193848,4.070551277,0
0.000785908,0.225590477,4.960356313,28.09496604,1.421391896,0.016175902,1.487244487,3.334426776,0
0.001374985,0.224893841,4.973515211,28.22162553,1.421460015,0.016073021,1.542291441,3.569731262,0
0.002099056,0.225546703,4.909836674,27.74684394,1.421291951,0.016176481,1.699884806,4.022203223,0
0.00396148,0.225229292,4.885785512,27.5437571,1.421401324,0.016246836,1.733784825,4.192616108,0
0.000212304,0.226551271,4.852357554,27.18847727,1.421890259,0.015952579,1.686365083,3.904692781,0
-0.001324722,0.22721839,4.861834982,27.27983733,1.422765841,0.016091523,1.678056254,3.834737882,0
0.00192712,0.225856285,4.888968543,27.59682491,1.423317119,0.016484984,1.569535655,4.050067066,0
0.00081306,0.229199335,4.827356935,27.03788276,1.424259894,0.016504773,1.551338529,3.972195002,0
0.003164926,0.239465264,4.41486534,23.33547802,1.42545166,0.02291705,1.540007382,7.178329476,0
0.003491717,0.255896333,4.100703802,19.74971513,1.425325448,0.022745101,1.522907137,7.383143501,0
0.000203097,0.246725826,4.433645159,22.55964666,1.426506642,0.016006263,1.536519764,3.922548521,0
0.000340334,0.226728117,4.867538942,27.4798329,1.428790283,0.016156137,1.549520702,3.595167619,0
0.001514969,0.237873394,4.633168126,24.60119181,1.429388046,0.015876043,1.547496461,3.44371909,0
0.001290383,0.227888251,4.82122778,26.97875392,1.427489308,0.015974806,1.568410395,3.602717156,0
0.000343212,0.217482089,5.043891868,29.85173877,1.42540038,0.016591784,1.201447627,7.352246468,0
0.003149636,0.241086752,4.545839847,23.67053626,1.424169159,0.016202586,1.208198988,7.613245969,0
0.002529968,0.241874182,4.522753852,23.52805841,1.424085944,0.016186013,1.614803476,3.650449842,0
-0.001410056,0.22856173,4.793386187,26.7636154,1.424790955,0.016612971,1.524196449,3.570861678,0
0.000699031,0.23525596,4.429368836,23.56886647,1.428768866,0.018335205,1.136784932,2.738991926,0
0.000517404,0.244061173,4.338224511,22.30130421,1.43319773,0.018710974,0.878076812,4.823930998,0
-0.001342385,0.235515978,4.631105353,25.09780187,1.43274498,0.052777598,1.739709429,16.60635439,0
0.005157898,0.2453353,4.435296371,22.64181591,1.433088412,0.052656194,1.742015783,16.71263561,0
0.004241246,0.243204219,4.662310723,24.09347754,1.432059043,0.016938398,1.557823443,4.096845795,0
-0.000984643,0.220258467,5.219476674,30.4283096,1.429833003,0.016115536,1.720814095,4.821237788,0
0.000203038,0.219025162,5.18717045,30.23823294,1.430622646,0.016128851,1.74000229,4.714905169,4
0.000808796,0.220693516,5.15221107,29.73849056,1.430574145,0.016490046,1.715341737,4.235464598,4
0.002502672,0.220440124,5.174508863,29.87820557,1.429424994,0.016280557,1.748873225,4.919569044,4
0.001402895,0.208982031,5.455947715,33.54630933,1.427984238,0.016148469,1.738722253,5.116315323,4
0.000874047,0.210395563,5.379844972,32.83920412,1.42723138,0.016558144,1.69872395,4.865762823,4
0.003583564,0.219634209,5.220215614,30.32841809,1.427454049,0.016382793,1.721080042,4.827213057,4
0.000778309,0.209674623,5.440366266,33.46130624,1.428093774,0.016495408,1.250847618,11.22676426,4
-0.001421644,0.211772337,5.325942718,32.36622446,1.429172952,0.016389309,1.089677175,10.83824151,4
0.001065236,0.222034348,5.115354517,29.38129099,1.430035182,0.015903521,1.530185244,4.050308046,4
0.003608204,0.233006381,4.909861252,26.60095946,1.430823353,0.016110935,1.60531355,4.049913034,4
0.003674763,0.233565189,4.956578662,26.82116627,1.431889507,0.016856655,1.738801564,4.134736711,4
0.00150924,0.223079107,5.180802078,29.56800862,1.43229757,0.017083545,0.879330174,17.52172469,4
0.000287292,0.221583334,5.192667231,29.80038674,1.433191354,0.01645164,0.735266089,19.98273945,4
-0.001075143,0.221077656,5.218156471,30.06741415,1.4344647,0.015960746,1.757527918,4.578788743,4
0.00037124,0.220607776,5.27953786,30.52882516,1.435229056,0.015889242,1.738821891,4.69005367,4
0.002364297,0.228729997,5.099424761,28.17615892,1.436715916,0.016213445,1.689064961,5.08305204,4
0.001202375,0.228269899,5.104233138,28.26019964,1.438794327,0.016216361,1.652654661,4.908321647,4
-0.00015029,0.217816394,5.362688486,31.41525434,1.440440042,0.01583739,1.756946858,4.864354891,4
0.001325239,0.218512244,5.333712822,31.14759567,1.441138622,0.016136713,1.741847484,4.590333973,4
0.001313625,0.21988088,5.283601277,30.70015826,1.441846194,0.016145998,1.666478605,4.777213781,4
0.000696121,0.220908424,5.250880911,30.38185595,1.442825099,0.015805962,1.732822916,4.711594024,4
0.001247406,0.222066138,5.239679997,30.16308435,1.442957306,0.016096346,1.730060748,4.388775843,4
0.003143555,0.232491543,5.008659282,27.28494209,1.443376051,0.016201395,1.799334862,5.110854613,4
0.003473543,0.229488591,5.042063282,27.69211344,1.445639093,0.016312695,1.767837248,4.425471182,4
-0.000523512,0.217397869,5.33480145,31.23625654,1.448980767,0.016271658,1.629850152,3.902797391,4
-0.000951763,0.228667447,5.12940314,28.51505061,1.451582663,0.016210818,1.761171984,6.431266876,4
0.002119178,0.238052311,4.937536678,26.16649501,1.452867835,0.016493982,1.838402157,6.960524684,4
0.001779582,0.227864415,5.112734612,28.40718203,1.453438296,0.016351803,1.696603434,4.613544442,4
0.001157554,0.21998508,5.274779838,30.53440596,1.454456002,0.015864061,1.610971702,3.692733598,4
0.001805453,0.230693021,5.05982773,27.7284428,1.455670438,0.016192643,0.68263513,19.50378732,4
0.001687062,0.229613991,5.059868769,27.8157125,1.456609998,0.016565953,0.678499903,18.28300443,4
0.000410137,0.221356898,5.240907132,30.14155391,1.458791406,0.016486305,1.653389206,4.278152646,4
0.000320644,0.221310974,5.254722265,30.24553577,1.461618042,0.016735706,1.909700056,5.703323081,4
0.001302815,0.219694019,5.29001187,30.71758269,1.463405282,0.016713626,1.760214553,5.419999602,4
0.001451255,0.218511265,5.300086611,30.88120643,1.462976892,0.016340411,1.614348422,4.51655722,4
0.002358235,0.218172815,5.283383391,30.76605055,1.460490145,0.015969509,1.648577914,4.581911359,4
0.001799168,0.220296973,5.233356839,30.24464007,1.456495176,0.016202268,1.618068011,3.806508445,4
0.000373875,0.222029747,5.204456151,29.942686,1.452919388,0.016219751,1.689589902,3.955070622,4
0.001506029,0.232391046,4.99093761,27.20083216,1.452065986,0.016310447,1.699594161,4.107060987,4
0.002846152,0.242025199,4.826368247,25.03301099,1.451863589,0.01638209,1.793644847,4.379978961,4
0.001763319,0.232739353,5.019500791,27.30676748,1.452197484,0.016278016,1.451438186,5.305863677,4
-0.001135561,0.224092506,5.187842734,29.52349515,1.452880696,0.016643441,0.746576005,14.46836646,4
-0.000160616,0.223727715,5.195221936,29.55411904,1.451401302,0.016266231,0.922358385,13.97619283,4
0.003129429,0.231782973,5.022021618,27.3024285,1.449992916,0.015681868,1.733673166,4.134542751,4
0.002139856,0.229635107,5.086313108,28.01688803,1.449672318,0.016236454,1.778495811,4.779517876,4
-0.004965108,0.219999725,5.283361734,30.82206404,1.449242565,0.016078295,1.688195767,5.096328712,4
0.000163651,0.229738362,4.959582051,27.1409781,1.451484898,0.016875535,0.103708253,32.9097596,4
0.007061077,0.259721637,4.365043631,20.49790716,1.454604013,0.016998244,0.119670583,32.90935566,4
0.002146493,0.268798797,4.272923056,19.39620182,1.456076213,0.016407165,0.898631745,14.3435004,4
0.001283779,0.2539561,4.54475674,22.09835484,1.456713322,0.016108643,0.884451269,15.07528998,4
0.003099008,0.23530757,4.897930584,26.04891351,1.45752934,0.016057826,1.624075864,3.751596026,4
0.001542147,0.231101012,4.951723823,27.00064775,1.459498705,0.016497135,1.63258114,3.601029452,4
-0.001304169,0.233991017,4.901087834,26.52193101,1.461027581,0.016507009,1.735731572,4.110816111,4
0.00114711,0.221907193,5.186918078,29.8800176,1.460942568,0.016415561,1.758433923,5.002245103,4
0.001306941,0.208814648,5.503584865,33.95449793,1.460453851,0.016018532,1.603065954,4.487546372,4
0.000307637,0.209568435,5.441591269,33.4118078,1.461040388,0.015907403,1.559504031,3.59501481,4
0.001636126,0.210553862,5.374752615,32.75171993,1.461925779,0.016462172,1.709740245,4.194251738,4
0.001046925,0.211296074,5.34998885,32.48104781,1.46248267,0.016437593,1.638338482,4.473383511,4
0.000984552,0.223752549,5.053278059,28.69678171,1.463223866,0.015674528,1.539986163,4.258773838,4
0.001066504,0.22330163,5.084517635,28.90890137,1.464707511,0.016085421,0.735365957,17.35284756,4
0.001560503,0.223574504,5.129712994,29.20521203,1.466243144,0.016664291,0.787487139,15.65762107,4
0.003312522,0.234215671,4.9401464,26.63241696,1.465843419,0.016316079,1.544468339,3.678045669,4
0.001181926,0.220982614,5.247972846,30.19882193,1.464428166,0.016038273,1.677444751,4.619241043,4
-0.00046569,0.210568883,5.455794093,33.14083857,1.464707838,0.016072617,1.617863829,4.573701256,4
0.000751903,0.238418566,4.817362365,25.53020443,1.466595295,0.016167334,1.451071555,3.734432725,4
0.001367785,0.238522993,4.854140312,25.81163451,1.46776292,0.016081721,1.50691935,3.791229741,4
0.001607699,0.222051822,5.248901918,30.18361826,1.46829507,0.016226813,1.655235799,4.988900435,4
0.001276454,0.221206309,5.23880624,30.15002733,1.469569342,0.016369694,1.622013599,5.054769063,4
0.001839052,0.221061718,5.204775355,29.87992093,1.470431519,0.016010579,1.603861417,3.706038115,4
0.002318658,0.220754473,5.228150221,30.08342398,1.471401324,0.016142547,1.828586834,4.975701185,4
0.002209423,0.221243353,5.220693001,30.01762368,1.473083224,0.016358245,1.710900807,4.930501718,4
0.001686303,0.223887969,5.110447767,28.9918681,1.475241525,0.016170427,1.646109878,4.809513759,4
0.000720402,0.226047586,5.083703591,28.59341855,1.476699993,0.015928571,1.785049545,4.945717527,4
0.001168893,0.226281233,5.096584369,28.66930858,1.477031544,0.015975499,1.745955295,4.26589523,4
0.000815826,0.226141977,5.098416875,28.70589106,1.478348269,0.016417845,1.77220902,4.916807785,4
-0.000174159,0.22401858,5.167684788,29.42992282,1.479459981,0.016308804,1.696653161,4.467739806,4
0.000689549,0.210618346,5.456632817,33.26466346,1.479998234,0.01610286,1.626715993,3.936828417,4
0.002010949,0.220073518,5.237484835,30.233738,1.480872672,0.01611736,1.649311294,4.269086845,4
0.001112634,0.234903757,4.769766149,25.41692309,1.486090415,0.023243463,1.437571311,2.621452398,4
-0.000540253,0.236989022,4.449706035,23.37555138,1.49890164,0.025398694,0.621097479,0.697074661,4
0.001508442,0.265669361,4.110867294,19.19815709,1.50154904,0.019392917,0.91153982,2.249479231,4
0.004449273,0.270342344,4.17543117,19.06668964,1.492350497,0.017325111,1.123326994,3.00560755,0
0.001947732,0.230089223,4.858870065,26.58220253,1.489094652,0.016123424,1.668473296,3.857876934,0
0.000392827,0.213060803,5.243676702,31.51336368,1.490696389,0.015959727,1.722628553,4.166922419,0
0.001968488,0.212433766,5.290487277,31.92228908,1.491858401,0.015749396,1.689052488,4.395465538,0
0.000191509,0.201090863,5.549199274,35.58519389,1.492490278,0.015723625,1.560633759,3.671427119,0
0.001057362,0.212507353,5.268766411,31.67841978,1.492684446,0.015910054,1.640426492,3.739272056,0
0.000967876,0.213569515,5.217793139,31.20949879,1.49217611,0.015868996,1.781742556,4.704763177,0
0.001664638,0.213450657,5.19628575,31.05064194,1.492074803,0.016176276,0.631750982,25.2322424,0
0.002809923,0.22566518,4.941662642,27.70658448,1.492691966,0.016401382,0.664261007,23.99495442,0
0.001999917,0.225855669,4.963850602,27.85747033,1.493525205,0.016262368,1.748237365,4.285957206,0
-0.000359868,0.214046256,5.230442406,31.23232952,1.494287164,0.016088247,1.67592849,3.712311842,0
0.000508379,0.213512806,5.230639577,31.27200143,1.494398608,0.015823229,1.621891141,3.792578535,0
0.001552094,0.212998804,5.240059276,31.41164356,1.494181824,0.015982553,1.005834951,12.04857922,0
0.000784116,0.213614801,5.232284728,31.32251847,1.494108473,0.016057772,1.074264118,12.542105,0
0.001123202,0.236885508,3.995938417,20.48873679,1.49431512,0.016147604,1.784590461,5.083168597,0
0.001441138,0.238671816,4.011162912,20.5835352,1.493695831,0.016099978,1.868202218,5.024926653,0
0.004117499,0.227085581,5.023739535,28.37299227,1.492286246,0.015864277,1.827987335,4.851391514,0
-0.000122445,0.216086648,5.219352221,31.16731386,1.491659491,0.01572632,1.716865132,4.078944496,0
-0.002344947,0.217809763,5.108599053,30.1933461,1.491265106,0.01559246,1.687431458,4.15880959,0
0.002798407,0.228021259,4.904118071,27.39116955,1.490454374,0.015867354,1.444832637,6.843389934,0
0.002457269,0.226289349,4.880162083,27.46650564,1.489776775,0.015911445,1.443896681,6.531492221,0
0.001223727,0.227582243,4.865858974,27.20979725,1.489313671,0.015720885,1.723422695,3.974998587,0
0.000635886,0.232839613,4.672957465,25.54846914,1.492697961,0.020596301,1.954713601,4.748665167,0
0.001180906,0.245966692,4.426115383,22.83600099,1.495301056,0.020292236,1.874509736,4.569591634,0
0.003490441,0.252934351,4.462638422,22.2793391,1.49442215,0.019894606,2.947946943,13.81608793,0
-0.003897151,0.267476128,3.541911497,16.92383342,1.495920781,0.029549728,1.9103305,5.098146445,0
-0.000202338,0.297328067,2.894692056,11.72622875,1.489020266,0.028925351,1.733500164,4.379031273,0
0.005365945,0.296072182,3.238187805,13.07088375,1.484593746,0.018363848,0.416937032,10.55776078,0
7.77E-06,0.277243136,3.632131973,16.17935771,1.483093752,0.017792214,0.351698986,13.9645849,0
0.001388613,0.270921044,3.739199694,16.92893855,1.474951608,0.016504351,1.284009105,6.426356204,0
0.004185896,0.265872991,4.010793897,18.81299894,1.473513086,0.016433501,1.634940471,3.90161535,0
0.002446132,0.242937875,4.599145982,24.10091293,1.473624202,0.016431166,1.573825193,3.346881366,0
-0.001177865,0.230518073,4.995383629,27.73428544,1.479428264,0.017634428,1.150188078,2.059455808,0
0.001058173,0.231411422,4.967684106,27.52619153,1.487775857,0.016103385,1.396522861,3.224216529,0
0.002210829,0.230093446,4.997018679,27.62309076,1.486638532,0.015553437,1.492674043,3.787503212,0
0.000800243,0.229152832,5.019590344,27.8802268,1.486148017,0.015791456,1.664839397,3.914556249,0
0.000284637,0.228700423,4.994200398,27.74552771,1.489296123,0.016539451,1.644540955,3.499011445,0
0.000232734,0.227717717,5.027681286,28.04196871,1.496453912,0.017401309,1.329326171,2.719669993,0
0.000930653,0.217676528,5.238437516,30.84925777,1.502091653,0.016091069,1.474777188,5.024348222,0
0.001686362,0.218660104,5.199501322,30.40176036,1.501410021,0.015692818,0.894681117,12.0502758,0
6.66E-05,0.233646926,4.871309192,26.81353042,1.530750057,0.035754087,0.343086329,-0.465404753,0
0.000587893,0.233189034,4.878849494,26.92959223,1.549786431,0.022880718,0.756313507,0.810458958,0
0.005506969,0.227603923,4.99389217,27.68577813,1.53664093,0.016634473,1.516646627,3.591295648,0
0.001480754,0.228077699,4.950151233,27.38690861,1.533647374,0.016570933,1.516136722,4.650631969,0
-0.00258335,0.233205466,4.71727001,25.93364576,1.536321313,0.017443576,1.17371519,5.85066757,0
0.004135463,0.243693521,4.525141533,23.5349074,1.547652762,0.018947079,0.894772236,3.896328291,0
0.000295277,0.252315313,4.271156608,21.26477078,1.552016394,0.01763347,1.389402356,3.002788461,0
-0.000724169,0.249474805,4.336977638,21.8781231,1.551102339,0.017627922,1.437830706,2.919817213,0
0.003497367,0.240881474,4.559747702,23.61284187,1.550603703,0.017215746,0.529081528,19.59196763,0
-0.000491972,0.235592702,4.598763341,24.68605975,1.551209641,0.017713581,0.395318534,17.35673458,0
0.00427478,0.242368044,4.578358036,23.73099828,1.558628736,0.017378331,1.091694131,2.492513274,0
0.002413997,0.253558,4.205571244,20.54679018,1.56058791,0.016190004,0.999709383,7.543656355,0
-0.003545308,0.245074024,4.36546416,22.4397428,1.559282848,0.016045727,1.05407552,7.823183807,0
0.00157402,0.241505722,4.616406517,24.06892886,1.559840666,0.016212167,1.492678482,3.750248796,0
0.002481308,0.237299836,4.711421954,24.95566995,1.55804585,0.016247563,1.441248364,4.720092955,0
-0.001153002,0.235440779,4.793525393,25.73393172,1.558209174,0.016081231,1.495060384,4.744487659,0
0.001986668,0.250584153,4.461769305,22.29464903,1.562791606,0.017237628,1.447373287,2.9431045,0
0.002499396,0.252250324,4.302559014,21.22131031,1.568452018,0.017485151,1.230903304,2.346483406,0
0.000391336,0.243272937,4.421424704,22.76087503,1.570242909,0.016478339,1.508766089,3.424363893,0
0.00166866,0.242632118,4.594092767,23.72005584,1.567322813,0.016232199,1.678718495,4.343020815,0
0.000944314,0.229958075,4.950321805,27.18196487,1.563328498,0.016098962,1.626342366,3.850858673,0
0.00081391,0.220863177,5.151199492,29.67281142,1.559957504,0.016675292,1.017315611,10.7935825,0
0.001886313,0.221635728,5.131677965,29.46856403,1.557641166,0.016480176,0.986867155,10.88513886,0
0.001041864,0.232389997,4.884875886,26.58628268,1.55552875,0.015713178,1.497022557,3.44618365,0
0.002209671,0.251052542,4.468872247,22.33329909,1.572315325,0.024611034,0.555505757,0.069974462,0
0.002201797,0.250272507,4.472054887,22.46168851,1.582178933,0.019039594,1.082573381,1.587591881,0
6.90E-05,0.229842448,4.88461143,26.91063711,1.569746944,0.016663001,1.45124996,3.455087282,0
0.002164182,0.229318411,4.895309597,26.90423344,1.561954389,0.015936174,1.503179286,3.391297278,0
0.001887706,0.230510253,4.882811361,26.73528903,1.557880892,0.016231255,0.629024388,17.60792007,0
-0.000864977,0.220328821,5.119883228,29.67266542,1.554020963,0.016427622,0.704182046,16.24422314,0
0.000817664,0.220998189,5.078741466,29.3086398,1.549162892,0.015983017,1.618070316,3.793410416,0
0.001397363,0.231611885,4.800429158,26.17463542,1.546125357,0.016101523,1.701893067,4.411053796,0
0.00067749,0.240407415,4.668379031,24.46020544,1.545982579,0.016279703,1.69045723,3.959800231,0
0.00105094,0.241259565,4.684869365,24.54888314,1.546176093,0.016184708,1.663373148,3.924739341,0
0.001423194,0.233546878,4.780056038,25.96313507,1.545765959,0.015960054,1.752947862,4.595583017,0
0.002879948,0.230141089,4.878431476,26.76839512,1.545765523,0.015839212,1.687064885,3.996913954,0
0.000484425,0.225645491,5.042948584,28.33288179,1.544744819,0.015802545,1.6088201,3.58357232,0
0.000545105,0.225010284,5.015628266,28.32313059,1.543873542,0.01628501,1.609058666,4.060728811,0
0.002089096,0.236222515,4.811854866,25.63795683,1.545180838,0.016492664,1.594983039,4.048047804,0
-0.000417762,0.228976114,5.038194856,28.03839768,1.545240239,0.016174302,1.723906463,4.188099527,0
0.002934821,0.228771176,4.998098457,27.67462677,1.543617085,0.016503426,1.047852482,12.76119596,0
0.00197852,0.229242328,4.941763297,27.15967963,1.543621826,0.016413434,0.945235581,12.62754796,0
-0.00057516,0.231135228,4.805788699,26.40908346,1.544077247,0.015886351,1.621200312,4.019335816,0
0.002035636,0.233431713,4.65956081,25.33970252,1.545783343,0.015982668,1.656537971,4.305714808,0
0.002072126,0.241969355,4.607620226,23.7621165,1.546645628,0.015744874,1.640259023,3.992959539,0
0.000861773,0.239924627,4.708635734,24.49569013,1.54759407,0.015858099,1.58722357,4.054058676,0
0.000370612,0.221014204,5.064820299,29.20801176,1.549891608,0.015991665,1.629120764,4.21445841,0
0.001659864,0.230930502,4.834835438,26.41675804,1.550000708,0.016274032,1.387531323,6.728801325,0
0.002337531,0.24159638,4.630168275,24.01759233,1.551448931,0.016411371,1.42180085,6.722024048,0
0.000735286,0.232274913,4.890947508,26.78668198,1.553213174,0.016114555,1.695402055,3.858362563,0
0.002995475,0.230332219,4.922477402,27.08304289,1.553039278,0.016184417,1.673713505,3.911077373,0
0.001584981,0.231495889,4.874811689,26.66406615,1.555798612,0.016697696,1.570938951,3.398674202,0
-0.002418163,0.22189705,5.120129462,29.67715874,1.560607256,0.016309943,1.476434033,3.047473291,0
-0.003755519,0.229214644,4.910317487,27.36851978,1.565410396,0.018001719,1.286266862,1.881911561,0
-0.005162044,0.254630524,4.347553667,21.69631723,1.605723081,0.057173528,1.242737969,0.686635142,0
0.003079801,0.269132342,4.012942992,18.65851738,1.748697063,0.115111502,-0.216093371,-1.56887053,0
0.003433751,0.280532942,3.785486382,16.73424052,1.890248326,0.044952627,-0.217816195,-0.420033004,0
-0.005929923,0.27303993,3.913467666,18.21375276,1.986524963,0.086184324,0.777381611,-0.890257325,0
0.005703526,0.255479896,4.205073486,20.83827554,2.044530324,0.060794829,-0.304903338,0.147074538,0
0.009134079,0.245645941,4.439092504,22.48724222,2.02182203,0.027040621,0.356584195,-0.315350565,0
-0.002067692,0.23542862,4.401245768,22.94829388,2.004485212,0.032489612,0.934914647,0.338114474,0
0.015537016,0.245260931,3.63554126,17.12939533,2.058152553,0.067679934,0.22263429,-0.881900622,0
0.004443074,0.246739236,3.258196313,14.7492093,2.147129713,0.055293865,-0.339156627,-0.609897533,0
-0.013470723,0.250713964,3.787320718,18.10399316,2.218326841,0.049758801,0.493509756,-0.699489035,0
0.00663227,0.261673607,3.604714407,16.77182758,2.300556237,0.138723052,1.085325247,-0.31736642,2
0.002072944,0.256895532,3.569533756,16.52420623,2.437729318,0.155014124,-0.897530145,-0.95866884,2
-0.008151705,0.257073237,3.869544523,18.13909577,2.53340901,0.048449871,0.191752327,-0.635321735,2
0.001362272,0.264809979,3.94501137,18.50575514,2.469801821,0.08478389,0.50695219,-1.130913084,2
0.000470457,0.271351818,3.594971683,16.77732032,2.505985206,0.178355167,1.320559089,0.114080307,2
-0.000826911,0.260310332,3.517120979,16.99788443,2.760186822,0.216444752,-0.538003468,-1.108141871,2
0.005445478,0.260790728,3.70768314,17.54417275,3.06347035,0.216725616,0.532812691,-0.507163696,2
-0.000757475,0.260736333,3.683306867,17.48967237,3.167143685,0.149989339,0.793400523,-0.009876718,2
-0.002905263,0.253474609,4.173999277,20.59780169,3.025085831,0.106945712,0.557582732,-0.803967161,2
0.001596601,0.262743254,4.196073674,19.78334038,2.940373993,0.037102312,0.784365138,-0.423141738,2
0.003184727,0.25117119,4.370321855,21.80139832,2.936229706,0.029120908,0.947420394,0.158532445,2
0.001820036,0.251822696,4.344011754,21.85290212,2.966155951,0.043128771,0.206478797,-1.128322252,2
-0.004158404,0.272186682,3.615593784,17.07440559,3.094914954,0.131507245,1.612385895,1.96903819,2
0.001078164,0.261867171,3.692367723,18.24412633,3.186342893,0.121002098,1.163781316,0.329934514,2
0.003926553,0.241145752,4.587245961,24.03038692,3.140024022,0.090286044,2.104307362,3.734109705,2
0.001552107,0.240618301,4.588987131,24.03853132,3.145383671,0.08059852,1.121366181,-0.338644428,2
0.003962317,0.248086096,4.309802847,21.43210492,3.239508765,0.088102076,0.191892608,-0.023528835,2
0.000885236,0.237117608,4.5389118,23.92222804,3.320225307,0.076104786,0.546437278,-0.649159825,2
0.003413799,0.230154611,4.526257977,24.79424158,3.471296692,0.137935745,0.367579206,-1.132950411,2
0.002733542,0.243290351,4.048804752,20.58724686,3.590724727,0.101513253,0.016791073,-0.964549591,2
-0.004311637,0.240721332,4.161811477,21.76653936,3.53725526,0.120683669,0.189168621,-0.912349559,2
-0.000910335,0.239578327,4.519576262,24.26632948,3.373909051,0.126863873,0.847533909,-0.525118864,2
0.00255506,0.250507023,4.158668131,20.53731742,3.314323153,0.08008572,1.291241689,0.285216232,2
0.000125395,0.245258828,4.087099242,20.52775318,3.371042851,0.097965455,1.037323163,0.705206999,2
0.000591895,0.243059585,4.48993225,23.42429951,3.41657317,0.110967659,1.128353166,0.172928486,2
0.004429132,0.237953516,4.522525033,23.86004373,3.464225442,0.15629409,1.203696275,0.114950359,2
-0.000521419,0.232341116,4.595813465,25.22713093,3.503774316,0.160125833,0.807978922,-0.657632102,2
0.000193386,0.244737151,4.440045298,22.94918404,3.575656727,0.124964371,0.463142226,-0.800444413,2
0.001711807,0.251862175,4.287951768,21.23604809,3.607241821,0.123814345,0.723165221,-0.65408486,2
0.002293985,0.257425117,4.246682968,20.68190915,3.51075592,0.130983203,1.325184951,1.148732351,2
0.001745734,0.246406055,4.474300597,22.9675509,3.445733643,0.059234439,0.789287742,-0.093274834,2
-0.003224939,0.248844415,4.30483209,21.69238133,3.532061877,0.110879714,0.891927283,-0.152170817,2
0.002059564,0.257741768,4.174339866,20.10681853,3.483789989,0.14589011,0.628926533,-0.770942941,2
0.002412179,0.24966883,4.434827702,22.17070001,3.366361455,0.066259027,1.308208339,0.591369719,2
0.000337163,0.250940107,4.346834736,21.42107317,3.430191258,0.093207264,0.015917502,-1.353956077,2
-0.00208013,0.246700623,4.445019167,22.54472126,3.474721091,0.052987861,0.43849396,-0.659535242,2
0.0016289,0.249929266,4.389363321,22.0788167,3.481821551,0.06099764,0.803751493,0.023088523,2
0.005139398,0.260637703,4.211700779,20.1105833,3.556011854,0.091468073,0.707544747,0.051520563,2
-0.00047353,0.250345999,4.35547247,21.85226361,3.668984876,0.111119164,0.351790743,-1.045629233,2
0.000527206,0.253201613,4.343966324,21.67909664,3.642774527,0.113644436,0.836569686,-0.669001423,2
0.00137709,0.25639314,4.362324145,21.61444422,3.57201173,0.036677508,1.023836869,0.176571938,2
0.00213879,0.246668495,4.507794231,23.31854978,3.637461472,0.060456162,-0.012319509,-0.743447281,2
0.002061925,0.24363555,4.421147163,22.7360513,3.814232036,0.166026228,0.966269451,-0.31719032,2
0.001986322,0.243933909,4.406083681,22.71861931,3.879904338,0.126095607,1.169054495,0.2125381,2
0.003458633,0.251760984,4.265121209,21.16179492,3.79973259,0.063938088,0.328204671,-1.087402898,2
-0.001749717,0.252931897,4.273290456,21.14797223,3.755038398,0.058484841,1.163424353,0.468190032,2
0.001550786,0.252444434,4.473345236,22.54336678,3.726456288,0.028456851,0.009313603,-0.782453575,2
0.003956876,0.25014149,4.497669078,22.73354128,3.760798917,0.045575394,0.421689592,1.147502121,2
-0.002070289,0.240978307,4.563196928,24.0220737,3.87169996,0.101767244,0.986689142,-0.192202746,2
0.000135374,0.248281269,4.456989528,22.56117771,3.920935713,0.077656943,0.933099995,-0.103488558,2
0.00337963,0.250898761,4.415881567,22.05632556,3.950140381,0.097504363,0.342174087,-1.292907799,2
-0.002501351,0.240991411,4.62555649,24.31351686,4.038385391,0.090492448,-0.847334897,0.22422329,2
-0.001930658,0.240027757,4.691601631,25.00145132,3.998569162,0.091751637,0.288825119,-0.835561984,2
0.005335,0.242472228,4.632220923,24.54327219,3.90097362,0.054499723,0.677145955,-0.726502881,2
0.00307988,0.243421557,4.574381208,24.06688657,3.907865906,0.056230709,0.613963573,-0.606317858,2
0.000102153,0.23371668,4.742011396,26.12330671,3.94872273,0.035023673,0.296062474,-0.271315993,2
0.003372482,0.233794502,4.737858726,25.95472701,3.993065752,0.04591236,0.440083021,-1.039519365,2
0.001781754,0.2334659,4.717217544,25.79468409,4.067430278,0.056108097,0.449405062,0.38144625,2
-0.00046841,0.230122941,4.770743207,26.38528094,4.158006995,0.064320564,-0.203961147,-1.076634737,2
0.000828389,0.237993051,4.632393861,24.47132447,4.33682518,0.148159543,0.661632544,-0.925955241,2
0.000463002,0.237814166,4.664711755,24.6289849,4.444095557,0.120368968,0.319512448,-1.481546763,2
0.00088967,0.238670867,4.642640256,24.54672942,4.454084396,0.106104112,0.01377892,-1.307675461,2
0.000202018,0.241825964,4.547528702,23.92022293,4.497718811,0.067274312,0.056712342,-1.216586079,2
0.001441687,0.251960807,4.349131635,21.81722403,4.465687779,0.072225178,0.674834657,-0.767244508,2
0.004810357,0.259684535,4.224688291,20.30191578,4.425951876,0.052597407,1.9886991,5.122181364,2
0.001912844,0.259244366,4.228541733,20.42888412,4.593437031,0.202892117,0.713563376,-0.787158585,2
-0.000243988,0.261278309,4.133131634,19.99244599,4.633786883,0.168917863,1.003807781,-0.318668034,2
0.00023138,0.270959369,3.867835345,17.74558128,4.509542193,0.040484592,0.173244957,-1.02077476,2
0.002325681,0.283100391,3.700601457,16.05298358,4.50653098,0.038299057,0.308375058,-0.6814213,2
0.001034592,0.278864254,3.758756689,16.73256852,4.588652475,0.130101381,0.860607473,-0.758935176,2
-0.00150068,0.268692229,3.905747371,18.20225,4.636646816,0.115224485,0.277662618,-1.018813261,2
0.003471379,0.268115732,3.969511791,18.62961717,4.579412951,0.068400509,0.420537957,-0.829801817,2
0.002711929,0.265148531,4.062198016,19.24703395,4.600784029,0.107683879,0.910888887,-0.290312813,2
0.00184671,0.26356035,4.177745498,19.84561911,4.580051259,0.119333175,0.908160766,-0.400587501,2
-0.000116442,0.26771474,4.140594482,19.47036501,4.600727463,0.106377174,0.037225021,-1.392230298,2
-0.000884393,0.269086866,4.13143588,19.38540315,4.566128867,0.131348051,0.16918816,-1.589440679,2
0.003339124,0.267566454,4.162334454,19.52924055,4.45426445,0.063705644,1.83163719,3.016345307,2
-0.001056381,0.269184057,4.094531472,19.18061022,4.51225259,0.085888716,0.343005762,-1.033789876,2
0.000296114,0.270125413,4.071907124,18.94379178,4.53189997,0.051501672,1.514408025,1.072321505,2
0.003134334,0.260830405,4.228940291,20.41102565,4.539366695,0.070464218,1.972579801,2.55430167,2
-0.000191496,0.259025771,4.234151463,20.58785693,4.59889995,0.071102698,0.437027095,-0.871813231,2
0.002718351,0.26722228,4.083332459,19.07845592,4.66609072,0.068331437,0.444920914,-0.884739031,2
0.003080266,0.2601462,4.169451495,20.20590947,4.707743617,0.066980247,0.06276957,-1.463284257,2
0.000119404,0.260239436,4.198226428,20.44077927,4.709789985,0.061649642,0.07874636,-1.236539894,2
0.000475505,0.27975004,3.758109939,16.7621373,4.698979459,0.046573763,0.704965342,-0.654907234,2
0.00097932,0.291015135,3.536938076,15.02895466,4.688485881,0.040855914,0.639278016,-0.652575904,2
0.001643509,0.270555794,3.853507952,17.90002885,4.692003523,0.030087168,0.253580201,-0.463134523,2
0.002305814,0.270235504,3.843654075,17.79850773,4.705995124,0.025316055,0.640963167,-0.310873939,2
0.000887571,0.282266189,3.711892401,16.41588348,4.718389021,0.021046449,0.347100598,-0.039805774,2
0.000247559,0.27067273,3.946878675,18.37814476,4.739123699,0.046566545,1.243437289,0.290032962,2
0.002092294,0.26934312,3.984848962,18.50373731,4.762259729,0.041667124,0.474814181,-0.593183559,2
0.001794708,0.268235951,4.025488321,18.68823901,4.747701372,0.022990775,0.934068411,0.349101648,2
0.000263293,0.268260687,4.081697942,19.07907758,4.744866289,0.018426117,0.77346515,1.157547897,2
0.001146842,0.273290776,4.01915172,18.52158619,4.742301777,0.02533657,-0.101014466,-0.206638049,2
0.002064566,0.274133153,3.972914912,18.22584509,4.73537881,0.022051886,0.072095469,0.047707999,2
0.002660012,0.270976294,3.954583311,18.20756848,4.733861051,0.026613861,0.002994585,-0.175945061,2
0.002753978,0.281907033,3.702348752,16.12534642,4.758929552,0.076129029,2.499735936,6.760630349,2
-0.002057301,0.294082784,3.451943721,14.38904949,4.834930202,0.123320299,1.026077779,-0.367860171,2
-0.002527333,0.273460884,3.77957199,17.45604291,4.784382466,0.13474258,1.248873407,0.236465616,2
0.001481369,0.259820752,4.158481665,20.45924412,4.662957164,0.035673882,0.186930945,-1.024679247,2
0.00343292,0.271124343,3.977543803,18.56038792,4.623108128,0.025074249,-0.060285411,0.01773107,2
0.002461376,0.272557425,3.965698159,18.35999235,4.609348951,0.037292722,-0.023135539,-0.905904127,2
0.000231661,0.270239014,4.056398336,18.94899996,4.612134334,0.059819132,1.870580546,4.456218203,2
0.000865389,0.269590326,4.088640214,19.13944757,4.723837226,0.124966745,0.110394251,-1.439327551,2
0.001845245,0.271335689,4.011897265,18.6652314,4.761388016,0.085568835,0.42356901,-0.614039378,2
-0.001339286,0.262453427,4.111897402,19.98259741,4.64347823,0.058079652,0.40449946,-1.137723727,2
-0.00014192,0.261410105,4.176993808,20.30762279,4.587939562,0.02007636,0.522239267,0.066361998,2
0.003765871,0.270366302,4.068046375,18.90752529,4.573852321,0.02374486,0.060788098,-0.284741562,2
0.001192304,0.270372407,4.051333065,18.88834262,4.554809243,0.025121073,0.849046498,0.220538365,2
0.001046363,0.261589117,4.170146854,20.27144962,4.559294074,0.027901504,0.714449028,-0.187111153,2
0.002868517,0.263484588,4.109257209,19.89845162,4.607696806,0.137880627,2.3616967,4.888639985,2
-0.000656342,0.263405986,4.099204011,19.80705596,4.73510001,0.191368679,0.474525613,-0.903955474,2
-0.000149519,0.26311401,4.127553373,19.84449521,4.720143127,0.151552535,1.148124838,0.396671739,2
0.002114515,0.273084719,4.003766308,18.50381539,4.643482808,0.069896032,0.317170246,-1.097937332,2
0.001327207,0.271414893,4.003214166,18.60153089,4.656098448,0.064733832,0.09977455,-0.977381652,2
0.002971507,0.269658305,3.977051989,18.64116641,4.627190072,0.042434708,0.168986533,-0.956572115,2
0.000544608,0.281404213,3.711934066,16.52907401,4.684853363,0.152857523,1.337599275,0.24879301,2
-0.000790381,0.281017824,3.66620743,16.22008615,4.766167123,0.144617663,0.262249506,-0.963362876,2
0.002811153,0.266504071,4.0053751,18.86372491,4.84016364,0.098994349,0.449958341,-0.902558651,2
0.004595359,0.264778443,4.20826619,19.97720643,4.887289592,0.0748586,0.092355937,-0.63354243,2
-0.000191201,0.267000214,4.03737167,19.06737023,4.888750621,0.064507045,-0.381440098,-0.585858283,2
-0.001851026,0.27927401,3.807154541,17.02520897,4.842557417,0.078222766,0.679629476,-0.905912514,2
0.002769045,0.277383325,3.971680188,17.81895857,4.795002311,0.026703672,-0.098400388,-0.362045693,2
0.00442543,0.266812035,4.131391073,19.33415381,4.768324825,0.044521784,0.13303366,-1.254714116,2
0.001272864,0.259500954,4.255613513,20.75153468,4.833512115,0.14882219,0.863508582,-0.844719066,2
0.000346684,0.260253032,4.292702614,20.97116851,4.879271099,0.123928654,0.648800858,-0.597151875,2
-0.000960185,0.260238389,4.201851049,20.27021159,4.803730937,0.042334683,0.310872872,-0.706349096,2
-0.00057913,0.260896903,4.19181058,20.25961001,4.782369995,0.063568382,0.963754147,0.089364706,0
0.00137471,0.269258156,4.115146488,19.23758943,4.798267256,0.070565113,0.528264197,-0.892673624,0
0.002332312,0.258929748,4.231808007,20.61360795,5.003352683,0.233168524,0.79530946,-0.729112799,0
0.001839092,0.247475261,4.502330481,23.28308909,5.045968955,0.199705092,1.008212623,-0.377510818,0
0.001014103,0.236039742,4.717820072,25.7465809,4.883970261,0.042038957,0.072030317,0.297611276,0
0.003594498,0.248229694,4.289228104,21.71270586,4.83935585,0.041768485,0.198182614,-0.433953015,0
-0.000214515,0.261046138,4.056729715,19.50366356,4.860745948,0.087403182,1.263975022,0.235531537,0
-0.000282525,0.274545442,3.599549763,16.27550527,4.871817453,0.095386899,0.682319182,-0.795989208,0
0.004697571,0.285462926,3.189557697,13.6092311,4.843185043,0.074280606,0.468914504,-1.086215114,0
0.001493441,0.295454566,3.268362449,13.53864015,4.914182608,0.083119211,-0.728055155,-0.936129652,0
0.00034208,0.284060256,3.58560676,15.61309884,4.972481428,0.020312772,0.079434175,0.012403182,0
0.001254639,0.254414358,4.119142174,20.3068919,4.968110003,0.014176832,0.234193273,2.369296899,0
-9.52E-05,0.254086537,4.239773562,20.9735552,4.967760958,0.012656829,0.536045609,5.395833901,0
0.000190822,0.253745769,4.229352619,21.04764657,4.963430732,0.013181755,0.57381141,4.120443914,0
0.000868842,0.245177717,4.33089959,22.39476995,4.950490843,0.016037855,0.515178541,1.312974151,0
0.003060686,0.234971803,4.433412928,23.86165002,4.926168496,0.019834933,-0.026847647,0.132861606,0
0.002835767,0.237068987,4.354739953,23.22044514,4.893623625,0.023015521,0.174699159,-0.633254637,0
0.000886525,0.238238087,4.36705041,23.31264601,4.860672923,0.020393752,0.264474365,-0.041445823,0
-0.000397529,0.241063672,4.347210454,23.17980607,4.874335262,0.040685871,0.642868223,-0.795272073,0
-0.000363079,0.240996352,4.344022452,23.13319947,4.872320557,0.043090511,0.48529898,-0.861134552,0
0.001084109,0.249027537,4.187056971,21.16517802,4.813235201,0.034627256,-0.128459587,0.048400218,0
0.003038073,0.249770014,4.166615166,21.05084714,4.764556122,0.027410515,-0.013794608,2.449573773,0
0.002115646,0.238440403,4.387455753,23.49099735,4.725148882,0.024864738,-0.015520351,0.768133748,0
-2.79E-05,0.238240976,4.43427074,23.82540315,4.684848676,0.025906165,0.14799405,-0.737433992,0
0.001386363,0.238379211,4.431610207,23.82153097,4.646515002,0.023114237,0.094939738,-0.344435037,0
0.001099489,0.227348369,4.605955416,26.19969821,4.610986383,0.024217456,0.159467925,-0.472686583,0
0.00151559,0.227147057,4.587840848,25.97792197,4.573939514,0.024202285,0.157415664,-0.372985262,0
0.00220954,0.238278523,4.38144238,23.29751893,4.532320513,0.028830161,-0.228069786,-0.645469783,0
0.000412033,0.229203166,4.508197568,25.16261275,4.483895057,0.031317015,0.218815891,-0.945740978,0
-0.000145085,0.228597232,4.532045322,25.46474609,4.437837383,0.026394306,0.064133446,-0.430828522,0
0.00246014,0.238245841,4.394447439,23.5186222,4.397170694,0.026190909,0.167918978,-0.589886387,0
0.003058626,0.23849057,4.414527369,23.62493538,4.356633704,0.026159253,0.075624583,-0.391685838,0
0.000200389,0.250439472,4.258515625,21.60603514,4.313105174,0.028910006,-0.019291258,-0.75231673,0
0.001104185,0.250465039,4.252454745,21.60535339,4.28285359,0.018974849,0.33359877,0.393472931,0
0.000151938,0.227087994,4.606810556,26.2184337,4.257836424,0.025093957,0.089085272,-0.352968581,0
0.00230864,0.228686351,4.49401431,25.18108767,4.218415506,0.027658439,0.105423302,0.562671224,0
0.001335146,0.231546569,4.422547878,24.44231084,4.178055954,0.024888263,0.131826897,0.919031187,0
-0.001747872,0.219754652,4.670729515,27.62403568,4.143721553,0.021900796,0.013396435,2.658858152,0
0.000864768,0.231021146,4.514447142,25.11629498,4.11216823,0.02204307,0.137687945,1.518444663,0
0.001731144,0.241737824,4.370738703,22.90580789,4.080288042,0.021931756,0.15408492,0.351991039,0
0.003387445,0.240674623,4.414881564,23.28176165,4.046956471,0.023051324,0.249412781,-0.492151548,0
-0.000746645,0.243808613,4.428494993,23.24868105,4.007945905,0.028820505,-0.319130222,-0.565414463,0
0.000848792,0.248570538,4.393193816,22.41656951,3.971724646,0.024766574,0.587831126,0.084417107,0
0.002727245,0.248967756,4.285588825,21.2350032,3.94658699,0.021102306,-0.016978555,0.286714442,0
-0.000745978,0.25015781,4.356078706,21.684911,3.917759378,0.027144793,0.024613162,1.871268877,0
8.28E-05,0.254823369,4.408917774,22.01794008,3.89906796,0.034926303,0.725472239,2.8419618,0
0.002050402,0.266214646,4.055019021,19.09171381,3.906616865,0.035127854,0.322419562,1.704328521,0
0.002674988,0.253025504,4.260597012,21.21588439,3.873260771,0.049004192,-0.443456966,-0.958960052,0
-0.000248952,0.238119806,4.643737175,24.80104053,3.813514274,0.031754961,0.836146778,-0.231838184,0
-9.92E-05,0.241272224,4.517597153,23.77084338,3.793642262,0.014615173,0.677322673,2.533021897,6
0.001725802,0.233596084,4.663762735,25.51419872,3.772592599,0.025327706,0.026513197,0.369746022,6
0.003169575,0.241652242,4.548058591,23.83024546,3.745690645,0.017098451,0.450226648,4.39719713,6
0.003161767,0.240316669,4.585072377,24.13291598,3.723691341,0.020959612,0.233269351,0.091381354,6
0.00110342,0.230252974,4.776853349,26.44057714,3.696266828,0.019684876,0.401667373,0.26802727,6
8.46E-05,0.230267218,4.779292443,26.48919959,3.669761113,0.020950678,0.352553117,0.501526759,6
0.000662371,0.230209594,4.79057463,26.69991249,3.645205634,0.019229015,0.32901424,1.091920008,6
0.000918738,0.230353777,4.772575443,26.53857366,3.617942919,0.023304589,0.164487338,-0.281919885,6
0.00123298,0.239955566,4.59192547,24.17701548,3.589044407,0.020324974,0.26097454,2.291675141,6
0.001560778,0.241261744,4.571079714,24.04128472,3.570195934,0.016151117,0.750537541,6.435934404,0
0.00165851,0.227466103,4.853750777,27.32793886,3.557009997,0.016269747,-0.156858118,17.52979338,0
0.001626114,0.226568815,4.848985227,27.34785441,3.540989086,0.019815825,-0.173964653,5.645755606,0
0.003099125,0.23849634,4.557899661,24.10203012,3.516402653,0.02348968,0.319890837,0.210690681,0
0.000227567,0.250192487,4.418663294,22.27979974,3.497286442,0.021456694,-0.017045456,0.47839118,0
-0.000450727,0.247992503,4.544760408,23.32913894,3.466635622,0.033572807,0.422035689,-0.844382814,0
0.002931008,0.24383858,4.578012484,23.69720538,3.432881165,0.016784858,0.115012982,11.88170838,0
0.00014105,0.226672146,4.875481653,27.55261071,3.407553918,0.02470105,-0.167782294,1.381234727,0
-8.37E-05,0.218318604,5.033463702,29.72497281,3.379978398,0.018666087,0.54375147,5.031278332,0
0.001312984,0.232118812,4.652532623,25.45586245,3.367942647,0.013969284,0.565797685,12.65290346,0
0.001564826,0.233570823,4.619797825,25.13317806,3.358369827,0.015847573,0.69904721,1.786952685,0
0.00386605,0.231479733,4.556527756,24.73969989,3.355279596,0.015957498,0.939441258,1.981812369,0
0.00068127,0.240314778,4.463429487,23.57217278,3.347696577,0.020891911,0.244156184,0.278105552,0
-0.001120076,0.2377945,4.678712288,25.36826815,3.321227809,0.022545323,0.699881851,0.177484747,0
0.001035219,0.225568719,4.880281866,27.55419633,3.302836118,0.014858986,1.17484419,3.371080813,0
0.001229024,0.22712071,4.812048124,26.90588798,3.290225165,0.01703063,0.868182904,1.629087976,0
0.003640725,0.22736968,4.776003919,26.62813571,3.275822122,0.014337027,1.143719512,3.322032137,0
0.002310732,0.227886353,4.74313313,26.25036062,3.266223744,0.014554065,0.990039369,2.85641607,0
-0.001200714,0.218905757,4.931396903,28.77870924,3.25364854,0.016441445,0.879301818,2.268146643,0
-0.000123367,0.220183555,4.942888554,28.84245001,3.239400428,0.015665403,1.050641204,3.682431142,0
0.002711504,0.229425823,4.779518814,26.40336002,3.226226371,0.015933075,0.826697407,2.975898954,0
0.003810739,0.225756191,4.853407808,27.25944674,3.212688174,0.015637653,0.850621748,2.486181593,0
0.00033301,0.219937686,4.89924623,28.43756374,3.201363046,0.01444318,1.210844904,3.518016831,0
2.03E-05,0.221641263,4.869411145,27.97977231,3.191568865,0.015608858,0.351854193,7.419767968,0
0.002575424,0.22783954,4.793464678,26.65308232,3.176840428,0.020022218,0.416864283,2.080257529,0
0.000194929,0.21732512,5.024562232,29.61682944,3.170997184,0.01782247,0.458748817,8.414318215,0
0.000480259,0.222016694,4.911015537,28.34344607,3.166782434,0.017551235,0.249316428,7.787904301,0
0.001276324,0.231791624,4.70046353,25.77350267,3.156427601,0.015414313,1.107852558,2.742291106,0
0.001805655,0.225654817,4.872356948,27.48022993,3.152380262,0.015119943,1.083923974,2.410906801,0
0.00105011,0.214664436,5.123759515,30.58311142,3.14098696,0.018413816,0.428449789,1.095118366,0
0.001274192,0.214504492,5.106309462,30.48014326,3.120372936,0.01904969,0.165436641,8.588019093,0
0.003064996,0.215698647,5.042525649,29.83080364,3.113557925,0.015211669,0.144523568,20.76903273,0
-0.000999684,0.217006755,4.965969476,29.16098097,3.123300171,0.015840391,0.994816266,3.551411215,0
-0.000282499,0.228328845,4.810424609,26.88608915,3.12005043,0.016971811,0.839842938,2.115738748,0
0.003514127,0.23702772,4.724259765,25.31218961,3.102448818,0.018944996,0.254927708,1.261289718,0
0.002612634,0.235298603,4.724225308,25.34270983,3.086611394,0.019469012,0.079980094,10.70057414,0
-0.000247382,0.215143405,5.084204353,30.32192108,3.083751624,0.016291964,-0.21056565,21.20499493,0
1.84E-05,0.214171502,5.107549085,30.53086365,3.0753382,0.019526332,0.37774019,0.650305369,0
0.001076647,0.225423145,4.905221925,27.77214581,3.058968026,0.015122983,1.037832942,3.152481867,0
0.003064754,0.238361726,4.60055883,24.43761121,3.052192089,0.018140615,1.168255861,3.253983178,0
0.001146809,0.236840079,4.648117642,24.9008439,3.039609473,0.020535369,1.358726361,2.988017548,0
-0.001598733,0.235595031,4.683998292,25.29695899,3.020009886,0.018240975,0.54619408,1.327110449,0
0.000775262,0.248222391,4.392361039,22.25782903,2.996741813,0.020382316,0.471780619,0.835825123,0
0.002766475,0.26256494,4.119377891,19.59156155,2.9774686,0.016844991,-0.13986417,14.91845306,0
0.003217902,0.271705942,4.017038652,18.33960775,2.969292886,0.015192833,0.019624466,21.25733895,0
0.000502213,0.264771654,4.225265385,19.99641684,2.962683269,0.01468408,1.074905459,3.497644633,0
0.000959427,0.251825019,4.488969341,22.55404091,2.954963575,0.014385632,1.40014604,4.248688473,0
0.001475346,0.243876017,4.675392414,24.39145048,2.950807898,0.013834402,1.379277452,4.479244707,0
-0.00031946,0.246002544,4.633630531,23.89142772,2.944133541,0.015331059,0.971219363,3.119810695,0
0.002294625,0.24679655,4.284845881,21.75012238,2.932197135,0.029184691,-0.108762741,3.415960546,0
0.000595923,0.261174102,3.923833115,18.79085061,2.919670541,0.031082005,0.562536304,2.474838974,0
0.002274392,0.274143434,3.773978412,17.01397079,2.918504878,0.019075206,0.235756911,1.539586276,0
0.003019998,0.261685401,3.961636208,18.57774401,2.913844299,0.017994881,0.678684521,1.325786733,0
-0.000328112,0.254942363,4.154558656,20.42142579,2.900201852,0.015402679,0.519933603,7.290551945,0
0.002220965,0.246638717,4.386136237,22.6003076,2.886685508,0.017929692,0.337675317,4.726676777,0
0.002319855,0.236689585,4.627393263,24.95648101,2.870793206,0.01614567,0.820527397,4.514410247,0
-0.000922734,0.236628287,4.53338349,24.26039499,2.858624486,0.015647845,1.003959173,2.622054945,0
-0.003223755,0.246282229,4.365543835,22.26668419,2.853769139,0.015244433,1.254121033,3.806928906,0
0.003273357,0.256639505,4.318537689,21.2453742,2.856418119,0.015219762,1.134362756,3.170006112,0
0.002935429,0.232891355,4.904684194,27.11522466,2.851576941,0.015731442,1.064667378,3.011628494,0
-0.001346865,0.222082657,5.062588356,29.31529346,2.840541676,0.015233701,1.346755946,4.167443731,0
0.001587544,0.233725405,4.820849046,26.132774,2.83223768,0.014699547,1.378938061,3.095098881,0
0.001680993,0.234318932,4.798024374,25.98606908,2.826587677,0.014270998,1.49323046,4.086042447,0
0.00162529,0.233619704,4.798202199,26.09271474,2.82246448,0.014737683,-0.60357269,50.37613868,0
0.001477321,0.223151541,4.997222716,28.73835742,2.818470928,0.014816504,-0.472521823,48.01704162,0
0.001736867,0.222986748,4.949886507,28.35572151,2.815427235,0.014110906,1.557454338,4.742020164,0
0.00074212,0.222020589,5.000854724,28.84106313,2.813281141,0.014215147,1.663971671,4.93153335,0
-0.000585565,0.222590424,5.015267476,28.88824168,2.811559895,0.014296064,1.611559102,5.546937834,0
0.002671587,0.23361558,4.772078319,25.89658945,2.808397457,0.014279433,1.579075495,4.823358999,0
0.001958647,0.222944334,4.985593508,28.71524142,2.804236058,0.01428251,1.733748025,5.745443074,0
0.000839872,0.222718162,4.977484883,28.57653324,2.799746268,0.014798113,0.915164503,15.98960712,0
0.001829917,0.233532607,4.758566777,25.77665479,2.796881267,0.01524028,0.142427094,23.87452819,0
-0.000353145,0.234269139,4.729018197,25.60505751,2.800368718,0.015390538,0.541833569,14.42125002,0
9.17E-05,0.235114256,4.71084498,25.46727984,2.801577922,0.014487244,1.36984899,4.035216428,0
0.002505321,0.233960683,4.755063651,25.80350046,2.796293531,0.014389465,1.386003393,3.904386598,0
0.003446195,0.231586006,4.811081631,26.23252374,2.791911098,0.014375429,1.648330457,5.15616396,0
0.001160516,0.22086044,4.989361928,28.75581631,2.787883159,0.014667223,1.590782371,4.662124023,0
-0.000153259,0.223643174,4.893311476,27.91894552,2.78499903,0.014119725,1.499458555,4.34812855,0
0.003939776,0.235976745,4.667843248,25.00454989,2.781494522,0.014619146,1.414099202,4.668653043,0
0.00052667,0.224390155,4.914303141,28.02915899,2.775899506,0.014304868,1.449289272,4.253497128,0
-0.000204483,0.224354006,4.891704598,27.86201407,2.772117778,0.013908814,1.502102508,3.938529138,0
0.003146681,0.235619819,4.697643497,25.23928626,2.768599101,0.014677884,-0.650060694,49.85564719,0
0.000268557,0.236320308,4.719038094,25.41332877,2.764598574,0.014950007,-0.539049243,45.38814738,0
0.001439085,0.237477421,4.668238926,24.95931904,2.758847046,0.014945815,1.220019298,4.30317642,0
0.001568272,0.236639517,4.671528017,25.00012476,2.753409304,0.014610608,0.963800443,9.568087366,0
0.002332809,0.234215728,4.728843232,25.51068872,2.750694765,0.014471475,1.112971939,11.34140749,0
0.000622807,0.22363594,4.904906744,27.94255166,2.747898592,0.014138496,1.569566371,6.039460544,0
0.000639829,0.22482876,4.873834269,27.73321487,2.745190103,0.014708436,0.548044719,19.01304749,0
0.003903874,0.234484424,4.779383849,25.90505563,2.741686412,0.015021571,0.493286961,16.49266738,0
-0.001472063,0.223717006,4.963670414,28.42589399,2.736326981,0.014987056,0.101877438,27.59275379,0
0.00128047,0.221436854,5.009174294,28.92769149,2.73049687,0.014813253,0.136343997,27.95060396,0
0.003844306,0.222333735,4.972106983,28.55116355,2.725239073,0.014162756,1.308124962,3.977370193,0
-0.001918736,0.21266177,5.116205369,31.00725731,2.721141924,0.014318909,1.388132385,4.343501436,0
0.001308531,0.22299887,4.921720077,28.14061449,2.718202482,0.014620738,1.649823296,5.747873785,0
0.000816422,0.223860623,4.892041579,27.80199175,2.716053282,0.014447956,1.614479568,4.656279584,0
0.001162275,0.223048126,4.952008558,28.35543874,2.71408626,0.014310196,1.346368678,3.365011562,0
0.003474472,0.234484001,4.74623296,25.67426798,2.711199406,0.014454502,1.359256399,4.063033409,0
0.000812903,0.234532311,4.73683866,25.624334,2.708801597,0.014351985,1.420290973,4.611221079,0
-0.000910512,0.222638783,4.929448147,28.28313653,2.708901978,0.014403478,1.457212858,4.810920735,0
0.002388644,0.231778517,4.796400117,26.28824257,2.709025356,0.01444724,1.520075981,4.787505456,0
0.002956663,0.244824841,4.542738045,23.32727419,2.708701379,0.014192181,1.53441857,4.625090675,0
0.001166866,0.234590847,4.731969291,25.52678092,2.708451789,0.013976031,1.470239537,4.581452909,0
0.002780103,0.231300884,4.825706612,26.35094583,2.708846174,0.014063792,1.441769944,4.271430297,0
-0.0021547,0.222603511,4.948169598,28.39167933,2.706945038,0.014354519,1.368043809,3.346874794,0
-0.000780154,0.223033665,4.983105745,28.67753119,2.7026474,0.014307204,1.593276907,5.39994647,0
0.002410459,0.221735189,4.996407526,28.79237133,2.700187465,0.01429667,1.714100001,6.850550185,0
0.002382287,0.22141915,4.980612645,28.71451182,2.698787253,0.014310675,1.534538927,5.707305606,0
0.000461452,0.222231122,5.017994412,29.01232858,2.697695814,0.01431103,1.564975728,5.535044093,0
-0.000931948,0.223441063,4.963718381,28.55286416,2.694864328,0.014482628,1.527687131,5.195157651,0
-0.001262885,0.23600004,4.4472571,23.42793955,2.69046342,0.014526095,1.478074026,4.895736085,0
0.00063089,0.235532792,4.54973041,24.26829082,2.688715036,0.01437514,1.017362945,10.68942584,0
0.003485713,0.233378356,4.883684875,26.83596098,2.689120647,0.014496212,1.007220381,10.61653731,0
0.004885032,0.232378238,4.824678334,26.32549728,2.687276295,0.014320732,1.440596111,4.421459605,0
0.000924885,0.220771714,5.066640607,29.29791483,2.684794944,0.013770065,1.507805824,4.292776961,0
-0.001855382,0.223350844,4.989220943,28.48517561,2.683387811,0.014641207,-0.292275716,41.56446534,0
0.003607858,0.234735704,4.732008952,25.41938346,2.680705697,0.014938621,-0.199127278,37.35843471,0
0.0010513,0.221284001,5.072379986,29.34579515,2.677280699,0.014319588,1.52758762,4.971825569,0
0.000664522,0.220339369,5.108953856,29.74161699,2.674718039,0.014208068,1.521964212,4.718182891,0
0.001856997,0.220780297,5.061394596,29.33038212,2.673430688,0.01424439,1.567223692,3.819192447,0
0.000701032,0.220952759,5.038411238,29.15360377,2.672930745,0.01455765,1.677436756,4.700113653,0
0.003265039,0.228348848,4.888839462,27.14875944,2.671664865,0.014142934,1.694361949,4.96819408,0
0.001256954,0.221575895,5.003733354,28.83089415,2.670259694,0.01382989,1.504907073,4.355390543,0
9.92E-05,0.22474645,4.933424203,27.93820752,2.670606886,0.014098137,1.402221577,4.758232028,0
-6.30E-06,0.221253735,5.035222103,29.06227278,2.671524756,0.01423967,1.566494933,5.094481725,0
0.000697658,0.221958763,4.996806552,28.71042793,2.672873415,0.0141027,1.523680114,4.240953504,0
0.001567553,0.235503679,4.728197364,25.39495179,2.677026912,0.015073714,0.59646904,12.53837445,0
0.00210362,0.233843565,4.791201294,25.9962911,2.678907394,0.016037707,0.610478286,11.37107138,0
0.001481153,0.218424229,5.13461597,30.06061868,2.683942086,0.016394025,0.934528305,3.18151022,0
-0.000100283,0.221537158,4.974099426,28.57624552,2.690663474,0.014258914,0.910795443,11.0710912,0
0.001248727,0.233935657,4.724897319,25.49298853,2.689662225,0.014720604,0.935913632,9.92129535,0
0.003439355,0.240299567,4.704191294,24.65633283,2.687894276,0.014739307,1.56858769,4.120379799,0
0.000831279,0.231835688,4.86348707,26.66881997,2.686642947,0.014501762,1.652725755,4.726688025,0
-0.000856299,0.224071189,4.977511377,28.398132,2.684885243,0.014294666,1.554787002,5.398677271,0
0.002518962,0.232289085,4.822297047,26.28847,2.68268874,0.014285474,1.416830498,4.32382037,0
0.001297041,0.219666388,5.103700356,29.70599443,2.68052003,0.01441135,1.502731965,4.637818035,0
0.001012508,0.219556427,5.088324877,29.64138054,2.678382765,0.014243078,1.587748672,5.285820907,0
0.001974315,0.231187293,4.858246132,26.68964386,2.677426365,0.014221031,1.250672761,9.983895615,0
0.001000848,0.220337692,5.081841467,29.51732701,2.677355903,0.014337168,1.185363498,9.473787836,0
0.001508174,0.220335241,5.08169967,29.44463876,2.675489862,0.013987422,1.404717225,4.025751308,0
0.000764531,0.220768459,5.080936111,29.44514016,2.672800391,0.013953546,1.335095023,3.587022194,0
0.001683707,0.220566302,5.092139362,29.63149633,2.670526614,0.014241863,1.426086173,4.555560173,0
0.001703123,0.23645994,4.432816573,23.44864881,2.673616954,0.015413574,1.213626733,3.484550309,0
0.000129926,0.237642387,4.421260188,23.34703538,2.677942167,0.014675719,1.239953588,3.165525149,0
0.003074203,0.231683589,4.885801396,26.93009501,2.675581251,0.014498118,0.883129042,9.468651507,0
0.002176817,0.229694851,4.963486039,27.57575625,2.670223836,0.014838132,0.013898621,21.259872,0
-0.001127956,0.218608932,5.174868001,30.37427656,2.668473543,0.014657866,0.64083883,18.30787396,0
-0.000283742,0.219939709,5.063161726,29.36040668,2.668513162,0.014255432,1.633602181,5.50324851,0
0.003356173,0.231597564,4.814551191,26.28114305,2.66768074,0.014142856,1.573157129,4.431578859,0
0.000680616,0.220611474,5.071734837,29.46206607,2.667610659,0.014186265,1.593972936,5.0712734,0
-0.000233956,0.220547834,5.078011281,29.50555278,2.665371541,0.014383373,1.448683016,5.015534208,0
0.003439845,0.231168406,4.845676959,26.53085454,2.662258966,0.014110154,1.42099014,4.560098986,0
0.002103993,0.231709228,4.828256806,26.41268083,2.659811074,0.014195151,1.480138964,4.339160617,0
0.00109656,0.232496906,4.778902534,26.02630311,2.656616919,0.014156831,1.500715011,5.248511345,0
0.001371604,0.230443341,4.873301956,26.78862028,2.652937099,0.01427777,1.433372263,4.161456754,0
-0.000167182,0.217616824,5.193223604,30.5388418,2.649523326,0.014068923,1.391938837,4.142385056,0
0.000457476,0.218449715,5.132915067,29.95628581,2.647985186,0.014199558,1.48463297,5.483032113,0
0.002414579,0.229415574,4.917499412,27.07519052,2.646386719,0.014793075,1.626334908,5.796382856,0
0.000167901,0.218691783,5.163627164,30.21764283,2.643176651,0.0146324,1.465437058,4.955916915,0
-0.000340838,0.219595057,5.087769251,29.62984663,2.641299711,0.014330053,1.653329466,5.993821738,0
0.001739698,0.231399091,4.846996377,26.63882965,2.639149475,0.014721703,1.067858891,11.89924047,0
0.001918344,0.231266422,4.878894088,26.94710038,2.63458895,0.015128163,0.968032008,9.790483832,0
0.001963512,0.217795597,5.178004741,30.5584898,2.629177638,0.015039884,1.598795661,5.286196179,0
0.00125785,0.217097525,5.15031463,30.23465194,2.628154755,0.014723282,1.721110716,5.447803932,0
0.001241717,0.229773012,4.837298393,26.55880448,2.629771423,0.014416536,1.723476474,5.725947198,0
0.00044135,0.219510906,5.070189962,29.55731551,2.628671319,0.01416368,1.665141741,6.211346721,0
0.00060073,0.219633816,5.074672144,29.57682073,2.627257156,0.01424714,1.607626274,5.527971809,0
0.003971218,0.2304487,4.793009355,26.17670331,2.627018847,0.014313401,1.560091432,4.495075011,0
0.002769725,0.229563559,4.858677021,26.65009105,2.62722386,0.014188713,1.424585391,4.148453444,0
-0.00136445,0.218723863,5.140860993,30.08274598,2.626479285,0.014366096,1.313899311,4.331453456,0
0.000125094,0.219339121,5.082105741,29.5695146,2.625354058,0.01493446,0.158105037,22.68041715,0
0.005148167,0.241772977,4.590499637,23.65087383,2.624960872,0.014739021,0.142514787,23.04162153,0
0.01229393,0.246523226,4.246222654,21.13817837,2.633216258,0.022366828,1.854200859,4.780652258,0
-0.00377436,0.245103228,4.154638606,20.97539949,2.643687657,0.021493093,1.401846641,3.417395578,0
-0.010437698,0.256662721,4.374008615,21.63446703,2.638682611,0.016675414,1.026525474,2.570578109,0
0.003905515,0.251308425,4.575963295,23.04963056,2.624554552,0.016311417,0.853945202,2.46500571,0
0.003136937,0.229631619,4.949886325,27.45346458,2.614710726,0.014961945,1.356038012,3.808901785,0
-0.001263715,0.209223306,5.48976115,34.13536368,2.610990524,0.013780292,1.531146548,5.038609935,0
0.00014292,0.215884949,5.100807215,30.38552793,2.616257368,0.015713203,1.037073434,1.931050215,0
0.002948109,0.242419263,4.435152789,23.08194722,2.625145721,0.015500409,0.335372544,16.46125421,0
0.002232101,0.245283329,4.504545781,23.15775629,2.623449653,0.015499159,0.459275979,16.86498976,0
0.0016138,0.238659769,4.747422535,25.12313535,2.623908506,0.015414478,1.160091095,3.559605058,0
-0.000300443,0.232733986,4.849789295,26.51577844,2.625124795,0.014962626,1.303637196,3.589710934,0
0.001120383,0.224168868,5.061846457,29.02965821,2.619227818,0.014044336,1.561298109,3.942636357,0
-0.00093992,0.221676757,5.065876397,29.23192623,2.620126942,0.015150979,-0.497015121,41.85706891,0
0.000131646,0.226464468,4.890939681,27.64870396,2.629317365,0.016295905,-0.711908372,34.03284144,0
0.003909079,0.227363915,4.951318572,27.89770321,2.631695557,0.014810953,1.122160813,2.671165574,0
0.000929993,0.224232892,5.069065946,28.90023308,2.623210362,0.014998092,0.873095414,7.315164402,0
0.000571943,0.234218432,4.818371725,26.13634615,2.618829509,0.014103777,0.815620122,8.958597411,0
0.002205237,0.226927777,4.920587546,27.90797184,2.625006921,0.015598325,0.992561147,3.356287027,0
0.000856123,0.23014105,4.845537015,27.03858552,2.629213769,0.01444753,1.326024724,4.250006583,0
0.00079868,0.235534962,4.80509732,25.90479929,2.62102138,0.016066356,0.990332816,2.356522073,0
0.002966727,0.222902199,5.123595648,29.12418623,2.615560804,0.015053264,1.232378072,3.362292464,0
0.001729228,0.228635001,4.926379718,27.14299621,2.621782902,0.015861297,-0.152421321,21.91805881,0
0.002916445,0.23543861,4.787910339,25.6053156,2.622975268,0.015023427,-0.124209914,27.57783943,0
0.002234456,0.231738911,4.942469211,27.11409884,2.61483029,0.014621623,1.312232411,3.543888949,0
-0.001438699,0.219951889,5.227035362,30.54302073,2.60739054,0.01440942,1.540873584,4.092498481,0
-0.000185074,0.217429595,5.203799959,30.48500149,2.602978243,0.013980636,1.462930039,5.410320711,0
0.001695419,0.21809926,5.107302345,29.64592391,2.603541292,0.014206424,1.471103614,5.282588927,0
0.002235195,0.229991324,4.89167605,26.86685178,2.603207016,0.01426796,1.604930769,4.530535421,0
0.001154859,0.233169222,4.885005045,26.69512418,2.597353418,0.014815626,1.040990152,7.405526631,0
-0.000146746,0.218762256,5.204545795,30.46290812,2.601960427,0.019743282,0.629065936,1.851807136,0
-0.000874172,0.216750155,5.175087358,30.41867895,2.613591657,0.017844417,0.359034646,1.926434727,0
0.001571928,0.234213768,4.752174088,25.75988686,2.612668828,0.014407497,1.429290286,4.300131629,0
0.002489044,0.243126226,4.661761658,24.2406134,2.602799661,0.01543816,0.431219379,13.54802492,0
0.000793769,0.228377975,5.030978718,28.12082277,2.596170207,0.014583946,0.637764788,15.92728541,0
0.003125885,0.232813527,4.81538585,26.15524686,2.595220784,0.014353623,1.315309853,3.724571636,0
0.001424384,0.235341202,4.739887678,25.53439938,2.589228221,0.015851546,1.039417622,3.091527806,0
-0.00115998,0.231786349,4.868317099,26.6604855,2.58051202,0.014632418,1.513525649,5.048230829,0
0.001087588,0.23100947,4.924133277,26.93344396,2.574024582,0.014315621,1.340592312,3.676784404,0
0.003174938,0.229849872,5.003883732,27.59949309,2.567151642,0.014438872,1.335476453,3.990441889,0
0.002731129,0.228110611,5.00994499,27.75043876,2.561014121,0.014396287,1.008857819,7.549537355,0
0.000563854,0.231139909,4.824836389,26.37708073,2.559666988,0.014009029,1.009960845,8.363417003,0
0.002013879,0.241707587,4.658365382,24.24263032,2.558960451,0.013856465,1.318830198,3.876023089,0
0.000443455,0.230621782,4.984268028,27.46217178,2.552244404,0.014611548,1.240348069,3.121992897,0
-0.00045159,0.221603297,5.115360579,29.57727195,2.54451343,0.014477375,1.395010855,3.353081282,0
0.000495104,0.236366041,4.680145939,24.93646135,2.544211687,0.015048912,1.380388367,3.376775522,0
0.002479045,0.25279839,4.335124657,21.5761181,2.542771476,0.015552632,1.259988702,3.166952381,0
0.003069822,0.25882082,4.218068091,20.40018769,2.545468903,0.016215039,0.99470532,2.32161627,0
-0.001584961,0.245424758,4.471690825,22.91227412,2.550416674,0.015065348,1.109130649,3.164886471,0
-0.000289908,0.2391373,4.613568827,24.64712278,2.544483839,0.015111449,1.212892981,2.823891122,0
0.002799107,0.257825277,4.292567928,20.76031256,2.541977692,0.014528484,1.323068737,3.079781147,0
0.000985094,0.259768287,4.30215447,20.53857035,2.543092019,0.014846574,1.347817743,3.409217111,0
0.002933219,0.260822165,4.29477222,20.5014531,2.539941733,0.014859078,1.471216744,4.231956803,0
0.001941526,0.268962313,4.152784411,19.29186899,2.541687339,0.015237183,1.139426133,5.043894135,0
-0.001651265,0.272011982,3.734779882,16.99817564,2.553519058,0.029848005,0.58575098,8.942613828,0
0.001197667,0.265812735,3.849855167,17.89220867,2.55065324,0.030576347,0.756716221,8.014491123,0
0.003726831,0.259104834,4.409328012,21.01606277,2.542027283,0.014268351,1.467924337,4.720289644,0
0.00282482,0.252927035,4.504750236,21.92267056,2.550134441,0.01616008,1.23699759,3.713154778,0
0.000794089,0.233858,4.927898612,26.59821557,2.547846549,0.017425088,1.027899359,2.790096881,4
-9.06E-05,0.222913641,5.299595203,30.48720994,2.536025129,0.014677789,1.280864219,4.875072261,4
-0.001545155,0.225003277,5.27357309,30.10178911,2.531344768,0.014540768,1.149650622,5.490850312,4
0.003537853,0.234385501,4.997837972,26.90054815,2.527578027,0.014494275,1.304890363,5.306053251,4
0.002354893,0.234327412,4.983866121,26.75362889,2.526505661,0.014146324,1.395667947,5.171959251,4
-0.000612906,0.231894738,5.13445212,28.19482815,2.526445552,0.013974165,1.413938705,4.819215951,4
0.002160788,0.227227123,5.229810169,29.15170691,2.526332746,0.014026387,1.687108441,6.249435276,4
0.000224409,0.218648567,5.371160595,31.13413265,2.527621678,0.014288072,1.575590467,6.305131894,4
-0.000127971,0.221152542,5.3515936,30.85860365,2.528820801,0.014323743,1.381947464,4.943027095,4
0.001004262,0.221885168,5.346897311,30.87078512,2.530519867,0.014224946,1.521143411,4.728263695,4
0.00170753,0.222217549,5.296301071,30.43098425,2.530063738,0.014174677,1.533302006,4.307882632,4
0.001197405,0.224063314,5.220247826,29.6650347,2.529073988,0.014049585,1.559624388,4.684424049,4
0.00099455,0.225337147,5.205450469,29.55655839,2.529970878,0.014059459,1.662161053,5.529111773,4
0.002280834,0.224430056,5.239153562,29.89440191,2.529599272,0.014082613,1.569481542,4.780272309,4
0.002454476,0.223667011,5.246197545,29.98077329,2.527756446,0.014341843,1.490482286,4.288236525,4
0.000377714,0.212202713,5.507799787,33.36075801,2.524601746,0.014591536,1.574489736,5.745236532,4
0.000362817,0.2118717,5.495378684,33.2288287,2.522386605,0.014405839,1.757203184,8.582653399,4
-0.000353008,0.222079871,5.273182598,30.25538712,2.522699193,0.014235131,1.597908849,8.512233018,4
0.000150146,0.223478639,5.248645131,29.99597215,2.521894182,0.013935553,1.418091612,6.048450611,4
0.004083546,0.234224977,5.008213857,27.03038614,2.520584542,0.01397028,1.613216589,5.211558563,4
0.002580669,0.23227472,5.066531087,27.6353367,2.520551137,0.014377985,1.568874269,5.803881036,4
-0.001989232,0.231569139,5.084330869,27.90992631,2.520523126,0.014497556,1.503148423,6.295583403,4
0.001282811,0.241977098,4.863235667,25.31105346,2.519996916,0.014098347,1.539624298,5.401018921,4
0.003098955,0.232146161,5.079996392,27.74513541,2.520484325,0.014422587,1.067999293,11.47477026,4
0.000517757,0.220396509,5.352358742,30.97645819,2.521687371,0.014345826,1.052710032,11.94696842,4
0.002592074,0.230716235,5.075648996,27.75260076,2.521382904,0.01397123,1.388039906,4.588605571,4
0.001761828,0.232565239,5.025499062,27.30588446,2.519047001,0.01449646,1.47297831,5.291001187,4
0.000222427,0.234781065,5.01133294,27.14101357,2.516971697,0.013960885,1.680784392,5.403640075,4
0.002050454,0.234185808,5.013897012,27.15135059,2.515342821,0.01417277,1.565731295,4.28569046,4
0.001558777,0.223443047,5.178326416,29.49019514,2.514205224,0.014678173,1.171198103,11.3817959,4
0.000502579,0.232708971,5.027430818,27.37724477,2.515816225,0.014912126,1.21791512,13.78472515,4
0.000839872,0.23021594,5.122229388,28.21626108,2.527058193,0.017654081,0.840770652,2.991828629,4
0.003500381,0.229012653,5.097889842,28.01818372,2.535758863,0.014452443,1.383288144,3.949618878,4
0.001390614,0.229257374,5.095029865,27.98364884,2.534535762,0.014389931,1.431396285,4.089070902,4
-0.000985055,0.219742855,5.333350454,30.96661326,2.534456199,0.01447528,1.425875401,4.156949318,4
0.001409173,0.219551858,5.339329052,30.97789937,2.53402383,0.013988707,1.433731415,4.132002616,4
0.003792964,0.220638204,5.210560751,29.81943574,2.534660721,0.014415677,0.049605146,37.00010562,4
0.001776699,0.23409174,4.916856775,26.35970394,2.535912214,0.015071594,-0.177385195,36.34563173,4
-0.001340731,0.234267163,5.010944491,27.11938323,2.534944207,0.014447523,0.998164322,9.096564922,4
0.003053709,0.230066518,5.13527087,28.25018515,2.532991791,0.014327495,1.52471658,4.776842097,4
0.001363828,0.219460364,5.311398352,30.79459246,2.532461384,0.014119597,1.586509435,5.118430071,4
0.001092538,0.220743094,5.23952869,30.14646222,2.5331107,0.013865251,1.506750914,4.503127161,4
0.000705885,0.22216357,5.252185277,30.10767436,2.533097676,0.014371878,1.603373293,5.518402727,4
-0.000333088,0.212412064,5.465066479,33.09750959,2.531543241,0.014570672,1.450358845,5.914921237,4
0.001689737,0.221231914,5.256143962,30.25167163,2.53100684,0.014244108,1.381758913,5.495715102,4
0.003200926,0.219760683,5.319003793,30.75221805,2.535700226,0.015066353,0.46174276,18.32581303,4
0.001012711,0.209825594,5.564908612,34.01645623,2.538565663,0.014605396,-0.090555396,27.45400122,4
-0.001663324,0.210799535,5.54045169,33.84762741,2.537136841,0.01450937,0.922547389,11.13448943,4
0.001955043,0.220643707,5.302014906,30.59796963,2.536528397,0.014344961,1.565704917,4.967723544,4
0.002463933,0.220488279,5.286196654,30.45384025,2.535215105,0.014478049,0.504749848,20.22558352,4
0.001117035,0.220940214,5.272832761,30.34084508,2.534195437,0.014402217,0.583057996,21.42888511,4
0.000914304,0.221284024,5.280106759,30.40733024,2.533391898,0.014187519,1.623695819,6.363373207,4
0.001148483,0.221136303,5.286105205,30.45197669,2.532373973,0.014191241,1.557264249,5.587321399,4
6.69E-05,0.220709569,5.304536423,30.6469189,2.53209174,0.014185932,1.58654054,5.595484239,4
0.000392055,0.220516724,5.319981292,30.79472765,2.532223293,0.014115047,1.639213408,5.152546825,4
0.001152924,0.220637103,5.320901484,30.81162872,2.532463891,0.014199384,1.57505544,4.073833144,4
0.001654378,0.220303947,5.310833,30.7470331,2.53226362,0.014536178,1.376205539,3.819395527,4
0.001362004,0.220053814,5.302866637,30.64360349,2.530299432,0.014643216,1.389142245,4.770126059,4
0.000749765,0.220097249,5.302222462,30.67734659,2.528585107,0.01440612,1.626677489,5.212569331,4
0.000782867,0.220566333,5.304670558,30.68678958,2.527729361,0.014304296,1.643148824,6.512751473,4
0.002154497,0.220913609,5.294738396,30.52936699,2.525478636,0.01413329,1.604085545,7.349911502,4
0.001339828,0.220361746,5.294097425,30.51731827,2.523784419,0.014376699,-0.597843914,52.20415519,4
0.000501421,0.220874539,5.279388839,30.39363049,2.523776954,0.014631748,-0.477300104,49.06064296,4
0.001512072,0.221343221,5.276023246,30.36154272,2.524191393,0.014139155,1.58724239,5.407585433,4
0.001084566,0.221053056,5.263472136,30.34441817,2.523685619,0.014032476,1.563879346,4.93596173,4
0.000901951,0.221093262,5.257156854,30.31666894,2.523094014,0.014004905,1.727145938,5.513656129,4
0.001367281,0.225209497,5.181385251,29.52347845,2.523184531,0.014203967,1.607189084,5.181151311,4
0.001589545,0.226176876,5.169353986,29.38615148,2.52258279,0.014160709,1.627388916,5.556808987,4
0.001915257,0.221676439,5.270827973,30.33545765,2.522316197,0.014203811,1.706893505,5.982732901,4
0.002148494,0.220092568,5.280716686,30.43336796,2.522749928,0.014111453,1.601466265,5.902113588,4
0.001986152,0.220517341,5.266251155,30.28733985,2.522657122,0.01387902,1.530547578,5.485215805,4
0.00214822,0.221413459,5.24099807,30.1171177,2.52206846,0.014037435,1.419069402,4.614307506,4
0.00052121,0.221465712,5.269161443,30.46360992,2.522586714,0.014263064,0.81489023,14.49271752,4
0.001793924,0.230908072,5.067226055,27.7651455,2.523103169,0.014641507,0.980258232,13.82760727,4
0.000254615,0.23353576,4.969608098,26.87993119,2.520840727,0.014761282,1.57475747,5.220948384,4
0.000709521,0.235572901,4.897383405,26.22391866,2.518212891,0.01421229,1.321079228,4.904242955,4
0.000496092,0.258493792,4.390364632,20.98184767,2.520689665,0.014701319,1.077109774,3.972649753,4
0.002157767,0.268088259,4.004268333,17.99347281,2.529217093,0.027768681,1.244936897,3.62366445,4
0.00121548,0.259779402,3.969952221,18.30570008,2.543184335,0.03082277,0.418602207,1.342075459,4
-0.002422093,0.255021936,4.315347454,20.95133345,2.543364934,0.020323497,1.390926976,2.654733926,0
0.009437223,0.245987935,4.495073087,22.55831918,2.539662443,0.020150248,1.538255319,3.740638508,0
0.001910588,0.2348226,4.589396075,24.25119201,2.559764644,0.025308747,0.131067878,-0.025564766,0
-0.003209754,0.238511017,4.482391465,24.02778264,2.570931843,0.019307458,0.342932971,1.162199871,0
0.0010544,0.244435234,4.40647752,22.98356619,2.56987757,0.018899451,0.516115704,1.694158672,0
-0.000433502,0.232707995,4.804171045,26.1782541,2.579189192,0.01601044,1.105443591,3.253312046,0
0.002818752,0.222454982,4.951356269,28.17257546,2.584179851,0.01480696,1.426005125,4.60060771,0
0.000954189,0.22331682,5.008063516,28.5430764,2.568906294,0.020500604,0.549304948,0.735800117,0
-0.000631884,0.221115177,5.210964831,30.166653,2.551306752,0.01492625,1.385950799,3.84259397,0
0.000838741,0.228653352,5.045505669,27.97652067,2.545974895,0.014155606,1.499574184,4.591618052,0
0.003746783,0.237234525,4.810026416,25.36499023,2.544176156,0.013822345,1.393776217,4.072225436,0
0.00088572,0.219741766,5.121948008,29.64469303,2.54812197,0.014581868,1.455163216,4.735870502,0
0.00140678,0.223457406,5.00577699,28.63906139,2.558475821,0.016135048,1.230226514,2.854076356,0
0.002101822,0.246316187,4.477137471,22.86597609,2.563126373,0.015506369,1.197428164,3.374498474,0
0.000351118,0.240040314,4.50562708,23.80039512,2.565984944,0.015688701,0.780318948,7.500666303,0
-0.000116684,0.233752656,4.651169097,25.56915889,2.56883703,0.01488369,0.664906386,9.59107348,0
-0.000638822,0.245171159,4.494588393,23.36558243,2.564779772,0.014719267,1.470119589,6.848683935,0
