mean_ecg,std_ecg,skew_ecg,kurt_ecg,mean_eda,std_eda,skew_eda,kurt_eda,label
-0.001761278,0.264594944,3.427114788,19.29131223,4.112955911,0.141068752,-0.194037218,-0.764682496,0
0.001390797,0.27008295,3.22640376,17.56414391,4.219578443,0.084247465,-0.693795396,-0.751793833,0
0.002907447,0.255538158,3.452890861,19.82611888,4.239159284,0.020276309,0.446659056,0.809030439,0
0.001254887,0.258388752,3.310622721,19.29151876,4.211567252,0.023316068,0.402172507,-0.365156327,0
0.001084403,0.256116251,3.214835032,18.76858305,4.186928395,0.019785198,0.874200951,2.372570917,0
0.001094402,0.26792363,3.106686269,16.6296466,4.281231253,0.106171398,0.130554716,-1.687158629,0
0.001237714,0.27006686,3.252172664,17.00760022,4.360774013,0.035609456,1.018696808,0.303523278,0
-4.72E-05,0.253473159,3.649941146,20.07605047,4.364125878,0.046601504,0.869349556,-0.657359589,0
0.001314743,0.250721904,3.762737279,20.67964569,4.385022518,0.056357488,-0.306921478,-1.507147399,0
0.001784651,0.243757022,3.919239591,22.36045249,4.3484072,0.056147808,0.502564661,-1.120190228,0
0.001327776,0.246822388,3.782704124,21.32523093,4.306271035,0.033369319,0.061974041,-0.921595797,0
0.001506677,0.249518378,3.653932437,20.5013619,4.308717128,0.037204027,0.42536813,-0.505275556,0
-0.00775247,0.24193651,3.743813903,22.0533938,4.347709165,0.111243275,2.677826099,7.202375434,0
0.000937291,0.252583058,3.542410714,19.80889126,4.569812666,0.232213862,-0.043181446,-1.501283294,0
0.007126249,0.258049061,3.392973561,18.46323858,4.76819785,0.107771429,0.839633237,-0.572316374,0
-0.000482208,0.257266656,3.378815904,18.75666817,4.927441842,0.191043669,0.044573363,-1.148937829,0
0.004954043,0.262643416,3.302678037,17.70007357,5.146556364,0.098048584,-0.578969406,-1.290893872,0
0.002667801,0.254906542,3.293877196,18.24425818,5.197458649,0.028477869,0.512363821,0.111436203,0
0.000295382,0.253154206,3.200604954,18.2576213,5.36785638,0.225381977,0.53161614,-1.49888201,0
6.20E-05,0.250674959,3.278662462,18.80994111,5.528185763,0.135211488,-0.870421728,1.225983104,0
-0.002097937,0.249625304,3.392727235,19.53464929,5.495472445,0.038901012,0.276072455,-0.316049131,0
0.001494546,0.250167152,3.403089144,19.56534704,5.58393789,0.109006752,0.090668517,-1.440823349,0
0.002579139,0.249663325,3.387414919,19.54177096,5.694985308,0.050267385,0.446159638,-0.644984033,0
0.000935146,0.247809254,3.40454864,19.77547662,5.706265204,0.046977818,0.466474223,-0.439973189,0
-1.03E-05,0.245877503,3.418581374,19.95724305,5.674045399,0.052493009,0.621433732,-0.731416144,0
0.00184414,0.256979591,3.291206921,18.27810962,5.69363327,0.063160632,0.122747796,-1.437524623,0
0.002128935,0.245991282,3.417136311,19.9787486,5.714139502,0.045114669,0.123471503,-0.867125213,0
0.000673946,0.243286835,3.429437063,20.09578636,5.686267526,0.026281333,0.220190862,-0.638024822,0
-0.010966579,0.249670108,3.42558441,19.78379189,5.827324786,0.203710772,1.787193652,2.593828784,0
0.000615346,0.259701879,3.374501764,18.75852791,6.349139023,0.44138833,0.123359135,-1.392696175,0
0.012012046,0.26496716,3.335016549,17.82752204,6.796045903,0.177227276,-0.636489898,-0.842373769,0
0.000385189,0.246448567,3.642204959,20.9516645,6.855583627,0.055805177,0.321170156,-0.920945786,0
-0.000275149,0.245848826,3.613186018,20.77559825,6.829075187,0.060583432,-0.136169364,-1.253091766,0
0.002111827,0.256227844,3.41472624,18.78024009,6.82058754,0.050444843,-0.293314224,-1.011012337,0
0.000864153,0.258122314,3.369503099,18.78406302,7.060390254,0.346779162,0.954519004,-0.936736942,0
0.001016844,0.253868354,3.358925167,18.96002416,7.446700396,0.323227206,-1.040313349,-0.296040172,0
0.002407608,0.240226544,3.621007944,21.31159641,7.461436789,0.179752542,0.641602955,-0.874079743,0
-0.002047034,0.246369961,3.608140964,21.01437992,7.315415464,0.043768923,-0.19559891,-1.403421143,0
0.002697,0.248910629,3.586236111,20.50583701,7.296222905,0.037988495,0.148273983,-0.614732636,0
0.003154221,0.242820271,3.769079013,21.65151166,7.19073579,0.095930868,-0.166179138,-1.454387847,0
0.000209008,0.248000284,3.654610435,20.38109249,7.009215164,0.112918713,-0.276931615,-0.68207595,0
0.000803944,0.241582041,3.704985171,21.54694375,6.846994455,0.093524307,-0.056374214,-0.960056669,0
0.001406257,0.24483811,3.559612261,20.82260977,6.727760206,0.078756055,-0.05671985,-1.148887532,0
0.002374296,0.263100281,3.191620603,17.35139367,6.709849984,0.108068932,1.626743101,2.021623399,0
0.001473855,0.259432848,3.272019768,17.93156015,6.822605242,0.13553006,0.022307659,-1.356101318,0
0.00116924,0.247698045,3.634453759,20.44015804,6.833329773,0.091553941,0.822431963,-0.465125669,0
0.001390104,0.246826486,3.790993125,21.05754787,6.707829012,0.065439058,-0.092858531,-1.350669611,0
0.001042164,0.236582136,3.95831297,23.12300471,6.619163459,0.046031893,-0.318949249,0.049013534,0
-0.000837237,0.231168085,3.834575924,23.24945546,6.580516161,0.070105677,0.838456928,0.450882113,0
0.002986836,0.259312475,3.111157052,17.59138194,6.730153111,0.186985686,0.196957717,-1.261281864,0
-0.001431662,0.265296429,3.145301065,17.21374714,6.788335855,0.166308549,0.069573784,-1.223781531,0
0.002266663,0.247521235,3.782247047,20.82080365,6.735548074,0.157576837,0.674866999,-0.692014242,0
0.003250227,0.236967532,3.892865781,23.26328421,6.695589175,0.150527482,0.738736735,-0.021796703,0
0.000140821,0.251512789,3.46688891,19.67095533,6.583062199,0.089802201,0.422370352,-1.075996788,0
0.003768847,0.252815892,3.622236568,19.47987245,6.503569249,0.083835483,0.749921305,0.093962104,0
-0.00066874,0.229151245,4.205725233,25.08330476,6.38171572,0.082042122,0.134866746,-1.006367222,1
-0.000854972,0.227923787,4.192549334,24.95704801,6.252775683,0.069115174,0.325690499,-1.180865294,1
-0.002617153,0.230812264,4.153948015,24.59319351,6.151379068,0.048048762,-0.065449161,-1.266716614,1
0.00242994,0.248072298,3.70743199,21.06340538,6.080275236,0.036824799,0.663074445,-0.361286193,1
0.004245627,0.249082855,3.510320959,20.35122037,6.022922025,0.031844525,-0.285332381,-0.349302933,1
0.001878309,0.246737931,3.558509655,20.4789711,5.973035267,0.04425589,-0.531537444,-0.660582817,1
0.000900853,0.244404511,3.691920994,20.92347354,5.948352323,0.042061319,0.37530716,-0.077371814,1
0.000292616,0.230520447,4.027382422,24.2067209,5.907970265,0.048608934,0.053545465,-0.810609252,1
0.001511117,0.241760572,3.888903752,22.18002041,5.828057698,0.04897404,0.118528085,-1.256530099,1
0.001463189,0.245393157,3.706224276,21.11932464,5.771592876,0.028106802,0.05161672,0.552093657,1
0.002790632,0.235380015,3.825625002,23.00562342,5.711990193,0.051354732,-0.101145155,-1.216408753,1
0.001263885,0.23660962,3.798630865,22.93471155,5.638665554,0.036695388,0.305715582,-0.853721009,1
-0.000321566,0.238576002,3.634674021,22.07713919,5.585639027,0.034116824,-0.334307333,-0.491733027,1
0.003127618,0.255686486,3.537703517,19.25388185,5.685430963,0.159912771,0.650425691,-1.270746388,1
0.000234735,0.254266762,3.60053005,19.70865638,5.772024209,0.107755323,0.179828257,-0.550733841,1
-0.000457319,0.242122043,3.759393652,21.7651175,5.675089863,0.067521683,-0.084854228,-1.118072904,1
0.002943296,0.239916473,3.910226618,22.38727915,5.567972837,0.057291576,0.095449911,-1.078508609,1
0.000138644,0.232625041,4.005887335,23.96130147,5.48550415,0.043785187,0.135692307,-1.107404674,1
0.00088247,0.243049281,3.850300232,21.87201401,5.419558334,0.037165564,0.443333506,-0.66207751,1
0.002589523,0.248970926,3.802425598,20.67270137,5.363770349,0.029094425,-0.045419244,-0.666306448,1
0.003807155,0.235319952,4.161950574,23.87372328,5.312790135,0.031374728,0.063823537,-0.359242704,1
0.00083207,0.226883933,4.287376091,25.93322217,5.265463802,0.027042956,-0.046540904,-0.543755039,1
-0.000660468,0.229345989,4.07012181,24.74753709,5.21724374,0.034106759,-0.194695717,-0.716613005,1
-1.90E-06,0.228993871,4.16793184,25.13912238,5.164608002,0.033270805,0.180643705,-0.539142792,1
0.001047069,0.239786251,3.95073988,22.4851781,5.115345655,0.030009145,0.39767979,-0.094251612,1
0.0025674,0.239484643,3.909418879,22.36518913,5.070098441,0.028734459,-0.425070645,0.337649077,1
3.15E-05,0.23059931,4.093782945,24.56224649,5.024355861,0.032600965,-0.063218874,0.065454023,1
0.000159014,0.230937202,4.130611592,24.63530137,4.979136004,0.027541412,0.192338715,0.373732558,1
0.001020957,0.230093098,4.11337617,24.75132812,4.934713255,0.029038138,-0.044538847,-0.203848914,1
0.001973988,0.241379177,3.884550219,22.16794959,4.890420205,0.027484272,0.05983603,-0.064586996,1
0.000549761,0.242762247,3.889035953,22.06868521,4.854886246,0.021613843,0.506186495,0.41961913,1
0.001449535,0.243086317,3.860764849,21.82875142,4.823311452,0.021739915,-0.128542957,0.173811893,1
0.001962799,0.240662623,3.963682045,22.50659311,4.781763131,0.030384215,-0.158948963,-0.633316576,1
9.55E-07,0.226572772,4.362482721,26.45463574,4.736371177,0.027582061,0.156251794,-0.339483197,1
0.001679698,0.23606652,4.205112147,24.13206483,4.707042749,0.018080328,0.36818707,2.29667981,1
0.001276245,0.22681811,4.336848803,26.04681891,4.677150454,0.025773776,-0.129950148,-0.527202688,1
0.000692525,0.218676134,4.472597739,28.10491798,4.649633408,0.015009929,0.720672259,3.077785367,1
0.002236221,0.240058508,4.016677021,22.74909729,4.633642197,0.016423065,-0.205338846,3.741059087,1
7.50E-05,0.239385676,4.011540747,22.83821896,4.607791519,0.021388428,0.288772806,0.094864968,1
-1.90E-05,0.228996706,4.209821718,25.24711,4.587257821,0.012324773,0.670245855,9.789886165,1
0.002507139,0.227338199,4.256717808,25.71391705,4.567227336,0.020309368,-0.042156306,0.478575773,1
0.002251955,0.237970658,4.077093246,23.28670292,4.538732365,0.01915232,-0.603791497,16.74605335,1
0.001742275,0.239332575,4.012546671,22.87435683,4.52419439,0.013381217,-1.743153253,60.96413364,1
0.00054213,0.22840174,4.202101052,25.27439559,4.517568098,0.012353503,-0.109097482,32.1163292,1
0.000577868,0.227862771,4.256422324,25.65206668,4.502961349,0.015190581,-0.221177665,9.969626063,1
0.000604719,0.228361902,4.232302575,25.61618293,4.48454192,0.014428028,0.46333246,4.211198285,1
0.000616032,0.229673078,4.224113201,25.37800928,4.465004022,0.016321657,0.203321145,2.021555116,1
0.001693353,0.228229817,4.298243587,25.82058166,4.44500558,0.014963985,0.794565761,4.990862323,1
0.001669837,0.228029406,4.281472221,25.67872392,4.424255916,0.016795628,0.043978446,2.240762205,1
0.001764267,0.228932186,4.286440142,25.61242209,4.402767127,0.015807582,0.715723232,4.64419857,1
0.000995891,0.229227725,4.212197071,25.15899592,4.382872227,0.015662312,0.170108214,4.196095443,1
0.001380308,0.244205147,3.861092169,21.61930993,4.359901319,0.017571295,0.277933241,1.31335061,1
0.001391471,0.24515052,3.941494186,21.92429608,4.335850198,0.016300412,0.09422645,4.407182419,1
0.001682988,0.241959332,4.067109867,22.68886974,4.314957482,0.015852694,0.191070394,4.168718225,1
0.001849862,0.242201048,4.031133702,22.42869085,4.295036479,0.016312678,0.273059926,2.812244794,1
0.000562507,0.232644289,4.203790134,24.63304716,4.276035527,0.014948601,0.400094857,2.562984794,1
0.002001722,0.231147376,4.268197432,25.12439813,4.257411248,0.014930632,0.473188066,3.958379509,1
0.001197765,0.230397828,4.300762533,25.30424782,4.241359874,0.01287408,0.527502392,9.05158364,1
0.000373019,0.230566927,4.240222565,25.04864686,4.227621514,0.01355746,0.353723507,3.463905342,1
0.000513487,0.231218466,4.164699183,24.6970355,4.213698251,0.012665098,0.54469137,6.238548544,1
0.001384774,0.24214164,4.008929299,22.44435331,4.198339898,0.014991446,0.354595867,3.483128011,1
0.002207748,0.240292243,4.081590217,22.94978451,4.177533122,0.017328107,0.710758111,3.034092686,1
0.000830579,0.229153082,4.261195824,25.32164382,4.15784111,0.013890389,1.088614534,8.766870501,1
-0.000205634,0.230138221,4.230275905,25.08409833,4.142155675,0.013485691,0.561315952,4.248028073,1
0.000840022,0.229638917,4.252744319,25.33099733,4.127076231,0.013492616,0.475449539,5.311841909,1
0.001562367,0.229517524,4.257570891,25.31552823,4.112542452,0.013621836,0.407454453,9.466730347,1
0.001231253,0.230092288,4.251323248,25.16624215,4.101328986,0.011921641,0.476545175,21.73967182,1
0.001156174,0.228155396,4.281294578,25.62330328,4.092615618,0.012060907,0.623135391,15.80811196,1
0.000971545,0.227535054,4.300684869,25.81186838,4.083454023,0.011627235,1.380387772,14.46405398,1
0.000554273,0.228349078,4.278598167,25.57306782,4.077356611,0.011001823,1.384734176,17.15075529,1
0.001336336,0.227517497,4.260963309,25.58353819,4.076345444,0.011601233,0.889123759,10.63011647,1
0.001367065,0.228218108,4.254489448,25.45696346,4.072140394,0.012487629,0.655204565,9.201560505,1
0.000874616,0.228885899,4.29354202,25.60703688,4.0630273,0.012230996,-0.624988568,43.67984312,1
0.000164134,0.227976708,4.383201458,26.15690485,4.050475856,0.014520645,-0.135233357,19.58127248,1
0.001835645,0.227536965,4.369920424,26.21681859,4.03554039,0.013234349,0.73497097,7.181405243,1
0.003617517,0.227618641,4.355396566,26.06117303,4.023353849,0.012824441,0.089189451,10.56988202,1
0.000629517,0.22787777,4.312328273,25.74749613,4.008372988,0.014873093,0.272868996,3.543333079,1
0.000104076,0.229117738,4.220399156,25.25984781,4.003091921,0.012990445,0.067573772,24.8526933,1
0.002618487,0.229200216,4.328739697,25.81143025,3.995186397,0.017531984,0.015616412,6.393598721,1
0.002619101,0.227058026,4.412061982,26.47473283,3.975400707,0.014204041,0.825568408,9.299782824,1
0.000981556,0.227567537,4.294682884,25.79383691,3.96310839,0.012032922,1.793013329,21.33653027,1
0.003119431,0.22853211,4.287073024,25.53813899,3.953967503,0.012267872,1.59583739,14.62644396,1
0.000152448,0.218026343,4.474988074,28.29965896,3.943382481,0.012857464,1.505344233,10.3488284,1
-0.000190129,0.224967662,4.326473519,26.43959627,3.933735166,0.011540622,1.583912434,15.89263793,1
0.002845707,0.240689491,3.996739109,22.6336839,3.925401415,0.01190861,1.197136279,9.993147112,1
0.000669322,0.235104428,4.066487036,23.81827475,3.917664937,0.011416627,1.417030755,15.04358762,1
0.000586088,0.22971678,4.227555163,25.22860851,3.911940057,0.011074555,0.512953459,15.96558461,1
0.001396519,0.229192224,4.246860097,25.36656635,3.906412942,0.011183025,0.534505843,17.80426094,1
0.001580874,0.229908936,4.218675354,25.17620394,3.90121291,0.010983072,1.331593811,16.44251854,1
0.001214879,0.230306992,4.182160871,24.98180117,3.89469986,0.011576183,1.260561843,8.396677373,1
-0.000230236,0.229249424,4.232035837,25.4157835,3.890340151,0.010669951,1.561453326,14.03449855,1
0.00112226,0.239665807,4.081360066,23.11621846,3.888394002,0.011357315,-0.085317875,33.00680842,1
0.002172115,0.239015273,4.117002259,23.30123944,3.880333437,0.013235791,0.377921162,18.25226895,1
0.000897544,0.227512935,4.298266606,25.8285075,3.870224489,0.011561934,1.34352617,15.48906758,1
0.001297688,0.228895847,4.242391552,25.36906708,3.860132108,0.012572784,0.001878254,22.28468765,1
-0.000121222,0.229955014,4.259671449,25.28392547,3.852411379,0.010842717,0.544157573,39.68304465,1
0.000784816,0.240758911,4.000710347,22.57439319,3.847662517,0.011128352,0.777558138,13.74597199,1
0.002688178,0.239601118,4.021997347,22.85724357,3.840988704,0.011194209,0.559800293,11.11362845,1
0.001348912,0.226886713,4.372799427,26.28318328,3.834672165,0.010659881,1.102767614,13.79028595,1
0.000153096,0.227256769,4.364435883,26.1489438,3.827776173,0.011364659,1.405004608,10.79258335,1
0.002248823,0.226579393,4.38118,26.24653452,3.818582371,0.011848286,1.293844793,8.843410775,1
0.001479381,0.226609811,4.395127193,26.34863281,3.810992813,0.010752567,0.827754386,10.52404712,1
-0.000904057,0.227903283,4.359685672,26.12590211,3.806511688,0.011230892,0.937452287,15.60835787,1
0.000644302,0.227713313,4.344405697,26.06396087,3.800776563,0.011665458,0.990048126,16.94015483,1
0.001850614,0.227306597,4.298565698,25.82598153,3.79333834,0.011735944,1.288072222,15.99237911,1
0.001357694,0.227991117,4.263624802,25.51019476,3.785823168,0.011629733,1.598651711,15.68122685,1
0.000534007,0.229710821,4.257051679,25.29604412,3.781000628,0.010648912,1.645991819,15.59254859,1
0.001164126,0.230474642,4.232989506,25.17199202,3.776907894,0.011260853,1.742459624,16.68964423,1
0.001554121,0.229293942,4.221842168,25.23774445,3.772724261,0.011052191,1.713546712,20.19290249,1
0.001633124,0.228984347,4.242318952,25.30549502,3.769834627,0.010723138,1.557355249,17.24116324,1
0.001429498,0.228598044,4.257327577,25.47693,3.766374316,0.010399884,1.688398243,16.42698936,1
0.000941411,0.22734012,4.334029855,26.0757247,3.764487294,0.010362712,1.405526106,16.49626755,1
0.003646552,0.22734601,4.370552458,26.09037988,3.76421863,0.010790499,1.124098412,16.5734241,1
0.002134362,0.236441099,4.104248943,23.19738783,3.761064311,0.011559278,-0.114490769,39.21220388,1
0.00276193,0.237191957,4.128094422,23.00825089,3.755017362,0.011038092,-0.364489958,38.68802346,1
-0.000848053,0.230783071,4.256951047,25.19662265,3.75093471,0.010160366,0.330969336,9.903136459,1
-0.003260919,0.230355333,4.284441605,26.03124346,3.745599202,0.011263292,0.605384579,8.941121187,1
0.002538077,0.227649981,4.458154963,26.89796577,3.739271164,0.010796643,1.59856461,18.3713524,1
0.001590448,0.227119671,4.372300938,26.2833808,3.737267576,0.010832949,1.031714943,22.03197079,1
0.001003935,0.228491294,4.297556975,25.73014626,3.736390359,0.011030897,0.43561,16.99537209,1
0.001367013,0.228802413,4.386706017,26.16297742,3.732833535,0.011217052,0.766120414,15.38607264,1
0.002134271,0.226701154,4.428510703,26.63365398,3.728337043,0.010974744,0.822564733,16.74051986,1
0.001899072,0.226088258,4.380346663,26.37683688,3.724630356,0.010947898,0.757029249,16.10939384,1
0.001205671,0.227553813,4.329737532,25.90478594,3.732516371,0.017696726,0.187198838,3.72487196,1
0.001279247,0.227602232,4.321763303,25.91790565,3.743898337,0.014793647,-0.844752336,10.18938748,1
0.001508338,0.226605614,4.349332052,26.20871616,3.74442858,0.010843788,0.507079123,17.41756186,1
0.00153396,0.227038639,4.354439273,26.12801465,3.743603243,0.011438331,-0.180866116,37.25653242,1
0.000837289,0.227687734,4.308684972,25.73969231,3.746491132,0.0115618,0.087172992,36.27215966,1
-1.27E-05,0.227198589,4.301602845,25.80441714,3.751227951,0.011153659,1.321462399,18.18202395,1
-5.44E-05,0.226889046,4.345905293,26.21056272,3.749804688,0.011455196,0.932886776,12.161252,1
0.001452327,0.226367227,4.35729554,26.3386522,3.744811685,0.010520342,1.313795535,12.39854247,1
0.000931909,0.226517165,4.355012492,26.10166123,3.744572394,0.010705449,1.78695808,14.03311798,1
0.000642838,0.236587877,4.178341471,23.79179042,3.753968375,0.013778377,0.728522497,5.048532653,1
0.003504109,0.246184561,3.956546061,21.6712612,3.75784923,0.011825678,1.033473915,12.85400306,1
0.001603703,0.235633203,4.110109113,23.81071026,3.747093582,0.012695273,0.126879003,17.01763295,1
0.000745344,0.234105199,4.165965459,24.17479801,3.740257972,0.011094251,0.062002481,29.01191907,1
0.001960223,0.234883476,4.189957243,24.21635052,3.739065443,0.010783513,0.814021598,20.02629296,1
4.16E-05,0.226416061,4.431681904,26.91339425,3.736091614,0.010706079,1.030540782,14.78493977,1
0.000613109,0.227372114,4.35692194,26.41946007,3.731887381,0.010740617,1.340512158,15.17431394,1
0.002296286,0.236979854,4.072673641,23.4364448,3.732163674,0.010710282,1.160923768,11.93458888,1
0.001272047,0.246352653,3.927874019,21.60709053,3.736804472,0.010727238,1.153831628,9.967423793,1
0.000949618,0.245635033,3.945084702,21.96024079,3.737722506,0.010933117,1.085982543,13.68066921,1
0.003697553,0.24310531,4.061154381,22.61389347,3.73289299,0.011615555,0.694751994,13.05145441,1
0.001489798,0.234170821,4.250795748,24.58883731,3.725502777,0.011647008,0.933727191,10.48384903,1
-0.001431126,0.224234738,4.439518162,27.00554102,3.720143454,0.010907174,1.098365096,16.88632031,1
-7.33E-05,0.223048103,4.522477268,27.61008688,3.718204444,0.010640839,0.512191763,18.17102301,1
0.001107461,0.224411242,4.469553616,27.24367828,3.714928436,0.011045725,0.651297086,13.28669259,1
0.001956665,0.225299558,4.446575021,26.9582467,3.70813288,0.01158756,0.854037517,11.30011636,1
0.001288866,0.226676789,4.361755002,26.29825568,3.703408813,0.010931797,1.531710979,20.47357378,1
0.001108194,0.226433558,4.321209361,26.15654282,3.702052362,0.010939668,-0.744039616,60.18978479,1
0.001555357,0.23725904,4.087908803,23.57950706,3.702830178,0.010917459,-1.021256366,56.06069892,1
0.001341293,0.237652751,4.061723509,23.45908808,3.70521649,0.010874678,1.484081943,14.52119698,1
0.001709584,0.236526417,4.123587364,23.76531959,3.705563137,0.010958284,1.485432883,16.35113046,1
0.000847706,0.235978012,4.170468895,24.01357897,3.702773176,0.01124305,1.174692755,12.97933961,1
0.000795757,0.233938253,4.221734934,24.47309641,3.69969308,0.010748919,0.86869396,9.590937387,1
0.000882183,0.23262114,4.247914103,24.65477722,3.695286996,0.011535609,1.355273812,17.12881866,1
0.002240897,0.233490848,4.267626006,24.5421968,3.689431926,0.011465983,1.792846184,19.75958452,1
0.001614081,0.223513609,4.524428455,27.42524614,3.688103104,0.010722425,1.005077017,10.22714951,1
0.008274366,0.22417512,4.302995031,25.56456931,3.692410278,0.015359111,1.205358391,4.931721495,1
-0.000609368,0.240072402,3.929865029,21.74462284,3.701658303,0.01808423,0.460755585,2.053709141,1
-0.007567762,0.231108618,4.276541803,25.49420248,3.701040922,0.014949416,0.989145564,4.805218097,1
0.003514598,0.237583009,4.087076544,23.6685026,3.697540283,0.01322831,1.41049495,10.23608344,1
2.96E-05,0.24912802,3.721608561,20.61785655,3.713939013,0.019144704,0.171685746,2.287949815,1
0.000711515,0.249188008,3.814692448,21.01226423,3.724193791,0.01205155,0.862369315,14.27352166,1
0.003395697,0.246386623,3.980311592,21.88107065,3.720914623,0.010521208,0.956619534,13.81776268,1
0.002144551,0.235986541,4.167775647,24.06641758,3.718061229,0.01111926,0.749337711,17.63469829,1
0.000567941,0.227302809,4.309293855,26.12831189,3.712974058,0.011123914,0.917397261,16.16567519,1
0.001087444,0.240899416,4.026321446,22.88486525,3.707265145,0.011216352,1.295138069,12.19914939,1
0.001916029,0.239750783,4.052957597,23.09596266,3.705090223,0.010587303,1.615882558,15.99775155,1
0.000782004,0.226036841,4.295748097,26.20586563,3.703432628,0.011182984,1.652305327,15.69495343,1
0.002934625,0.237156663,4.088397973,23.49603355,3.701470838,0.011294405,1.97706555,21.7826896,1
0.002069615,0.23870618,4.08583075,23.24333911,3.701696723,0.011124874,1.361950151,19.5855975,1
-0.000819979,0.228316462,4.283066669,25.81785452,3.70071264,0.01089825,0.521081729,15.44085051,1
0.000996656,0.238229405,4.052369087,23.29521464,3.701166589,0.011522531,0.473068359,14.24364358,1
0.000436478,0.237379068,4.053052893,23.49105605,3.700833348,0.011611781,1.133624264,14.19178638,1
-0.000164148,0.226200179,4.287028456,26.39602289,3.699500057,0.011292809,1.411943082,18.81858352,1
0.001665625,0.225986319,4.307129891,26.50610573,3.69962022,0.011142512,1.335738761,21.25316155,1
0.004213276,0.236068418,4.106762461,23.95375413,3.698938261,0.011197509,0.966028421,23.35391669,1
0.001142872,0.237842814,4.039361813,23.45788378,3.69878055,0.011165692,1.077220987,22.450473,1
-0.001340201,0.238928369,3.95405994,23.32689607,3.712386377,0.018002826,0.47614626,1.210277946,1
0.001720622,0.238208688,4.008938541,23.64251332,3.724426705,0.01287943,0.239567987,8.295709025,1
0.001551152,0.227795324,4.246794363,26.02617366,3.719284766,0.011790399,0.590495217,9.524028897,1
0.000618347,0.236655903,4.009221253,23.60308268,3.718045371,0.011067858,0.522732923,10.21439735,1
0.001180631,0.246503058,3.839278491,21.54965414,3.720908574,0.010467525,0.935923563,12.76084092,1
0.001041563,0.238423495,4.003791171,23.48388415,3.716734586,0.011440589,1.056545215,11.08094806,1
0.001663284,0.237813158,3.992035205,23.46494201,3.70940737,0.011211696,1.250874116,14.34898917,1
0.001647014,0.23680932,4.000655968,23.51982047,3.704587555,0.0104465,1.268817732,13.89544523,1
0.00027269,0.228239146,4.166892314,25.60498228,3.703957476,0.010975027,1.199394258,16.91555817,1
0.001387913,0.249481429,3.735577124,20.70731398,3.706444822,0.011504149,0.862404933,16.81013826,1
0.001981012,0.257377613,3.659748051,19.37897934,3.707685253,0.011018958,0.843663776,13.74351095,1
0.00171974,0.236716698,4.164039221,23.93086418,3.705768749,0.010682621,1.042455545,11.60240832,1
0.000333056,0.226474383,4.420044045,26.51727987,3.70478254,0.010743651,0.916795117,16.19959877,1
0.000734449,0.237385543,4.135715591,23.63492265,3.705316544,0.010730635,0.376865104,18.02675588,1
0.000898721,0.238206259,4.073272231,23.36199964,3.715643311,0.015965533,0.321342182,3.474761396,1
0.000908275,0.227360565,4.318253892,26.0766029,3.7255376,0.012080132,0.222092164,9.803736542,1
0.002871296,0.237784622,4.109290435,23.43601551,3.725828443,0.010157485,1.169984984,15.0376212,1
0.001754824,0.23899017,4.060298848,23.12647574,3.724133028,0.010683532,1.303497009,15.77151888,1
0.000467893,0.227419593,4.26459821,25.79683025,3.722161211,0.010499962,0.903430605,15.93437609,1
0.000733017,0.226222259,4.279627206,26.01672416,3.722398322,0.011051549,-0.016874868,38.80899563,1
0.000279393,0.226320798,4.311450245,26.0971449,3.723992211,0.011665464,1.075916963,47.75649224,1
0.000746567,0.227277157,4.295118104,25.93787464,3.726408604,0.010978721,2.016062181,31.75602376,1
0.00480077,0.236951451,4.159782591,23.77172989,3.726755796,0.010809331,0.775448632,13.16554301,1
0.002404705,0.238192855,4.059138254,23.1579687,3.723907743,0.011565218,1.178358108,17.03006357,1
-0.001103989,0.22880218,4.140160063,25.03302253,3.720701327,0.010968496,1.606373417,21.00177783,1
0.00094678,0.227781471,4.240861709,25.61111087,3.716576985,0.011393713,0.973634772,12.44351376,1
0.001633942,0.228264333,4.21103783,25.31970831,3.711041369,0.011306844,1.376461939,18.24837419,1
0.00049292,0.226538786,4.211135303,25.54576903,3.709078053,0.010847888,1.866344007,23.97607497,1
0.000889978,0.236470817,4.032681385,23.24729413,3.710359137,0.011031891,1.756717129,19.97464652,1
0.002074866,0.237392133,4.058712024,23.23382401,3.709153366,0.010946561,1.053153804,15.79080033,1
0.0001659,0.226155802,4.288861003,26.05828295,3.706972122,0.010476147,0.981008767,15.93719737,1
0.001377646,0.228910431,4.192278571,25.12140655,3.705111258,0.011035104,1.802675609,19.03473309,1
0.001070421,0.226787792,4.319327275,26.09790802,3.703080096,0.010877613,1.402875794,20.57460381,1
0.001054746,0.233018474,4.262123497,24.88395414,3.70191694,0.011128176,1.160229163,20.93000675,1
0.002263282,0.236203002,4.130107558,23.75963285,3.69889352,0.011187138,1.312145354,21.69026893,1
0.00155947,0.226658812,4.299124634,25.96938671,3.694760568,0.010945703,1.162148475,16.49817841,1
0.001126772,0.224596318,4.373578842,26.56249272,3.691924504,0.010984874,1.768848364,20.93060931,1
7.35E-05,0.224721631,4.324055553,26.33073363,3.689383262,0.010810485,1.482027691,19.72281328,1
-0.000247068,0.227101905,4.262089862,25.7714663,3.686763164,0.010865131,-1.968719228,78.98298956,1
0.001838981,0.237301948,4.066773694,23.34514449,3.686409106,0.011212139,-1.279950186,77.05241312,1
0.003424465,0.246527427,3.815915594,21.0385441,3.687735857,0.010997782,1.306291163,24.16191881,1
0.000357082,0.235493876,4.019506587,23.47840801,3.694238499,0.012725563,1.032754038,10.73972602,1
0.001207855,0.233944323,4.180159078,24.31432204,3.708000183,0.014012872,0.650588931,4.838424339,1
0.001007734,0.224146051,4.478551775,27.29088848,3.713336945,0.011546398,-1.026941505,46.98869398,1
0.00047784,0.224590375,4.408017789,26.90339447,3.711043276,0.011886221,-1.098979898,41.54927236,1
0.001502446,0.225896589,4.294929256,26.01594469,3.709957014,0.011425862,0.751245631,12.43854216,1
0.001535182,0.216189208,4.566415493,29.01644022,3.706559644,0.010703031,1.12959505,18.9271452,1
0.001736592,0.226623848,4.311708942,26.1176447,3.702876336,0.011139573,1.53803598,23.10633439,1
0.000875401,0.227231438,4.271393639,25.9057982,3.698360062,0.011500324,1.423759009,19.13374378,1
0.000478527,0.227347114,4.278651911,25.92744784,3.695049885,0.010953423,1.375593973,19.62235684,1
0.001207672,0.238323517,3.991661951,22.9890099,3.702087402,0.014076922,0.885330191,7.44020349,1
0.001788823,0.239048253,3.983028077,22.85728564,3.711223112,0.012010508,0.908905784,13.39984588,1
0.000387235,0.235705119,4.091836412,23.80056878,3.71372757,0.014040236,1.099653815,6.078333647,1
0.001603729,0.243704984,3.995583865,22.36238435,3.7330016,0.024470786,0.174716983,-0.313290532,1
0.002503961,0.233520666,4.28124763,25.00393556,3.750418309,0.014149148,0.446122151,5.910453561,1
0.000362307,0.222575803,4.496568526,27.51517351,3.747632326,0.011349401,-0.130876719,32.80473696,1
-0.000496621,0.22419577,4.388666643,26.75150573,3.747128514,0.011346555,0.650593374,37.65010113,1
0.002565707,0.23765788,4.026656177,22.99297632,3.748440279,0.011335455,1.460404711,23.25298194,1
0.002198155,0.239151991,4.035359795,22.94894057,3.754097639,0.012721927,0.464272766,14.0477534,1
9.83E-05,0.226528986,4.393245907,26.59081032,3.757707705,0.011535632,0.967286028,19.39790564,1
0.001917703,0.223659978,4.392822388,26.72937073,3.752214759,0.01139972,0.946713335,17.31114053,1
-0.001247354,0.226926936,4.191516951,25.3889785,3.746089063,0.011235965,1.031191163,12.12204439,0
-0.000547668,0.254985376,3.034337493,17.76066406,3.802188437,0.074787288,0.91447573,-0.412832425,0
-0.002708745,0.264350437,2.974808631,16.48915202,3.892427117,0.061765207,-0.307151052,-0.597621898,0
-0.002451534,0.271847607,3.185803294,16.30873543,3.966521563,0.053776222,-0.357422159,-0.999919243,0
0.00695687,0.27230446,3.078330531,16.03922353,4.036058426,0.032443016,-0.150403991,-1.123601004,0
0.006496589,0.251551432,3.605957523,20.55716785,4.110662733,0.064452542,0.70677895,-1.125076824,0
0.00170927,0.248498293,3.541379411,21.06305293,4.231176594,0.10014287,0.236697382,-0.692200619,0
-0.000849191,0.245511803,3.370699798,20.42197696,4.349389648,0.072299068,-1.030067753,-0.465384329,0
0.000473602,0.240398414,3.503815932,21.34411147,4.483232553,0.10186402,0.461487306,-1.51738543,5
-0.007429164,0.247089095,3.429123632,20.39649084,4.637780598,0.09104525,-0.314367059,0.6317847,5
0.000984702,0.255980467,3.225561159,18.54295339,4.893644932,0.197893197,0.049278768,-1.745238058,5
-0.000765034,0.257798722,3.217207021,18.34683567,5.123606055,0.082644613,0.972509229,2.268027968,5
0.001041386,0.261330937,3.065591484,17.21361544,5.390985162,0.278765688,0.683922342,-0.877614592,5
0.004608261,0.252978603,3.071925705,18.08822553,5.797549711,0.251733507,-0.41024313,-0.942349365,5
-0.007178996,0.255879133,3.114985439,18.12837374,6.193117523,0.26833842,0.280044176,-1.175747479,5
0.00511647,0.259106357,2.996670223,16.98561985,6.54054985,0.200385857,-0.637075113,-0.386507148,5
0.007698225,0.246281789,3.179376473,18.83969432,6.749852317,0.12774652,-0.042947643,-1.22785088,5
-0.006480416,0.250166944,3.29610908,19.26229107,6.893373653,0.188273761,1.189082385,0.739545287,5
-0.001034742,0.260666136,3.049140622,17.18647777,7.213587134,0.333362919,-0.038615787,-1.196021867,5
0.008643513,0.246962798,3.064179051,18.15610055,7.353581946,0.192166515,0.74771039,-0.481817698,5
0.001605874,0.244258056,3.237496322,19.35850116,7.243251692,0.098800722,-0.124624685,-1.463591734,5
0.002690179,0.255954525,3.14023636,17.9058951,7.263917433,0.096397012,-0.256752561,-1.012001803,5
-0.002801677,0.245792704,3.310604673,19.86093318,7.254421943,0.072039524,0.831527663,-0.329123874,0
-0.00167448,0.24499238,3.350590663,20.39407925,7.308207212,0.115303341,0.838653397,-0.246886435,0
0.006214122,0.252968252,3.326964613,18.84976408,7.312696021,0.109920707,0.950192263,0.066084792,0
0.001930906,0.251881065,3.398195024,19.0589016,7.16818379,0.076241507,0.237554866,-1.565594301,0
0.000430749,0.257920373,3.207817076,17.55677582,7.105184664,0.023250963,0.575054129,-0.408292375,0
0.00166609,0.249580421,3.304435754,18.90607667,7.10055275,0.023877688,0.499970929,0.155649929,0
5.59E-05,0.24131168,3.440031194,20.76531757,7.082864107,0.023341545,-0.711807781,0.281608322,0
-0.006655995,0.252442207,3.247790742,18.59855872,7.107399368,0.058810835,0.865774386,0.274343969,0
0.001989742,0.24587146,3.202772173,18.81496554,7.315618297,0.243892415,1.032927546,-0.144405581,0
0.007959085,0.243743216,3.26011364,19.22714861,7.357134465,0.212785763,1.298758887,0.285741666,0
0.002050552,0.243771752,3.395299742,20.08416074,7.193836975,0.049697632,0.267387451,-0.512731417,0
0.001701239,0.234471061,3.570718179,22.17113211,7.151701518,0.03893782,0.348276319,-0.736192448,0
-0.006781121,0.234687045,3.582180837,22.40386267,7.149813189,0.080526443,2.554745194,7.442982878,0
0.001372343,0.244088186,3.394277691,20.05285753,7.239207513,0.139384574,0.809489336,-0.373874521,0
0.007665933,0.242979164,3.405183081,20.09121758,7.254519653,0.110875843,1.408176237,1.081992827,0
-9.08E-05,0.232941669,3.599057565,22.47481515,7.147740773,0.057656204,0.298371996,-0.41553884,0
0.001547601,0.242719995,3.455599201,20.46875817,7.092757089,0.040736161,0.151400692,-1.337876135,0
-0.0049864,0.244261939,3.506850518,20.66246968,7.092740468,0.087017471,2.416535573,6.677859017,0
0.001476922,0.243672049,3.446171978,20.19694745,7.270368467,0.216848885,0.491160089,-1.008554113,0
0.009940168,0.244442147,3.383758724,19.87307124,7.405023357,0.160183827,0.142782182,-1.18904111,0
0.000639999,0.234809084,3.572643024,22.20186844,7.408521053,0.147375222,-0.007615586,-1.139276795,0
-0.001178159,0.243431666,3.493325817,20.5536895,7.352015959,0.133528842,1.028659736,-0.140780307,0
0.001106467,0.245929555,3.501382184,20.41935857,7.261999948,0.062728965,0.311156088,-0.804876508,0
0.000352014,0.234570207,3.633661683,22.50347692,7.233096095,0.068273787,0.945202376,-0.014688563,0
-0.001401398,0.241113217,3.565803501,21.26943692,7.229408973,0.084759316,1.38918393,0.720292738,0
0.001333753,0.249353416,3.519683846,19.82749401,7.249498694,0.095111322,0.528245576,-0.906784819,0
0.003696671,0.248303877,3.578523981,19.9416436,7.14028086,0.118669208,0.443560883,-1.143953433,0
0.001490524,0.238157464,3.766171156,22.08653579,7.002435793,0.046769298,0.798186287,-0.212252495,0
-0.001615343,0.228848262,4.018793222,24.80690391,7.019705473,0.0801817,1.361810658,0.642116432,0
0.001766262,0.238350979,3.829264179,22.4548214,7.07145947,0.06608493,0.734111657,-0.418133649,0
0.002738767,0.236695847,3.815294893,22.47896312,7.011749649,0.068598464,0.352477801,-0.7460054,0
0.001305071,0.237379493,3.865426784,22.73312954,6.951916177,0.025954319,-0.163461638,-0.948043926,0
0.00093251,0.237394684,3.831272876,22.5263158,6.915141078,0.039404215,0.287668005,-1.097030092,0
-0.001484979,0.228832236,3.954429861,24.41457823,6.866262981,0.035318397,0.596817938,2.076435955,0
0.002432537,0.239792118,3.823736574,22.38396598,6.930265427,0.090901157,0.092828461,-1.5427561,0
0.003972977,0.24780902,3.698844965,20.71842674,6.979308047,0.062638282,-0.301977214,-1.254111589,0
0.000448955,0.237238217,3.85592003,22.67978831,6.89235393,0.078507307,0.417201547,-0.646724222,0
0.001247726,0.236335398,3.900241376,22.89014551,6.770946612,0.07378097,0.310935699,-1.238850503,0
0.001169383,0.234876563,3.908911517,23.01643498,6.682843672,0.033914489,0.752440977,0.49259846,0
0.001551505,0.235370422,3.874896604,22.85555333,6.633632987,0.031694265,-0.341523525,-0.212923954,0
0.001743295,0.237388022,3.871285603,22.70074048,6.630021068,0.072626156,1.071886329,0.019336562,0
0.000522511,0.236450049,3.885982513,22.87802686,6.656450544,0.068842757,0.207608919,-0.494956173,0
0.001718484,0.245165673,3.746395248,21.03242258,6.626117761,0.041598817,-0.323869005,-1.133869316,0
0.000583616,0.236286164,3.945199756,23.12464783,6.601868984,0.034330342,0.312213157,-0.917214906,0
0.000808071,0.236987394,3.984719155,23.34790543,6.632228906,0.041371382,-0.354558391,-0.919301917,0
0.001639409,0.248868762,3.767265522,21.11152228,6.750349535,0.138151159,0.779247632,-0.773163943,0
0.001215166,0.251406091,3.628914662,20.25793636,6.7757661,0.12306183,0.749383302,-0.687792521,0
0.001571974,0.256568713,3.400681647,18.92179998,6.6274983,0.086350591,0.144430371,-0.977918656,0
0.001547012,0.254726801,3.369283988,19.29008087,6.497175271,0.068792181,-0.091475503,-0.852551272,0
-0.00026978,0.237904072,3.674934508,22.51795626,6.387628392,0.063934323,0.277867499,-1.204877977,0
0.002998542,0.2455443,3.605702823,20.5652095,6.301891272,0.038875464,0.176086206,-0.762378491,0
0.002828397,0.256362735,3.514262064,18.63553312,6.299838039,0.051499995,0.784732051,-0.507204264,0
-0.000914383,0.24850433,3.802614228,20.79310439,6.28457598,0.063343362,0.543332717,-0.771904099,0
0.000284003,0.2450337,3.946050472,21.77958485,6.205573654,0.042266132,0.183608022,-0.944014952,0
0.000370337,0.233789131,4.208009285,24.41214614,6.164124462,0.042532598,0.301898895,-0.393932761,0
0.00136904,0.235672719,4.254776626,24.35574613,6.160269492,0.045782773,0.468499754,-0.765955021,3
0.001635773,0.237459334,4.216751748,23.99388594,6.137277549,0.04028441,0.34595451,-0.714635126,3
0.001661388,0.237924201,4.180879572,23.79525896,6.072665896,0.044907848,0.253146497,-0.870653229,3
0.003244492,0.246264522,3.975716852,21.64702803,5.990350342,0.051161272,-0.273362916,-0.959410947,3
0.001044891,0.238001138,4.098862001,23.2605935,5.918042537,0.036491343,0.513837093,-1.039148467,3
0.000275266,0.239539682,4.099222895,23.25445113,5.936470032,0.054704192,0.57853336,-0.943102553,3
0.001371179,0.245977971,3.948581048,21.84174794,5.95071591,0.044792511,0.627548155,-0.540922666,3
-0.000552298,0.233630133,4.110661924,24.23847225,5.884356526,0.039918245,0.135377972,-0.950844665,3
0.001241625,0.232900471,4.257387719,24.92120666,5.844805363,0.022919191,-0.228882642,0.81130883,3
0.001712422,0.233062188,4.339980527,25.34345522,5.806273488,0.040621866,0.044971427,-1.080016891,3
0.001695354,0.233298466,4.253168925,24.86018507,5.770063346,0.023895219,0.486559178,0.10744412,3
0.001912837,0.234245224,4.23699008,24.59590711,5.74065094,0.0329352,0.669561284,-0.071358079,3
0.000356094,0.224908439,4.424684283,27.05329156,5.698201697,0.022230921,-0.239254435,-0.427441677,3
0.000530561,0.2249367,4.343696075,26.63282776,5.65329737,0.034212652,-0.103907818,-0.672611967,3
0.000281152,0.238226361,4.08614237,23.63101877,5.75429851,0.260525428,1.705082647,1.421327608,3
-0.000764263,0.250020274,3.84759854,21.32597456,6.097070258,0.315388394,-0.633598853,-1.227800002,3
0.001454315,0.247569559,3.802964858,21.46337601,6.281079701,0.105009138,0.319056,-0.934844426,3
0.003175297,0.245256918,3.822287152,21.62510849,6.151556832,0.132840402,1.072953276,0.224391542,3
0.001415189,0.243274659,3.921410701,22.1868974,6.017357581,0.04452431,0.596611639,-0.133409932,3
0.003443939,0.241555746,4.086315813,22.97634977,5.945390374,0.044487055,-0.019894362,-1.26130334,3
0.000455468,0.232862855,4.312447095,25.25969607,5.878422274,0.039470021,-0.241153507,-0.55021391,3
-0.000364563,0.23552941,4.159688835,24.25421381,5.881116595,0.091610901,1.560796381,1.117331897,3
0.001701351,0.237509621,4.051445489,23.48016921,5.995349503,0.118365766,-0.654671748,-1.388175214,3
6.60E-05,0.236109741,4.067794352,23.70786465,6.026675688,0.058131636,-0.193241351,-1.390701525,3
0.001153303,0.245012838,3.936543088,22.0080619,5.937646975,0.047175634,0.352051695,-0.397722055,3
0.001512961,0.234122121,4.217615336,24.78801151,5.861356735,0.044879569,0.082710891,-1.094716831,3
0.002709634,0.233364763,4.281331515,24.91989257,5.792539706,0.034711148,0.206815833,-0.979637897,3
0.002413977,0.235165989,4.104164192,23.95125455,5.757628904,0.035916934,0.629620791,0.359775723,3
-0.000204248,0.226107681,4.224590949,25.95710534,5.765480205,0.041755454,0.245487953,-0.959959492,3
0.002493053,0.237421952,4.212480924,23.96970719,5.778835678,0.042025538,0.686359534,-0.512101636,3
0.002534219,0.237788884,4.130387589,23.65830146,5.764616394,0.047514229,0.951064211,-0.23182886,3
-0.000457312,0.237214236,4.013632696,23.36463416,5.717067936,0.043032288,1.016020342,0.686290983,3
0.001496822,0.235425844,4.120025632,23.88913854,5.676943316,0.016075231,0.146945746,4.479112954,3
-0.000335881,0.226103256,4.389018585,26.82392977,5.778302165,0.139718374,0.730275178,-1.124597242,3
0.000764354,0.238810826,4.148824343,23.92152104,5.836482293,0.102836362,0.594424552,-0.654553769,3
0.001798939,0.236589006,4.093728683,23.73373874,5.743773869,0.050557714,0.141326849,-0.16253461,3
0.00073545,0.234879091,4.089671297,23.93376129,5.678819711,0.034800392,0.001263092,1.285540964,3
0.001344589,0.234487057,4.16286913,24.31934857,5.642320197,0.036184224,0.394952717,-0.895270629,3
0.00180389,0.234084763,4.266321145,24.82317472,5.63858223,0.03526757,0.651994091,-0.438576595,3
0.001753581,0.234589432,4.245636075,24.71725881,5.61511334,0.040192585,0.436748611,-0.510309622,3
0.001021565,0.236262026,4.105597346,23.90460583,5.573056357,0.021437645,-0.1235165,0.467950388,3
0.000950265,0.237111295,4.039549008,23.51281405,5.540577207,0.030126102,0.456438582,-0.21323027,3
0.001421683,0.236892855,4.0778642,23.70403305,5.507503074,0.018049628,-0.193790157,1.478426298,3
0.000908968,0.235836722,4.128365937,24.09610676,5.480897958,0.025815089,-0.010984911,-0.423328588,3
0.001066929,0.234769473,4.197751126,24.53422124,5.448021099,0.024763363,0.384641553,-0.121982152,3
0.001635321,0.235173423,4.163626936,24.29098514,5.416938128,0.026144557,-0.114528989,-0.254577434,3
0.000346893,0.236120333,4.06785328,23.82380915,5.373932375,0.034135301,0.408759339,-0.588759254,3
-0.000401773,0.247729192,3.800946809,21.06959963,5.432316807,0.178495468,1.679856608,1.133548586,3
0.001649061,0.255709005,3.725688306,19.81167518,5.594057138,0.181802429,-0.242285369,-1.197752878,3
0.001581266,0.244159244,4.072429654,22.86809852,5.598856899,0.090649047,0.925876572,-0.113360402,3
0.000917646,0.232386862,4.301425894,25.4959253,5.494079263,0.03897221,0.165924427,-1.084223195,3
0.001788345,0.232925878,4.258276026,24.97396854,5.436332539,0.029134197,0.137370068,-0.623925187,3
0.001422023,0.236061506,4.173780871,24.18498795,5.412915039,0.01357868,-0.03527635,6.297912736,3
0.00228838,0.246994212,3.835675082,21.44333153,5.417223576,0.014018389,0.109934835,5.88384261,3
0.000972264,0.236484245,3.998660758,23.5525246,5.400232315,0.02660528,-0.236070968,-0.204546857,3
0.001661702,0.235742376,4.130204826,24.03906577,5.356317793,0.027875122,0.240173772,-1.024938768,3
0.0008597,0.235518799,4.081024273,23.87581149,5.319594084,0.018608294,-0.110392646,0.867743933,3
0.00016777,0.225573303,4.309111318,26.5182305,5.291538565,0.020107979,0.125747685,0.831504001,3
0.001017144,0.236429225,4.093334807,23.83323285,5.350000272,0.109066521,0.736848454,-1.259250422,3
0.002751467,0.238802312,4.017095211,23.07278706,5.40320985,0.086163659,-0.124836239,-0.841237546,3
0.000603516,0.218074258,4.520024611,28.69346938,5.382492229,0.063136762,1.776729769,2.943163048,3
0.001683485,0.227113404,4.358273633,26.66936407,5.458398492,0.103311878,-0.005394194,-1.4708334,3
0.002292631,0.23867042,4.044130018,23.68510204,5.48849629,0.063456552,0.559627556,-0.523172067,3
-0.000102121,0.237955727,3.977258902,23.38414556,5.411291831,0.039237321,0.512131916,-0.787841941,3
0.003461308,0.246557945,3.860574217,21.51136979,5.390997532,0.023536687,0.522567797,1.215958844,3
0.001424835,0.236412291,4.103621167,23.91418957,5.448691831,0.058242091,0.353519204,-0.963137694,3
-0.000683539,0.226588917,4.349680064,26.6675304,5.448811177,0.057456752,0.416681302,-0.962496056,3
0.000410588,0.227056022,4.269306273,26.21925216,5.371923556,0.035557192,0.210565524,-0.994550087,3
0.001808173,0.237407659,4.038496642,23.44780256,5.321118219,0.025761319,0.346045642,-0.222583701,3
0.001277684,0.237267935,4.031688372,23.41402742,5.286437007,0.017932693,0.163798733,1.164776696,3
0.001209915,0.236946243,3.880808882,22.54005998,5.264776012,0.01365821,0.663436537,3.596823843,3
0.001317732,0.248373888,3.814704247,21.14755568,5.311431231,0.065151984,0.608076438,-1.172077839,3
4.60E-05,0.236864273,4.251510661,25.01530581,5.336562456,0.04695694,0.729283982,-0.651807643,3
0.001724991,0.23383417,4.323040092,25.40810307,5.284484482,0.02706949,0.210459529,-0.423598635,3
0.002890294,0.24373719,4.102305648,22.83908727,5.250703485,0.016942122,0.377184388,1.664426871,3
0.001643182,0.23532537,4.224867428,24.4746627,5.236428343,0.012429849,0.324235938,7.265895234,0
0.000852506,0.225955109,4.41702232,26.9285509,5.218127986,0.021102657,-0.262120409,5.275631166,0
0.000474282,0.236496194,4.082058427,24.01647032,5.208452606,0.018633927,0.085583628,9.003616294,0
-0.000308971,0.248959445,3.504078767,20.19655935,5.284506444,0.137389143,1.545687111,1.092067154,0
0.000757677,0.259838081,3.340561436,18.56311371,5.660563387,0.349924476,0.023520166,-1.447240262,0
0.001842505,0.266286967,3.455168548,18.35224326,6.042475782,0.160910876,-0.983148099,-0.026679693,0
0.001110012,0.257011092,3.528713535,19.28264072,6.232835334,0.168583964,0.246053983,-0.721294564,0
0.003268164,0.244611438,3.757433434,20.99365102,6.397716522,0.120047216,-1.054456752,0.560998376,0
0.000468979,0.230143049,4.055189412,24.17754259,6.396973038,0.064789602,0.68273048,-0.768385605,0
-0.001857559,0.241683312,3.736739704,21.35277339,6.341540691,0.027056448,0.033075695,0.116075682,0
0.001157769,0.252638024,3.585642185,19.48799178,6.469019699,0.143676032,0.296398811,-1.421953436,0
0.001009532,0.243120301,3.72373471,21.27534329,6.684184865,0.111290488,0.037785847,-0.552901142,0
-0.00277892,0.244949691,3.70952224,21.0221494,6.849720655,0.168482241,1.018707035,0.268527576,0
0.00289803,0.254738296,3.549817843,19.01864714,7.010462134,0.181989013,-0.219464787,-0.464691551,0
0.005331076,0.252463926,3.520688532,19.04038393,7.024688939,0.112073203,1.459454006,1.142914844,0
0.001859318,0.238919525,3.885177088,22.28573257,6.958588791,0.027621398,0.571552593,0.07831221,0
-0.005742279,0.236008564,3.869697302,22.79707414,6.988932037,0.158076947,2.430104786,4.977758725,0
-0.000684429,0.24329745,3.587529209,20.53920812,7.127061844,0.215114648,0.492005392,-0.863588114,0
0.007051542,0.237784204,3.745866244,21.62793156,7.196020508,0.122627928,1.427287354,1.389877926,0
0.000976371,0.238180858,3.727982611,21.73171617,7.115061242,0.070191014,0.966365611,0.082962278,0
0.002999248,0.248083418,3.555322389,19.7839576,7.061603328,0.039714179,0.208829958,-1.157964549,0
6.71E-05,0.237973901,3.703671543,21.65085797,7.044205202,0.061000797,0.38852836,-0.544836205,0
0.001237165,0.241146103,3.643553835,21.37142536,7.583752387,0.57663545,0.184308612,-1.77067129,0
0.001965788,0.267296979,3.083296639,16.33127219,8.023301261,0.206069177,-0.055509658,0.920912594,0
-0.007690024,0.276006991,2.899905786,14.97052159,8.247791454,0.409457908,0.662302525,-1.187024744,0
0.003591548,0.2587873,3.275296799,17.97388454,8.65347181,0.268101131,-1.078454377,1.054560621,0
-0.001207286,0.247367727,3.481939226,20.18909855,8.659586607,0.211522613,0.393353406,-1.050437043,0
-0.001606489,0.240855904,3.483581717,21.10350876,8.635290473,0.194495043,0.709833216,-0.309140535,0
-0.000691831,0.246946555,3.502254369,20.19902566,8.652595575,0.129447745,1.849292082,2.774954531,0
0.001413568,0.258383846,3.417497255,18.49938851,8.830041994,0.263377788,0.468125417,-1.122141159,0
0.011748289,0.249553925,3.395908488,19.40913867,9.074350957,0.209505403,0.279035808,-1.474069659,0
-0.001462738,0.255600648,3.168608945,17.79659656,9.024262946,0.187467757,1.072797876,-0.303552863,0
0.003034862,0.276964819,2.705944578,13.60386837,9.11409705,0.268902016,1.141779061,-0.039913322,0
0.000985068,0.272284317,2.720629083,14.11774191,9.116906793,0.266882539,1.144611449,0.003220722,0
-0.002400964,0.263813766,3.137056382,17.15590421,8.943466677,0.048742382,0.027377836,-0.841450221,0
-0.004178656,0.266169676,3.129982863,17.12226813,8.977659716,0.11692208,1.929225954,2.533440828,0
0.001090341,0.250523018,3.24106718,18.56434382,8.975359126,0.134936276,1.372344614,0.634413144,7
0.006832391,0.240477407,3.42352065,20.32878675,8.983832496,0.107651434,0.730523509,-0.433820373,7
0.003642641,0.253066556,3.153580565,18.20166159,8.912722179,0.14053962,0.453015376,-0.645011753,7
1.03E-05,0.248683314,3.145398939,18.57618694,8.756321062,0.070150002,0.864278908,-0.034895528,7
-0.002895532,0.24721949,3.243653063,19.45670869,8.716485105,0.053675229,0.776734034,-0.399213756,7
0.003531222,0.258560667,3.004000554,17.21170609,8.750355421,0.062042227,-0.168071837,-1.303148261,7
0.003587265,0.25402276,2.93380667,17.25457627,8.905493981,0.268665633,1.397978812,0.463765757,7
-0.004262381,0.251638844,2.984573842,17.39560486,8.904429844,0.274695783,1.27370326,0.233080454,7
-0.001991324,0.256478995,2.998701423,17.07896688,8.849218968,0.131845368,0.710035376,-0.389255819,7
0.00384441,0.260721063,2.965725294,16.8095097,8.867337091,0.13164608,0.418392191,-0.695746467,7
0.00244659,0.251009121,3.072591227,17.89183223,8.852953012,0.159032285,0.780660585,-0.454514184,7
0.002295528,0.248858833,3.164642531,18.83076195,8.83639728,0.171247229,0.740365325,-0.643460142,7
0.001638107,0.246775581,3.255435709,19.58397233,8.771528571,0.098994803,0.797778936,-0.099498039,7
0.000668126,0.249010044,3.236860662,18.93553057,8.771574783,0.107137614,0.878418845,-0.08619407,7
-0.002019241,0.247233066,3.203614946,18.90413401,8.739906693,0.112847177,1.414954462,0.652370096,0
-0.009273063,0.245672312,3.240948784,19.33449841,8.715697152,0.056023654,0.533358322,-0.542695127,0
0.003328125,0.263785921,3.109769592,16.52299194,8.815088218,0.179579757,1.257907808,0.48194998,0
0.010445206,0.258334193,3.2515435,17.29737794,8.746188627,0.216087939,1.242671131,0.136689367,0
0.001379785,0.247376817,3.439237273,19.67828702,8.61265673,0.029199573,0.671558302,0.086531063,0
-0.006518901,0.250775982,3.347511299,19.25980007,8.641156551,0.084867348,2.542947861,7.045139333,0
-0.005335504,0.246975527,3.392695356,19.78993538,8.736594445,0.15156887,0.64126966,-0.960224056,0
0.008444909,0.243541773,3.406031326,19.59037732,8.751361247,0.146133104,0.480768395,-0.963920137,0
0.006684586,0.240520693,3.503356382,20.53958435,8.630488259,0.100551491,1.930478995,3.205349263,0
0.001178741,0.232498108,3.70901383,22.85507752,8.5913311,0.042519368,0.986828365,0.914904058,0
0.001563086,0.232414205,3.699746184,22.80206806,8.580721283,0.058535649,0.302252718,-0.84578514,0
0.000932046,0.242283874,3.534027738,20.66355685,8.524542127,0.057976772,0.592522754,-0.575997441,0
0.001940303,0.24175029,3.514132852,20.46195658,8.480810601,0.033976668,0.60376297,-0.275373871,0
0.000519006,0.232155717,3.6972987,22.71486535,8.444643511,0.0355157,0.317118274,0.972859198,0
0.000536499,0.242898514,3.556341555,20.82294023,8.512654822,0.117320231,0.63077735,-1.165727733,0
0.002115457,0.241752768,3.596407926,21.08422377,8.552873775,0.088994586,0.660258029,-0.762205615,0
0.001686055,0.230842689,3.771043778,23.17401572,8.467750495,0.041726235,-0.20334115,-0.369448382,0
2.17E-05,0.230596986,3.76115067,23.30032026,8.418511145,0.031730233,0.465412814,-1.226603609,0
-0.000489421,0.23037229,3.782110244,23.51025593,8.400932911,0.021338946,0.526307805,-0.422491245,0
0.003162807,0.239479786,3.623048488,21.31251929,8.391349139,0.025728863,0.353001911,-0.784912758,0
0.001175616,0.238136598,3.668282475,21.58546407,8.385653796,0.022864711,0.580438523,-0.279697152,0
0.000464696,0.238934313,3.790352959,22.17829033,8.422464316,0.054575848,0.925106448,-0.365540191,0
0.002887462,0.250072573,3.700688178,20.61878882,8.499714824,0.07826571,0.177075613,-0.713597753,0
0.000477513,0.237917045,3.850298143,22.5952682,8.487583651,0.084224338,0.2289618,-0.586147394,0
0.001985766,0.236854285,3.870500609,22.55945387,8.370686504,0.073447001,0.40983649,-0.937414482,0
-0.001508684,0.242511662,3.745192252,21.89284433,8.415693283,0.154502743,1.599175551,1.835720882,0
0.000153926,0.241820205,3.64540485,21.4444366,8.527498572,0.16320093,0.920417935,-0.49598184,0
0.00383914,0.239883429,3.695769568,21.73074289,8.503756332,0.143467537,0.914909518,0.084634056,0
-0.002544349,0.244486728,3.695464921,21.53621416,8.459581866,0.110284612,0.389969172,-1.20751285,0
0.00150962,0.255485895,3.462877668,19.38611493,8.530142811,0.119258175,-0.517271664,-1.201194287,0
0.003529731,0.253142181,3.348997839,19.4740839,8.532869393,0.094554181,-0.221740446,-1.069820642,0
0.00159836,0.260736511,3.244441867,18.23439141,8.390234266,0.075746618,0.483071114,-1.136506331,0
0.001270968,0.248310388,3.499598438,20.40897208,8.304567664,0.030884773,0.556888844,-0.491492654,0
-0.000325928,0.240783312,3.630765037,21.97262846,8.299736677,0.032082771,0.630427983,-0.522847145,0
0.001150988,0.251110701,3.469856923,20.0196147,8.286296354,0.042495112,0.405813137,-0.918766877,0
0.002789435,0.255044217,3.404783388,19.01617901,8.238474219,0.028615467,-0.421757769,-0.236179661,0
0.002388336,0.25469049,3.425285247,19.13490861,8.285078539,0.089128923,0.778733836,-0.721410298,0
0.001290926,0.235324425,3.924564964,23.60233157,8.285534995,0.090202446,0.689678287,-0.769107014,0
0.00064939,0.2275521,4.181947951,25.73695805,8.185726166,0.05155806,0.05917527,-0.563544991,0
0.002053685,0.246957782,3.59130178,20.16923341,8.144144603,0.059090801,-0.142977596,-0.133611437,0
-0.000259585,0.246706265,3.708383647,21.19394914,8.138046864,0.084473463,0.158172919,-1.314366306,4
-4.83E-05,0.246607778,3.91672793,22.34327535,8.096882575,0.090803476,0.440372355,-0.777163503,4
0.002453071,0.244066613,3.870040271,21.96919123,7.997447096,0.081405513,0.742164117,-0.492935347,4
0.001908718,0.237363223,4.112058991,23.96280469,7.977510616,0.075217997,0.882648183,-0.401555043,4
0.003644956,0.246470149,3.963319641,21.98363575,7.956276485,0.090750403,0.722487212,-0.78311997,4
0.00029151,0.236871812,3.929970255,23.158528,7.856796428,0.057023045,0.083063511,-0.273179006,4
-0.000698979,0.227937423,4.108627914,25.32789519,7.773432868,0.058821498,0.500059558,-0.626743101,4
0.000713222,0.227609994,4.22285023,26.01303668,7.692376872,0.040879805,0.270252474,-1.170955996,4
0.000267537,0.238051325,3.888869541,23.09282099,7.622486823,0.039203482,-0.123365878,-1.406060502,4
0.001546031,0.235266939,3.916630792,23.36303639,7.556742695,0.040228158,-0.347668761,-0.238164912,4
0.002135572,0.236649519,3.979236106,23.31166489,7.496695982,0.037101354,0.482799312,-0.862566371,4
0.000496137,0.237320092,3.980779692,23.23211779,7.423494611,0.049678017,-0.305582831,-1.421571322,4
0.00037806,0.226091648,4.204312654,25.96962384,7.352612741,0.036159819,0.584685035,-0.158220126,4
0.002013336,0.237371522,3.980557823,23.27169427,7.283288302,0.04701526,-0.034616195,-1.424943013,4
0.001860953,0.235792623,3.983693211,23.40256232,7.216233826,0.031859629,-0.071206228,3.296097081,4
0.000810294,0.237634531,3.96001111,23.26851231,7.176843153,0.022211152,-0.35605124,9.181497502,4
0.001250643,0.249030135,3.681631512,20.51122559,7.128563636,0.039663805,-0.454197507,-1.10658049,4
0.002463089,0.245866081,3.718916529,20.90752065,7.102060536,0.029533765,-0.009209064,-0.805376454,4
0.001233601,0.23640015,3.923434001,23.25698071,7.069001825,0.047337289,0.267470715,-1.182869516,4
0.000765387,0.236588864,4.014927759,23.54809619,7.006596865,0.028408396,0.455841708,-0.159467551,4
0.001249767,0.246534989,3.853613259,21.59887152,6.969997461,0.027299248,-0.737474326,0.158530542,4
0.001005347,0.238171056,3.885524866,22.94239438,6.914205769,0.048880384,0.270987785,-1.113150183,4
0.00086106,0.236195038,3.975741202,23.45840692,6.843027551,0.035941995,-0.03477806,-0.822065081,4
0.001968678,0.245742828,3.853683793,21.59668335,6.778629902,0.041802233,-0.177999888,-0.448856861,4
0.002376663,0.235976389,4.009950879,23.54465455,6.711557388,0.039694432,0.033881294,-0.619330899,4
0.000396319,0.227218556,4.214028884,25.87160589,6.646857561,0.037298462,0.250543591,-1.064595456,4
-0.000160276,0.227756638,4.22436941,25.80824236,6.58707586,0.033162809,-0.339976769,-0.993164932,4
0.001637859,0.236289797,4.024041186,23.47050207,6.531878989,0.034790778,0.230052817,-0.738737491,4
0.001135561,0.23891732,3.971156686,22.97703772,6.475349808,0.033457398,0.096425428,-1.026511927,4
0.000844038,0.229560581,4.155433089,25.37767074,6.418116651,0.033378944,0.018268816,-0.937703265,4
0.00113256,0.237686133,3.981092479,23.28214455,6.361650358,0.03377812,-0.06293627,-0.884236715,4
0.000891089,0.236458695,4.062888641,23.66981521,6.311926433,0.028391412,0.33656928,-0.542116691,4
0.000744062,0.226867967,4.283011752,26.02835123,6.267092732,0.027492205,0.02351656,-0.889070824,4
0.001943154,0.237435722,4.103919432,23.69866988,6.221358762,0.028381817,-0.197182191,0.64170371,4
0.001514106,0.238101515,4.059200804,23.46836306,6.169133377,0.033825045,0.01912737,-0.136938113,4
0.000588128,0.228052588,4.252834715,25.80878791,6.121564811,0.023728315,-0.159581657,1.328767174,4
0.001297348,0.2276593,4.283598011,26.03205816,6.076905768,0.030319148,0.103341689,-0.985720689,4
0.001006838,0.238449117,3.998254097,23.14224268,6.028008052,0.02866092,-0.326837429,-0.286471657,4
0.001318085,0.239130977,4.008476893,23.15125711,5.98625848,0.025968792,0.474521055,-0.203408631,4
0.001264997,0.232222273,3.985288217,23.83321306,5.945191084,0.025507962,-0.034279461,-0.696323645,4
0.002073192,0.241741532,3.838170491,21.83690363,5.90640237,0.022400796,0.103292294,0.097190533,4
0.000997912,0.237633116,4.011058915,23.22945039,5.865224838,0.029912845,-0.198986828,-0.618658052,4
5.49E-05,0.230059475,4.120451908,24.80341696,5.817725645,0.028629889,0.437381168,-0.371911617,4
0.003042821,0.241091197,3.945488256,22.55550118,5.77611678,0.023244429,-0.254845631,0.190392051,4
0.001289344,0.23761998,4.000620637,23.40058591,5.744047219,0.019604034,0.664225927,0.839124549,4
0.000185172,0.238764869,4.006831316,23.25012573,5.714452253,0.01967301,-0.085533692,0.89060388,4
0.001498431,0.228361375,4.269599959,25.84472096,5.690166146,0.015403182,-0.126608925,5.839309787,4
0.001170888,0.228325001,4.294277814,26.02607161,5.667220252,0.019010221,-0.058747938,1.273659877,4
0.000840781,0.239354816,4.018652436,23.19474264,5.634409387,0.022425671,0.030776483,-0.44047409,4
0.000152481,0.228648613,4.227740948,25.59342313,5.600206757,0.021832186,-0.154394264,0.80150467,4
0.001672727,0.228430207,4.279285561,25.7783057,5.57168541,0.019522161,0.380122189,1.185956711,4
0.002107446,0.239963976,4.016099121,23.20612502,5.54497697,0.018002038,0.503049974,1.242916606,4
0.001996831,0.249531451,3.813018287,21.08707188,5.516670336,0.01939277,-0.262693381,0.305978171,4
0.002023734,0.237044441,4.058687615,23.64603379,5.491058513,0.018965819,-0.846433446,20.67825604,4
0.001303037,0.227378777,4.274097572,26.16075104,5.467512403,0.017494275,-0.861816441,22.47102556,4
0.00030731,0.228998975,4.225191303,25.69833381,5.444664492,0.014653354,0.036430051,4.707000357,4
0.000630995,0.22873073,4.283371376,25.95984739,5.423287037,0.015841489,-1.032948233,23.72202585,4
0.001332308,0.228339898,4.308982054,26.08374978,5.398243059,0.018688316,-0.435088693,7.888101117,4
0.000155188,0.229375616,4.257828228,25.74102852,5.377562223,0.013743608,-2.094530027,82.92884808,4
0.000781448,0.231069956,4.267493092,25.59018404,5.35748024,0.018854529,-0.842243656,19.12174367,4
0.002392463,0.239846366,4.153253348,23.87532816,5.32813045,0.020658865,0.138103356,0.726265251,4
0.002136128,0.238613022,4.191029885,24.22872784,5.301102665,0.016637813,0.574483463,3.975369966,4
0.001823194,0.228255245,4.374878547,26.34599992,5.280923898,0.013619506,0.373018711,4.886970557,4
0.001611962,0.228231613,4.329776851,26.13499864,5.260304206,0.016133384,-0.158208831,7.153146851,4
0.001273414,0.230433924,4.229089153,25.46275637,5.237191609,0.015963686,-0.09722328,7.488231875,4
0.000204437,0.231486998,4.195336831,25.16042085,5.216547939,0.014569079,0.21849553,5.286065636,4
0.00014895,0.230695708,4.226781124,25.45537105,5.193523243,0.017473564,0.422806394,1.929232676,4
0.000626947,0.230175969,4.231706625,25.57880058,5.172328295,0.012703215,0.463007374,6.158736621,4
0.001012848,0.229506441,4.280089422,25.86391212,5.156944874,0.013182687,0.717133453,10.20757349,4
0.001536235,0.228733053,4.329338102,26.17492421,5.14138734,0.013042811,0.767374634,10.02419595,4
0.00449416,0.238847353,4.177085971,23.81293463,5.126946586,0.012937912,-2.05321308,110.2989756,4
0.002259175,0.240850284,4.043277211,23.01884819,5.114603751,0.011701723,-3.082946012,142.5686985,4
-0.001009879,0.230999393,4.12487325,24.96154701,5.100005123,0.014174238,-0.897497423,19.94873408,4
0.000754708,0.228909143,4.19780724,25.39372932,5.080781882,0.015219696,-0.338328762,12.90156856,4
0.000923264,0.229937635,4.163447422,25.18361745,5.063026701,0.012291969,0.117107015,12.47078423,4
0.000842671,0.240967525,3.997931787,22.96092425,5.052529853,0.010187204,0.700670443,29.76136508,4
0.000661639,0.239390168,4.052287375,23.29699255,5.043082537,0.011624858,1.269128772,16.00631374,4
0.001213943,0.228152562,4.314868839,26.08968155,5.030076327,0.011464567,1.252023517,14.34218788,4
0.001264598,0.228875742,4.348840645,26.1344425,5.015480804,0.012829702,0.958068832,11.00009122,4
0.00091331,0.230128675,4.286826661,25.75375896,5.003018079,0.010576622,1.12134758,15.54131391,0
0.001999956,0.24078059,3.947315564,22.72057474,4.994966888,0.010699117,0.6316122,12.21918392,0
-0.000168588,0.251802087,3.657584545,20.48498393,5.014092473,0.051412628,2.572362617,5.977080022,0
-0.002932833,0.26142327,3.264192019,18.43920919,5.220386614,0.219285837,0.806577594,0.036292428,0
-0.001066524,0.272312697,3.010184402,16.47677628,5.627096122,0.265075366,-0.079330883,-1.637313844,0
-6.30E-05,0.263886224,3.233306334,18.06938557,5.911333248,0.123869718,-0.887857364,1.920715614,0
0.001587184,0.249812496,3.502951492,20.3082807,6.091096824,0.143628277,0.095772543,-1.222244713,0
0.003367643,0.250826501,3.514738695,19.97345145,6.322765514,0.168987699,0.933791858,-0.155095293,0
-0.001213159,0.247250047,3.496988442,20.56452158,6.667921175,0.295767271,0.395718207,-0.552750433,0
0.001664527,0.239561608,3.505860209,21.45008552,7.074829973,0.254686167,0.10494643,-1.011580274,0
0.007471965,0.248603615,3.385450059,19.68034932,7.414960371,0.212953155,-0.329964711,-1.413110822,0
0.003765786,0.256201078,3.326061907,18.59878348,7.689911379,0.166982635,0.227589961,-1.160411318,0
-0.001911922,0.245214475,3.511169952,20.75213011,7.97258219,0.246743916,0.170852233,-0.481216512,0
-0.003996584,0.244342358,3.562237271,21.03713805,8.286956515,0.237101236,0.106033428,-0.054084923,0
0.00294136,0.242785529,3.508892853,20.71356498,8.501849147,0.157475613,-0.154133272,-1.088846683,0
0.00424619,0.245865193,3.464448666,20.29818065,8.611308398,0.147365487,1.161938154,0.108762812,0
0.000118338,0.248517472,3.49058015,20.27962711,8.736037881,0.165525743,-0.557003842,-1.294333576,0
0.001491224,0.246926273,3.482860195,20.37771824,8.757088143,0.083026179,0.150525486,-1.46542411,0
0.002427861,0.247654186,3.45572867,20.18365701,8.679910878,0.044407215,0.56684416,-0.360848014,0
5.67E-06,0.248099438,3.455009726,20.47366345,8.867472458,0.267337194,1.016957216,-0.383651897,0
0.001505107,0.252275492,3.316128515,19.26443735,9.027836718,0.211913684,0.555872189,-0.843092676,0
0.001765111,0.239076717,3.531163861,21.39926432,8.909228461,0.142162182,1.537244629,1.924411046,0
-0.000677928,0.243896903,3.594923815,21.20103283,8.930284446,0.1448198,1.081380993,0.436108024,0
0.000800007,0.255257163,3.385899433,19.21419568,9.026425988,0.109034164,1.093128685,-0.082899363,0
0.000957844,0.252681361,3.380519747,19.61718698,8.95562379,0.08811544,1.092915942,0.998528402,0
-0.00665884,0.255716528,3.083883177,17.77098863,9.054553986,0.390854376,2.253351361,3.623580282,0
0.003440002,0.266118446,2.933210072,15.71410389,9.568773978,0.546153396,-0.008444699,-1.379621275,0
0.00915819,0.281913596,2.883637662,14.74279478,9.674612209,0.331565035,1.146389851,-0.052846876,0
-0.000666916,0.28573226,2.916364818,15.42182079,9.550004523,0.204523379,1.229775106,0.002152528,0
0.001213087,0.253326608,3.442130806,20.59910857,9.577783912,0.194142274,1.084796909,-0.113828368,0
0.000553561,0.226542886,3.981956424,26.08900477,9.435776629,0.082536818,0.856864652,-0.336934938,0
-0.001110679,0.246483497,3.530953426,21.86312014,9.698175594,0.380830696,0.896441333,-0.457125125,0
-0.001134103,0.261599556,2.935185343,17.69535897,10.03875133,0.311680023,0.526106462,-1.291723981,0
0.001094814,0.268022126,2.653525821,15.74320859,10.01542151,0.251740401,0.983128895,0.016106486,0
-0.00050543,0.283186399,2.522495358,14.23395543,10.15115324,0.327892945,1.016602858,-0.218073537,0
0.003222977,0.282233326,2.571459407,14.17237175,10.4854454,0.418426795,0.44423744,-0.916210902,0
0.003079311,0.260282968,3.120485688,17.72471549,10.36111984,0.408197831,1.287475067,0.170764496,0
0.000425439,0.248956832,3.463812711,20.93718027,10.08882239,0.085018714,0.529984408,-0.54371676,0
0.002025179,0.250411354,3.361459226,20.28321881,10.0270322,0.101690331,1.141668079,0.178234063,0
0.000609682,0.264047718,3.148527935,18.02497721,10.08966435,0.189562938,1.181074704,0.063829363,0
-0.001139354,0.264821892,3.15990685,18.10441049,10.20013815,0.170864616,0.495876291,-0.812152995,0
-0.001261963,0.265134406,3.12678067,17.49097859,10.37393564,0.309418663,1.046737044,-0.042414439,0
0.005636261,0.263710456,3.022623751,16.77495317,10.4741588,0.287521371,0.596772334,-0.643339378,0
0.00358805,0.252547166,3.264276856,19.05961629,10.26401743,0.213331143,0.773484016,-0.486577817,0
-0.000868116,0.2615951,3.130934595,17.61390444,10.0468671,0.128567593,1.026186686,0.156852584,0
-0.00018665,0.260025768,3.09001129,17.29919594,9.92151462,0.05824476,0.181425644,-0.841676107,0
0.000903364,0.26341688,3.117283517,17.39601529,9.876228333,0.047910986,0.647947165,-0.558576405,0
-0.000188612,0.272446714,2.987811499,16.35105649,9.866432953,0.042087496,0.493019551,-0.974081479,0
0.000912761,0.260875436,3.192397939,17.99503432,9.864736012,0.039762158,0.381098178,-0.819447714,0
0.002800049,0.239073373,3.666179427,22.08478737,9.855791691,0.045947002,0.359623794,-0.963466364,0
-0.000450838,0.251414652,3.485334333,19.94329273,9.859565626,0.043434511,0.41336953,-0.203842355,0
0.002603119,0.269794867,3.02893497,16.18882298,9.88876746,0.033810928,0.238389681,-0.302415291,0
0.003762968,0.264050001,2.981124816,16.43575274,9.96609339,0.109913272,1.402557004,0.637919848,0
0.000374006,0.266262629,3.018931059,16.49439481,9.977268546,0.108251991,1.190607877,0.287143654,0
-0.000553443,0.271938685,2.896810626,15.68677886,9.89645898,0.052983546,0.671304947,-0.205968275,0
-0.008029816,0.264346293,3.069050357,17.09362597,9.966532407,0.207371712,2.299737265,6.029956783,0
0.003244204,0.25964,3.201227159,17.47918889,10.28581848,0.4149263,1.00134711,-0.123801993,0
0.009219328,0.255134033,3.345706062,18.15356217,10.22567591,0.413577293,1.376224872,0.464607688,0
-0.000943699,0.249323521,3.561202191,20.29394559,9.994120625,0.067228553,0.115066134,-1.376488947,0
-0.000208263,0.261961035,3.182041221,17.6180708,9.979840197,0.073097888,0.369196747,-1.290420386,0
-0.002750584,0.263424847,3.098430212,17.23985199,9.94805178,0.068070487,1.865988597,4.98866084,0
0.003672978,0.261849772,3.080343268,17.40079153,10.06867981,0.166653593,1.062960806,0.208182304,0
0.006331754,0.279601404,2.855670353,15.05096941,10.14353452,0.153274973,0.473806302,-0.676047785,0
-0.001537707,0.269115755,3.037505672,16.5692909,10.04406199,0.125156424,0.783650171,-0.488438784,0
-0.006228182,0.248769885,3.306572301,19.44907137,9.960910525,0.074793226,2.077913828,5.893568442,0
0.002818837,0.259822985,3.155959451,17.62716888,10.03638415,0.163716075,1.258615177,0.13132468,0
0.005928922,0.258183512,3.196285153,17.93873419,10.039037,0.150440855,1.584538319,0.989656265,0
-0.000675993,0.258851613,3.192282581,18.06109102,9.94271431,0.04764284,0.14907172,-0.954403824,0
0.002929079,0.271484722,3.003442523,16.2658254,10.00478712,0.111809802,0.574340138,-0.826754748,0
0.005783373,0.267592931,3.169244731,17.09165905,10.03337669,0.114876667,0.078138198,-1.212868101,0
-0.005095191,0.269390464,3.018198818,16.23834921,9.987163653,0.169650135,1.868201653,3.146251364,0
-0.001618966,0.261658127,2.921508063,16.38360264,10.03607886,0.221582162,1.327940195,0.333943536,0
0.00557649,0.255898706,3.151591061,17.79901206,9.981327166,0.184966597,2.035165955,2.953821385,0
0.000526709,0.266313113,3.032213155,16.65348537,9.872483553,0.035340203,-0.066769401,-0.640202591,0
0.003413047,0.257351634,3.179016868,18.08624566,9.887498529,0.080576839,0.934458545,-0.217789224,0
0.001536837,0.248864847,3.344445271,19.7140605,9.931568854,0.078419215,-0.102385624,-0.951442193,0
-0.000722953,0.257724566,3.117163719,17.81052289,9.973882348,0.04922686,-0.019526758,-0.286303581,0
-0.000393526,0.265634285,3.067221738,16.67195906,9.942303194,0.067382699,0.243782661,-0.970549193,0
0.001516479,0.267380865,3.05672651,16.5372779,9.952631269,0.094418816,0.926702452,-0.271724794,0
0.002821518,0.267255605,2.995289189,16.29464444,9.958679962,0.09495561,0.614957379,-0.272372984,0
0.002137514,0.257023336,3.176382894,17.90416653,9.873090744,0.049989458,0.480275323,-0.705106317,0
0.000597578,0.254275284,3.309576988,18.93204786,9.854709353,0.033467459,0.172914561,-1.031139637,0
0.000549709,0.257374865,3.169600229,18.10437677,9.86410141,0.029222688,-0.077079891,-0.173754511,0
-0.003321062,0.262673036,3.013689066,17.09785286,9.919140516,0.139627451,1.809678446,2.439778621,0
0.000855639,0.260280847,3.050138391,17.26796805,10.05101357,0.210296289,0.677180705,-0.713125426,0
0.005303624,0.257445496,3.154630898,17.58247373,10.02431063,0.182740576,1.532225468,0.929090944,0
0.001164394,0.267379091,3.028089717,16.53928205,9.899319404,0.039088678,0.322936414,-1.098718904,0
0.001162622,0.267409479,2.963001243,16.44219314,9.847363009,0.04133131,0.53179465,-0.400105779,0
0.001070258,0.265725659,3.002586617,16.61637733,9.828783199,0.038048995,1.260801209,0.75491696,0
0.002452613,0.268654871,2.940680898,16.1766567,9.901774652,0.095817478,0.825519935,-0.385234019,0
0.000672481,0.259260568,3.121756975,17.66552605,9.934039797,0.085177964,0.537323222,-0.695571049,0
0.000402989,0.257648306,3.217471079,18.19103067,9.885882568,0.051605331,1.097164922,0.587704739,0
-4.05E-05,0.26836199,3.02101806,16.58090034,9.841281073,0.038611232,-0.256055803,-0.359062457,0
0.001221359,0.260698507,3.053440758,17.45688979,9.864703369,0.060395101,0.214577442,-0.748965839,0
0.005393542,0.27486264,2.613024368,14.46781661,10.24446515,0.402196467,0.564436069,-1.390664208,0
0.001333394,0.293280306,2.465772806,12.47111078,10.42099876,0.282217422,0.407035419,-0.923617879,0
-0.000726824,0.286170075,2.639884257,13.30303368,10.14009203,0.15828074,0.323056873,-0.934123822,0
0.001618764,0.274766353,2.732654152,14.49931121,10.04012457,0.104143406,0.695928017,-0.810150323,0
-0.00447568,0.275754042,2.756332256,14.73294899,10.00306293,0.137557118,0.557908406,-0.888580666,0
0.000478298,0.288933575,2.580387623,12.86501006,10.00114201,0.161595594,0.45452647,-1.307242924,0
0.006179764,0.288013111,2.657762935,13.23049879,9.914061138,0.187545438,0.746737091,-1.061542407,0
0.003002452,0.290576834,2.656289301,13.20243672,9.765063531,0.038936298,0.028371815,-0.920503425,0
-0.000131784,0.289448568,2.482322136,13.16718964,9.715880476,0.060930498,0.345096855,-0.853288963,0
-0.000866821,0.287601086,2.456470809,13.62124726,9.648088946,0.036762587,0.819647993,0.965364662,0
0.000763811,0.296900946,2.416535172,12.89455899,9.638517325,0.044428399,1.327675497,1.448036233,2
0.000410908,0.296813663,2.344420918,12.61273563,9.658168575,0.050719445,0.531648949,-0.63042022,2
0.002407582,0.29483489,2.371778652,12.58535212,9.637007523,0.043676358,1.036943619,0.370115122,2
0.001372519,0.306811093,2.359019754,11.80303326,9.67676239,0.093854522,1.192365351,0.200308531,2
0.001615069,0.306503318,2.357796123,11.72862021,9.698312051,0.081156532,1.317689214,0.603377849,2
0.000766878,0.307490841,2.300154741,11.53364463,9.65597605,0.029295389,0.642492712,-0.378705328,2
0.000748136,0.312768491,2.229139866,11.26062489,9.666841452,0.035032662,0.524150714,-0.688073362,2
0.00107392,0.313476969,2.261199264,11.28772882,9.792953328,0.142011212,0.506418785,-1.021294331,2
0.001508619,0.310941132,2.270368491,11.29519011,9.835703605,0.108798679,0.6831739,-0.39817736,2
0.001914394,0.303058586,2.242541794,11.94429711,9.757611847,0.067684311,0.367360177,-0.717358788,2
-0.003024098,0.307402105,2.225697224,11.65934503,9.833181817,0.131770055,0.577106713,-0.536975764,2
0.00118925,0.313311105,2.152906063,11.02922145,10.06492108,0.238299679,0.726312131,-0.450965124,2
0.004367386,0.317233307,2.089882699,10.69023146,10.02572561,0.255751067,0.877065104,-0.486939094,2
0.001050528,0.310568613,2.128949753,11.0622759,9.842084994,0.116203036,0.208429425,-0.963258118,2
0.001571346,0.295158459,2.244274603,12.49695695,9.826011658,0.115543498,0.378144472,-0.788145064,2
0.001611407,0.306768197,2.198501283,11.54899309,9.924679729,0.223830385,1.391641608,0.701620668,2
0.001548549,0.308343817,2.224802565,11.54376696,9.986059243,0.21605032,0.896229226,-0.247046339,2
0.000515357,0.29750029,2.326250021,12.73095975,9.909673146,0.112589893,0.511702952,-0.365925872,2
-0.000137094,0.303564735,2.218911685,11.78180153,9.791116061,0.123126325,0.057412118,-1.319440152,2
-0.001346715,0.295846502,2.268751659,12.60484184,9.81517443,0.223645867,1.158186104,0.146646433,2
0.000658186,0.294906033,2.290946602,12.52016822,9.834853309,0.224710871,0.896375397,-0.276032033,2
0.00187022,0.282290277,2.474647369,13.9255507,9.736688886,0.089741277,0.677330546,-0.21630862,2
0.000600337,0.283128868,2.569698871,14.28207074,9.73565276,0.058356271,0.0107387,-0.900379457,2
-0.000120693,0.299308395,2.336246579,12.47628263,10.03853613,0.463320657,0.846086102,-0.902916023,2
-0.001550439,0.304873324,2.242376284,12.05613741,10.29280641,0.373462957,0.016846999,-0.687228088,2
9.22E-05,0.309883161,2.275585415,11.6786154,10.11180033,0.221319685,0.902483018,1.070914334,2
0.00143539,0.310058987,2.275026593,11.77903139,10.00224991,0.201292956,0.579605135,-0.897177881,2
0.001596451,0.311328271,2.226145821,11.48696069,9.880221285,0.216401726,1.423930012,0.669774024,2
0.001661303,0.297496212,2.367395602,12.67077945,9.680946187,0.082181074,-0.08476654,-1.173247446,2
0.002415475,0.300392373,2.339158072,12.62780355,9.759633963,0.264967032,1.093276366,-0.370791386,2
0.002151247,0.312317108,2.270304888,11.53140473,9.848098264,0.270362635,0.191944359,-1.289698258,2
0.001223759,0.30791279,2.281034444,11.71697415,9.641862706,0.21939733,0.734663314,-0.905105851,2
0.001969561,0.30804516,2.266721848,11.65591678,9.435073798,0.091554703,0.960187453,0.13173322,2
0.002135598,0.296919773,2.396048891,12.84072653,9.361736843,0.045063098,0.152351139,-0.311674159,2
0.001915506,0.299782182,2.325199385,12.37747249,9.425641796,0.158585837,0.737700785,-0.772019701,2
-0.004481121,0.309893673,2.254361691,11.42902328,9.436349433,0.157624361,0.548183985,-0.877366867,2
0.000714661,0.306164781,2.327561621,11.84995548,9.357091141,0.081362641,0.704559756,-0.356381482,2
-7.80E-05,0.295250736,2.406423097,12.60003383,9.290055793,0.093096059,1.357167652,1.199670982,2
-0.000215528,0.291343192,2.460207618,12.91923948,9.265074539,0.108020151,1.253260026,0.412886826,2
0.007213139,0.293450165,2.424455708,12.99610168,9.245190593,0.114756376,1.357095325,0.601373602,2
0.001311257,0.306410838,2.369310296,12.15387489,9.198584747,0.044136507,0.254718969,-1.074203793,2
-0.000635507,0.29996626,2.525532524,12.69132189,9.154485703,0.064073125,0.097895435,-1.217752484,2
-0.000345984,0.265650679,2.885622313,16.40745765,9.099639838,0.037556044,0.753698479,-0.71512217,2
5.04E-05,0.285109968,2.522505217,13.65721154,9.271386119,0.300402365,1.507661106,0.834175803,2
-0.002872761,0.312082974,2.251713609,11.18957284,9.609017944,0.326834566,-0.073893496,-0.926890866,2
0.003920661,0.320337074,2.198701581,10.6592394,9.622400611,0.274772868,0.28953486,-0.667809444,2
0.005243304,0.317910244,2.16400102,10.67866596,9.327020264,0.245140532,1.111423029,0.544691603,2
-0.000293407,0.311908343,2.244726752,11.55365169,9.255136272,0.156265437,0.008903438,-1.340089745,2
0.002139117,0.299639421,2.37511435,12.68976027,9.18789008,0.185826235,0.436836283,-1.349104525,2
0.001990507,0.293679832,2.381916835,12.77432943,8.965248435,0.095032481,0.609602696,-0.123814341,2
0.000954607,0.294896335,2.382390016,12.7033777,8.965001406,0.149980094,1.428019931,0.633902504,2
-0.001849339,0.285774419,2.503205926,13.79479964,9.001553835,0.14152716,1.034122317,0.057207116,2
-0.004891891,0.296036226,2.416558059,12.72314696,8.925759179,0.091174817,0.019878878,-1.161029863,2
0.002753233,0.356767922,1.610593454,7.703795039,8.919606781,0.087358592,-0.073494772,-1.235628928,2
0.007632241,0.35026557,1.604499775,8.030614437,8.880464772,0.095064154,0.068945986,-1.239777401,2
0.004498306,0.349054438,1.696477491,8.173343652,8.792943845,0.050658519,1.595954159,2.152635491,2
-0.001758963,0.396661622,1.31482615,5.72216588,8.838778687,0.073684577,0.575069343,-0.875394852,2
-0.002729285,0.332080446,1.733564576,9.366279736,8.90037008,0.041825239,0.666368705,-0.346303426,2
0.004282039,0.26675461,2.896221161,15.95568169,8.931781496,0.080651095,0.99481328,-0.119698952,2
0.00203818,0.276251905,2.80058233,14.83906016,8.943791362,0.072677395,1.059524626,0.305382092,2
-0.001383473,0.276504008,2.735893602,14.76709299,8.951439122,0.040171325,0.394399913,-1.029792182,2
-0.000492599,0.278319108,2.718211161,14.75920884,8.995385252,0.030991543,-0.289082493,0.728677001,2
0.003083091,0.277488485,2.724338437,14.6954527,9.046949823,0.043691753,-0.130512029,-1.443153865,2
0.005295652,0.267504354,2.897142626,16.12338251,9.256854085,0.218680043,1.039096285,-0.202400774,2
0.000409136,0.265725191,2.900930547,16.33644481,9.284800175,0.200362213,1.107455355,0.061754133,2
-6.32E-05,0.283289662,2.668472932,14.01603913,9.146822684,0.048125516,0.6888388,-0.449405783,2
0.002103601,0.277046647,2.761650309,14.8938769,9.150828171,0.033929012,0.880402995,0.596334582,2
0.000917816,0.274652547,2.783784492,15.1584723,9.229386793,0.105654706,0.967999565,-0.46398413,2
-0.002260378,0.281114009,2.715114057,14.42023776,9.296948896,0.071638236,0.593829195,0.200209612,2
0.002307005,0.284769009,2.661519924,13.91029161,9.338381413,0.060111693,0.125312548,-1.329690976,2
0.000856515,0.300897726,2.434169434,12.24727403,9.39189306,0.03628433,1.68372647,3.533571263,2
-0.002104837,0.302934959,2.403729557,12.07784321,9.429783031,0.057726338,0.641807485,-0.435384837,2
0.003686305,0.301754968,2.433554758,12.32767101,9.521371787,0.083371326,0.704331862,-0.612040201,2
0.004742007,0.299668449,2.376172321,12.23817015,9.557821437,0.06000575,0.78055689,0.456367476,2
0.001147489,0.288066875,2.497476302,13.34074398,9.567719977,0.048260322,0.821570897,-0.346864935,2
-0.00324661,0.278783018,2.703545118,14.88773501,9.625030954,0.050199347,-0.987562888,-0.080988709,2
-0.002690225,0.298807022,2.584576164,12.86765534,9.718306133,0.083389692,1.544613483,3.100111669,2
0.00291672,0.299064955,2.515310835,12.58659039,9.851611492,0.133828091,0.845929504,-0.693287828,2
0.005541151,0.28874749,2.513331482,13.28041609,9.818512835,0.144743524,1.056662009,-0.456962719,2
0.000962971,0.291917995,2.524796209,13.2912246,9.79020789,0.098948204,0.930217662,-0.577527137,2
-0.00187912,0.282076064,2.620748308,14.39469726,9.856665094,0.067270844,0.529037649,-0.057053856,2
0.002959835,0.281106803,2.613504148,14.07127284,9.98746218,0.193359707,1.211820386,0.138236559,2
0.003614692,0.272513307,2.785309107,15.45473745,10.04196968,0.158342483,1.498973062,0.838312587,2
-0.000542947,0.270612861,2.899650712,15.8951127,9.987097386,0.042719361,0.081496408,-0.665980613,2
0.003992817,0.276531476,2.890782976,15.15834089,10.28177261,0.369114149,1.012748035,-0.543322224,2
0.000379558,0.273831707,2.821501424,15.29111294,10.41811338,0.308460118,0.709958408,-0.638246337,2
0.000591888,0.28454896,2.627784708,13.46926524,10.20131558,0.186114373,0.593904063,-0.692523936,2
0.001557037,0.292196435,2.500083176,12.78034815,10.0573143,0.131420668,2.166000912,3.874509402,2
-0.001690404,0.285227027,2.500654518,13.64558219,9.995310211,0.024133289,0.838289353,0.857914446,2
0.001748461,0.283262136,2.579812118,13.96015091,10.09810715,0.148729313,1.093258629,-0.209376089,2
0.001513628,0.28561695,2.589693209,14.07533134,10.23770354,0.133411864,-0.03388287,-1.462119224,2
0.000221865,0.286317948,2.603946177,14.10272493,10.38570584,0.24508589,1.048246461,0.090456186,2
0.001510385,0.284323121,2.575791265,13.87602265,10.43093398,0.247264018,0.639010139,-0.644692664,2
-0.002733928,0.281816934,2.626434851,14.27802701,10.24535762,0.228888445,0.422841801,-1.235468418,2
-0.002578478,0.345724917,1.655800063,8.771578113,10.08929847,0.225669768,1.233065344,0.178379004,2
0.002429097,0.344846752,1.656952746,8.748231027,9.95748242,0.184794359,2.333351904,4.370475114,2
0.004588872,0.281354953,2.741203129,14.63941986,9.899430902,0.051729944,0.895695383,-0.151627427,2
-0.000756683,0.284678977,2.676244314,14.34901158,9.971838706,0.103314683,1.656186017,3.313713988,2
0.00021696,0.295709938,2.582041499,13.24397772,10.20998099,0.283214881,0.767070953,-0.561255601,2
0.002510311,0.293258067,2.560006888,13.28215162,10.11601214,0.373085764,0.29370443,-1.011702313,2
0.001174327,0.281430307,2.665609692,14.44263607,9.700954056,0.191859709,1.480520421,1.038415953,2
0.00313213,0.282761631,2.712478615,14.66871571,9.581828472,0.027288711,0.68216169,0.359986822,2
0.00053219,0.284403627,2.666883046,14.51163375,9.610125296,0.044077686,1.23991162,0.737988745,2
-0.000181824,0.285234492,2.658779879,14.42532728,9.654287502,0.069844184,0.614284328,-1.060261968,2
0.000423268,0.284788638,2.62960827,14.28707952,9.677887399,0.064560077,0.201820918,-1.288599679,2
-0.003222061,0.283870218,2.659400342,14.20484349,9.695352445,0.094815576,3.675535357,15.27859416,2
0.004389666,0.282138763,2.692060178,14.23677337,9.829936654,0.241179822,1.412376847,0.541185107,2
0.008258292,0.293153736,2.59977686,13.27140823,9.842260034,0.22468625,1.553961237,1.135171733,2
-0.000728008,0.294651165,2.636694471,13.50415795,9.741452299,0.10963639,0.625368611,-0.899912216,2
-0.004912007,0.282900664,2.679584116,14.47177757,9.770505851,0.140062349,0.540177052,-0.864311131,2
0.000567594,0.29167431,2.51929902,13.03353906,9.864035852,0.330335896,1.034706706,0.010572929,2
0.008629545,0.302265178,2.527003431,12.37437779,9.757899312,0.359045428,1.439365498,0.596460467,2
-0.000661671,0.293714885,2.668782661,13.75298377,9.48650638,0.114480279,0.498677854,-1.245352395,2
-0.006688732,0.294433307,2.605230758,13.64502578,9.401511002,0.065460909,3.265300917,11.97760495,2
0.00123179,0.28411843,2.644571564,14.38010857,9.51478969,0.180882792,0.999601435,-0.617673626,2
0.00172726,0.272808986,2.736330725,15.40531868,9.516121892,0.179683717,0.961463394,-0.604491867,2
0.000885367,0.292415563,2.628950291,13.5160092,9.435086659,0.079262743,1.293285722,0.594007203,2
0.005225019,0.291654563,2.639181997,13.63623215,9.509849657,0.155563082,1.333979576,0.342882466,2
0.002709006,0.281757327,2.581102073,14.03103381,9.557930047,0.141247791,0.864049717,-0.023656516,2
0.000192123,0.293311802,2.489341264,13.00649191,9.522746604,0.04872323,0.449983992,-0.523188285,2
0.002155027,0.295842112,2.584319283,13.25976034,9.513694927,0.072128153,1.118643196,0.534298499,2
0.000567248,0.291625951,2.629119534,13.70281907,9.468807329,0.093610817,1.211375527,0.243216781,2
-0.00436443,0.290435944,2.614588213,13.65936915,9.476910618,0.147039803,2.803094954,7.651730778,2
0.001173968,0.291556939,2.546295384,13.13460004,9.602028928,0.226993914,1.286602465,0.246013312,2
0.003788164,0.290770126,2.618556784,13.59967194,9.50059918,0.237480844,1.645429333,1.450151738,2
0.000556896,0.282515149,2.757133281,14.80028331,9.364015525,0.022963656,-0.068649065,-0.918290309,2
-0.001582241,0.283307213,2.676248547,14.26483305,9.404477474,0.036453796,1.763968708,3.872208151,2
-0.000856953,0.295144487,2.547339547,13.06878566,9.511832047,0.114280727,1.674681397,3.791939535,2
0.004737507,0.293853336,2.603240203,13.45632937,9.651721791,0.206183829,1.02926739,-0.29436535,2
0.004464726,0.291255317,2.710740685,13.84185316,9.58261904,0.228304695,1.249632822,0.108119058,0
0.00314653,0.281597997,2.799902819,14.95702914,9.475350353,0.086896355,0.73178841,-0.711842498,0
0.001252383,0.268575808,2.916825792,16.35859934,9.528868212,0.129226946,0.876755693,-0.428310078,0
-0.00137318,0.265109164,2.891282003,16.01074017,9.526406533,0.112121699,1.537239433,1.19042922,0
-0.002001205,0.266471496,2.778655363,15.15404437,9.460054834,0.063318557,-0.663186902,-0.653962253,0
0.000967379,0.295049384,2.285973196,11.2395956,9.410392761,0.061550557,0.796958396,-0.517861417,0
0.002357032,0.301841611,2.182935069,10.61666035,9.430592891,0.049631093,-0.196682931,-1.129002138,0
0.000944602,0.293012323,2.373317891,12.07362075,9.507243892,0.087112817,1.538618682,0.836044108,0
0.004960831,0.294821352,2.279131396,11.44237962,9.533477402,0.081704987,0.983365175,0.061463249,0
0.000711659,0.289041835,2.32782177,11.84258455,9.524732699,0.025264949,0.103155416,-0.090694121,0
-0.00318529,0.290674273,2.375320322,12.24732083,9.604887717,0.097724965,0.688631816,-1.07164672,0
0.004045506,0.289578432,2.377313026,12.41355345,9.701786913,0.125620878,0.812110233,-0.221078398,0
0.005611032,0.276033563,2.435011549,13.32677187,9.601018524,0.165974945,1.148747067,0.171794962,0
-0.002610136,0.274168008,2.515680056,13.74864074,9.481761769,0.039425691,1.522327868,3.459391538,0
-0.001778811,0.275731586,2.619603238,14.25256863,9.511217444,0.048353877,0.597353025,-0.425463736,0
0.002249418,0.265438388,2.695621184,15.44417731,9.535029439,0.037810861,0.609875402,-0.795069397,0
0.003145994,0.264498015,2.64199805,15.14899546,9.56344174,0.046063026,0.141234357,-1.269150617,0
0.001075627,0.265742026,2.674824461,15.21198002,9.678290503,0.104850413,0.822321315,-0.52317335,0
-0.00078632,0.263382347,2.824687983,16.01923604,9.73881024,0.067980531,1.011195146,0.202443485,0
0.002628505,0.267068956,2.81634778,15.44246265,9.755193002,0.055508709,1.026594947,-0.446240517,0
0.002325917,0.263765559,2.878615582,15.94050621,9.845305579,0.069775344,-0.703253284,-0.918557321,0
0.001526374,0.255214902,2.98412439,17.16701794,9.960560444,0.102124232,1.367803471,0.545233835,0
0.000766728,0.266284382,2.818109419,15.46053485,10.03392062,0.099184096,0.329378253,-1.061415963,0
-0.0011144,0.263613605,2.84421527,15.92067521,10.01601279,0.069970391,1.100853588,0.340584169,0
-0.001368923,0.25281852,3.050015609,17.92672319,10.04004064,0.074202889,0.701599132,0.123814012,0
0.002891602,0.263977573,2.932755188,16.19838615,10.11741567,0.051364843,0.184622715,-0.996579623,0
0.001999041,0.254763594,3.008434238,17.29084706,10.16935975,0.044251475,0.462191608,0.114888382,0
6.21E-05,0.255637477,3.014492096,17.31633867,10.27250225,0.086119532,0.170275157,-1.330524014,0
0.003535538,0.270004007,2.664683001,14.66851199,10.48421277,0.155336443,0.293357483,-1.250988856,0
0.001085809,0.262336664,2.675042618,15.35031409,10.56975114,0.082694516,1.028928881,-0.144001854,0
-0.000566267,0.262018365,2.851907854,16.0265026,10.5628909,0.096294908,1.572384278,0.837312453,0
0.003538827,0.276610601,2.603602784,13.93428306,10.71735066,0.202174733,0.89210637,-0.280578943,0
-9.77E-06,0.275367078,2.439589137,13.47804563,10.70928743,0.193248404,1.291515725,0.249494943,0
-0.000832685,0.272598943,2.512928544,14.02541275,10.58480726,0.042704208,2.665890735,7.594504413,0
0.001460135,0.275084832,2.634204566,14.24949053,10.6086719,0.039934593,0.705006032,-0.504485371,0
0.000412772,0.266292399,2.738795205,15.16922558,10.69846126,0.065747116,-0.152343017,-1.236349647,0
0.002949914,0.267935307,2.686563033,14.76002017,10.79615996,0.048021598,0.187710356,-0.809317451,0
0.003849544,0.27203868,2.804326035,14.79007249,10.87723923,0.048317793,-0.386809322,-1.041700699,0
0.000494104,0.26907637,2.847526759,15.52398136,10.94751298,0.038888833,0.574220414,-1.074655771,0
-0.001885515,0.269605945,2.838439511,15.87155267,11.02415167,0.07812507,1.546553876,2.86201412,0
-0.001417812,0.283535663,2.485789713,13.22633428,11.121215,0.079664979,0.153045878,-1.080969121,0
0.000671225,0.280442688,2.441391433,12.88187238,11.15833506,0.05022819,0.148492095,-0.690377001,0
0.003160119,0.263649147,2.970346119,16.07047354,11.16016154,0.055354863,0.23871071,-0.999081386,0
0.003098315,0.267842277,2.87260551,15.91206039,11.1820506,0.065171882,0.668911341,-0.996027505,0
0.001215467,0.266147001,2.822952259,15.97950816,11.18501058,0.057417422,0.870441769,-0.351782245,0
0.000475865,0.265385679,2.838490506,16.1643403,11.19433806,0.031896768,0.09516364,-0.491334295,6
0.001024076,0.265214788,2.779717893,16.05182537,11.22796767,0.037620325,0.160589106,-0.833228509,6
0.000285174,0.264358251,2.799209437,15.80458365,11.26493966,0.034612698,-0.941315995,0.447628071,6
0.001339966,0.267202949,2.826872136,15.59510694,11.30852547,0.031718181,0.018266172,-0.883320917,6
0.004428079,0.268460454,2.798436834,15.52030186,11.3877909,0.070208732,0.561473698,-1.018541675,6
0.001689187,0.268013214,2.795401495,15.73255244,11.4415578,0.062008401,-0.129682356,-1.187988334,6
-0.001022866,0.268033042,2.808072104,15.76205016,11.43125005,0.04977718,0.699244416,-0.629055564,6
0.000726974,0.258266568,2.900620657,16.81046498,11.46658145,0.07066209,0.954337473,-0.241571249,6
0.000470267,0.258348524,2.880305122,16.75882582,11.50628738,0.053237149,0.427761534,0.222755524,0
0.002275144,0.267551627,2.789268877,15.70582318,11.58934577,0.122402762,0.921148475,-0.547493121,0
0.003758586,0.269222308,2.786949447,15.64668683,11.6622042,0.115422918,0.227375707,-1.313703809,0
0.001089013,0.260281514,2.904600422,16.64284477,11.63984604,0.088465561,0.816784683,-0.554972019,0
-0.001965461,0.249801689,3.081256507,18.22639781,11.63701205,0.04162165,0.789750438,0.922952217,0
-0.000856698,0.267361705,2.893934333,16.2214627,11.66856428,0.081060845,2.263949679,3.815598507,0
0.003859144,0.271824347,2.835986356,15.43405762,11.7150444,0.093425209,0.931157882,-0.36480054,0
0.000654824,0.247286434,3.294877294,19.17342256,11.69184298,0.069162284,1.478802163,1.637480948,0
-0.003375968,0.245922641,3.410595457,19.90791804,11.64976834,0.025015233,0.089188492,0.951527934,0
-0.003604856,0.25992633,3.03526841,16.97471667,11.69838971,0.134291794,2.548387805,8.217195866,0
0.004096161,0.258329077,3.0330505,16.75007473,11.91103984,0.312170846,0.943475054,-0.392417555,0
0.0075017,0.262544216,3.116329344,16.44854702,11.83466345,0.33669107,1.169769709,-0.13643707,0
0.000293368,0.262947009,3.055683494,16.27875157,11.54683903,0.065449848,-0.758755156,-0.257251903,0
0.001288435,0.256146985,3.125038332,17.10016242,11.44803254,0.068698493,0.40012557,-1.228727319,0
0.002815894,0.25731418,3.154771826,16.9695999,11.35771866,0.04856205,0.303352516,-0.636774539,0
-0.002634633,0.257408616,3.139851083,17.00298579,11.35001232,0.071522595,3.114324611,10.6513943,0
0.00044182,0.257768813,3.133632147,16.89846415,11.45274348,0.144476998,1.124914413,-0.220346143,0
0.004715868,0.25684921,3.110462349,16.74335525,11.38838572,0.176241272,0.993742695,-0.247870208,0
-4.43E-05,0.256921648,3.148586154,17.06852849,11.25577196,0.053191,0.754758593,0.177013225,0
0.001061665,0.257601102,3.105222802,16.70241465,11.24117661,0.059900438,0.909045928,0.133485198,0
0.001156082,0.25739731,3.092814645,16.60407272,11.17339178,0.06259956,0.828483388,0.191778493,0
0.001964872,0.261587976,3.146391641,16.49319984,11.06889578,0.062789431,-0.363267237,-1.064218247,0
0.001935582,0.263832882,3.062331376,16.02505976,10.97114514,0.052505268,0.676812145,-0.639680497,0
0.000516534,0.252532927,3.107810208,17.24698616,10.90463791,0.028409746,-0.223989121,-0.501244506,0
0.001053707,0.247449811,3.203293938,17.96955412,10.86593421,0.029541667,-0.165235803,0.384911744,0
-0.001894076,0.256336,3.121107815,16.8856643,10.81496517,0.0437099,0.293600209,-1.033190843,0
0.001314992,0.251524186,3.188260475,17.71719109,10.91904695,0.159488104,0.601621863,-1.052012769,0
0.00461259,0.251314183,3.166867602,17.5569055,10.91442244,0.168165036,0.41064229,-1.108995268,0
0.001016144,0.260230742,3.078737916,16.3905807,10.70802073,0.077626155,0.82276066,-0.071895271,0
-0.003699894,0.252401575,3.143259712,17.62868133,10.81137172,0.37032245,2.404018303,4.838028941,0
0.002268494,0.263627427,3.020270799,16.20621445,11.42452638,0.58402474,-0.15938575,-1.42736187,0
0.005610018,0.271120023,3.031611549,15.72907057,11.75819936,0.224827976,1.175203553,0.367100057,0
0.002834662,0.263895291,3.067091376,16.71019855,11.83563532,0.407027398,1.084566875,-0.405518761,0
0.001321472,0.266598221,2.874010164,15.76263201,12.04488095,0.375805361,0.004925284,-1.10883171,0
-0.001752842,0.259692001,2.8479941,16.69451997,11.96829894,0.184278969,0.6060688,-0.915297836,0
0.001796729,0.268740236,2.532606664,14.88589731,11.81976907,0.103691424,1.63035365,2.232864119,0
0.000617543,0.269446638,2.576409385,14.71437357,11.70205094,0.072632359,-0.040922492,-1.263271659,0
-0.001126471,0.26153665,2.849480523,16.84866634,11.55523311,0.090846495,-0.056961101,-1.504660867,0
0.000937199,0.282832127,2.363476734,14.12130536,11.51133368,0.073613023,0.34330563,-1.167804531,0
-0.000581366,0.293473992,2.126603698,12.89839726,11.56929392,0.06812863,-0.492911895,1.035670052,0
0.001457493,0.286728947,2.30297589,13.70052408,11.66268109,0.107347993,0.984200512,-0.000633594,0
0.002646718,0.269162932,2.802254111,16.16838849,11.77327472,0.123208185,0.446025165,-1.179311286,0
-0.002002056,0.260737441,3.038580371,17.30357497,11.69767042,0.15568435,0.588588328,-0.717208417,0
0.00093134,0.277863093,2.867804078,14.82716911,11.7877127,0.280850135,1.095857107,-0.001098619,0
0.004207705,0.266332465,3.214214249,16.92129357,11.70919642,0.348305847,0.677777025,-0.620144223,0
0.001833572,0.242067999,3.750800081,21.50157363,11.31802074,0.141096878,0.996796554,-0.096786081,0
0.001439791,0.235618093,3.893776843,22.57692901,11.14841292,0.072308586,-0.491065146,-0.696554701,0
0.000774556,0.229952511,4.031946985,23.97004862,11.06247193,0.066951301,-0.198177755,-1.034761323,0
0.001989408,0.241484311,3.802851779,21.55901128,11.0499461,0.085172012,0.30687295,-1.187341796,0
0.002335033,0.241854177,3.702959223,20.97977153,10.96572996,0.12552547,0.557978696,-0.871455706,0
6.86E-05,0.231157652,3.886323303,23.1393411,10.80173705,0.077115363,0.435717611,-0.817014717,0
0.000621715,0.241090137,3.708882199,21.22454457,10.70747245,0.040346108,0.056698555,-0.547499437,0
0.001518487,0.240512524,3.751523071,21.46576505,10.64345327,0.047364312,-0.340605103,-0.720103341,0
0.000943608,0.23007233,4.036753965,24.13045289,10.57970554,0.04586365,0.19180776,-0.919653758,0
6.92E-05,0.230298198,3.989851488,23.8806801,10.51349809,0.054796547,-0.03784864,-0.79313588,0
0.001110737,0.231764588,3.856994686,22.92637818,10.42025364,0.067859294,0.356889474,-0.560404661,0
0.002519479,0.243593386,3.684240602,20.60908238,10.32838941,0.044175985,0.295077348,-1.03256529,0
0.002452979,0.243694472,3.665471428,20.44473382,10.25277737,0.045309548,-0.081677313,-1.230205879,0
-0.000686508,0.232724899,3.842597618,22.63011614,10.18727297,0.035678814,-0.014287915,-0.085027601,0
-0.000113879,0.232084211,3.869546305,22.85696483,10.11724619,0.05128401,-0.077193421,-1.165679852,0
0.001237427,0.233288828,3.828057935,22.6689887,10.04052544,0.042187571,-0.007805954,-0.600249793,0
-0.00182341,0.246421713,3.472401347,19.17159797,9.999561909,0.051243017,-0.877872308,0.611830277,0
0.002497971,0.267853583,3.181047157,15.8882179,10.29347905,0.39719742,0.813675897,-0.923799454,0
0.004377241,0.264286957,3.451053939,17.74147721,10.68891792,0.27515325,-1.070585371,0.228561935,0
0.002074291,0.257762297,3.709247929,19.25123632,10.6968792,0.130715494,-0.308287566,-1.167804037,0
0.00315547,0.256001525,3.719815278,19.04837929,10.48714496,0.153002271,0.739377806,-0.501378476,0
0.000194079,0.239820065,3.94659729,21.92940086,10.32625585,0.053634807,0.088317914,-0.247941571,0
-0.00168663,0.243083488,3.94420479,21.63779722,10.23761292,0.064281087,-0.119438651,-1.362032169,0
0.001059769,0.243865473,3.887100921,21.24579798,10.13261599,0.06295539,0.260701973,-0.841272715,0
0.002701512,0.244715225,3.830063633,20.91248164,10.05380314,0.046965565,-0.593739837,-0.156342692,0
0.002207605,0.244065985,3.915728257,21.35713371,9.978292084,0.061743193,0.51550435,-0.785594446,0
0.000384561,0.233289772,4.044785642,23.22344744,9.896553639,0.038894832,0.128016857,-0.853387277,0
0.000456129,0.233169615,4.000787557,23.03860772,9.839335469,0.033274043,-0.189062136,-0.514954434,0
0.002271848,0.244138816,3.850714482,21.08450222,9.771491405,0.05202921,-0.222693373,-1.039994806,0
0.00178932,0.24491333,3.800795369,20.75382331,9.690456499,0.047568159,0.316462319,-0.46127319,0
0.000135557,0.234006716,3.932991864,22.58315116,9.623248237,0.037354158,-0.090625004,-0.150165257,0
0.00122678,0.244208971,3.808568796,20.82930098,9.552745547,0.049735144,-0.210586887,-0.832880078,0
-0.000188213,0.244965098,3.796441056,20.77157792,9.483332716,0.042014668,0.014437825,-0.876675556,0
0.000846771,0.235184064,3.929368107,22.52470574,9.400053624,0.063926144,-0.033010218,-1.005111135,0
0.001577859,0.234059268,3.999553888,22.99866218,9.304595784,0.049835919,0.195586539,-1.197833742,0
0.001979122,0.243533205,3.808298432,20.84216165,9.230805751,0.041352481,0.123307496,-0.603887626,0
0.003216679,0.245549688,3.686041321,20.05308863,9.177127784,0.042946409,-0.226576851,-0.30147653,0
-0.001260675,0.257049329,3.523702752,18.52683144,9.345252609,0.209863481,0.294006585,-1.587528987,0
0.00143248,0.264016564,3.463679502,17.64371937,9.592806026,0.123293374,-0.818871089,0.533919607,0
0.001848489,0.240516752,3.917988279,21.86183145,9.594443893,0.094063273,0.494035315,-0.860660396,0
-0.001063843,0.240057739,4.013938321,22.16614407,9.490803092,0.065102232,0.321335652,-0.640253022,0
0.000154247,0.252170762,3.689593281,19.39903748,9.636480876,0.224570897,0.536358593,-1.225818372,0
0.002434276,0.242737657,3.767165345,20.87437911,9.681981822,0.191412712,0.534953498,-0.966312847,0
0.003581242,0.242522581,3.788129848,20.91645148,9.451003211,0.10156879,0.465279799,-0.983984726,0
0.002083688,0.242373415,3.831844591,21.15139423,9.301545116,0.075401349,-0.04346964,-0.981732273,0
-0.000558387,0.233289037,4.009378535,23.24338256,9.182189996,0.06568509,0.149965288,-1.024634914,0
-0.000839212,0.234842895,3.929921655,22.7380127,9.115097809,0.056940084,0.533821464,-0.518873051,0
0.003415048,0.243885678,3.782903827,20.90234615,9.109762737,0.063393927,0.685152809,-0.678101762,0
0.001130513,0.243767981,3.76527066,20.71448404,9.061141695,0.06905689,0.609737352,-0.592147588,0
0.000710632,0.243629038,3.791753678,20.85742353,8.967300851,0.043950044,0.150554591,-1.047432209,0
0.000517737,0.243089864,3.81943902,21.18324026,8.948987688,0.04119166,0.915489021,0.055659532,0
0.001020296,0.232386779,3.938324508,22.85696707,8.903440257,0.07618901,0.329949559,-1.058124528,0
0.001368681,0.231641615,3.980964681,23.02175027,8.807726778,0.037782798,0.508979349,-0.835741132,0
0.001082297,0.232030682,3.972326392,23.15983658,8.732155228,0.051008055,-0.351530867,-1.269299902,0
0.002347903,0.242789945,3.771904494,20.82888556,8.642907715,0.053486946,0.046383539,-1.022144718,0
0.002826115,0.242982038,3.753190939,20.61593531,8.553816659,0.053219996,0.142615772,-0.93052664,0
7.78E-05,0.232094532,3.94496135,22.93666215,8.481970106,0.036459724,0.044681337,-0.671805648,0
-0.000989312,0.231210154,3.983024943,23.29375414,8.43143098,0.036615511,-0.369479039,-0.531029724,0
0.00248495,0.241586323,3.83314976,21.27723042,8.378533554,0.038876661,0.449433676,-0.702764452,0
0.002113632,0.242014622,3.803591829,21.08121748,8.312807083,0.041203503,-0.070166583,-1.108471682,0
0.002017417,0.242186876,3.742883936,20.64270549,8.249440602,0.035037974,-0.177574718,-1.053480189,0
0.000273527,0.242824401,3.782650898,20.85021043,8.181982967,0.047255629,0.117145411,-0.958469469,0
0.001570326,0.241699174,3.845668809,21.3787935,8.105158942,0.043594762,-0.097413811,-1.075732054,0
0.001738364,0.2417403,3.806236965,21.12539661,8.039282663,0.036190982,0.528731313,-0.810982608,0
0.000615522,0.233408326,3.918220404,22.63537814,8.008530045,0.011236322,0.896267222,15.85963855,0
0.001560569,0.233351475,3.987333199,23.09386583,7.982959529,0.028855511,-0.345207774,-0.857904622,0
0.000815395,0.232673768,4.032134949,23.50721301,7.94058827,0.025424687,0.315744007,0.262091454,0
-0.000810229,0.231201525,4.033242772,23.54061833,7.897544425,0.031013985,-0.033995757,-0.776627979,0
0.00035597,0.231144762,3.994056917,23.31022711,7.853946413,0.024558668,0.439015821,0.508343115,0
0.001336853,0.232741924,3.974147115,23.06004136,7.806743349,0.034294765,-0.405396633,-0.817279091,0
0.003827029,0.243463107,3.779743448,20.68258314,7.755156054,0.028648134,0.610288592,-0.46712845,0
0.004305653,0.243459561,3.749428175,20.48864177,7.718730872,0.019477269,-0.622520831,1.070926618,0
-2.23E-05,0.234085571,3.966560973,22.81646424,7.680365808,0.029898606,0.059328472,-0.786410936,0
-0.000637246,0.239359685,3.986572044,22.32081877,7.64867739,0.017687512,0.14675925,1.448307453,0
0.001752352,0.242584024,3.822916778,21.08228309,7.644688743,0.019221925,0.261818497,1.246931257,0
0.002093733,0.236932951,3.83117631,21.71159117,7.627523313,0.030831647,-0.101667174,-0.146019977,0
-0.000450799,0.23309507,4.005542389,23.11825795,7.581385476,0.034107729,0.339614135,-0.595699873,0
5.58E-06,0.242813943,3.870436406,21.42435588,7.604441725,0.109897494,1.524968556,0.686970641,0
0.001392766,0.249393517,3.799702389,20.47604659,7.695280729,0.110384805,-0.311927845,-1.165013471,0
0.001647818,0.246054373,3.853695043,21.07852391,7.689837374,0.057930842,0.533563337,-0.498221528,0
0.000590862,0.236747608,3.981768744,22.63784793,7.612024144,0.036405393,-0.174828171,0.29318137,0
-0.000761804,0.229572936,4.181697355,24.58684428,7.552110127,0.034800653,0.183355747,-0.842113461,0
0.001465491,0.230862335,4.143807519,24.15751012,7.500992911,0.026721745,0.219856988,-0.380957828,0
0.003394135,0.230433677,4.129153686,23.95214101,7.464286695,0.019754202,0.485484905,1.330861969,0
0.001805982,0.231555162,4.108872233,23.68014182,7.432686016,0.020742618,-0.086352915,1.4858508,0
0.000638201,0.232617786,4.082888999,23.52454626,7.397083609,0.023105568,0.058939762,-0.230409309,0
0.000779506,0.221046582,4.340531641,26.58638772,7.360324696,0.021642951,0.157277891,0.207657543,0
0.000577181,0.221196036,4.285833983,26.17841558,7.329466956,0.017070401,0.169445682,0.788961172,0
0.003584695,0.241689896,3.964530326,21.62316126,7.302827236,0.018248529,-0.231846815,2.063393229,0
0.002191857,0.243766107,3.871941494,21.17542548,7.268515778,0.0251959,-0.021280918,-0.049168094,0
0.000131345,0.235299082,3.97936091,22.89671898,7.228190994,0.023999258,0.201162093,0.082505219,0
0.003475832,0.233091018,4.057931021,23.27313685,7.196797453,0.016170009,0.478876019,3.815303345,0
0.000888709,0.232937569,3.995181984,22.93078278,7.17789432,0.012219908,-0.257117681,9.334792248,0
-0.00038477,0.236513852,3.964034852,22.64242216,7.158247539,0.017016719,-0.02822466,1.7634618,0
-0.000443658,0.236388987,3.927299108,22.59149999,7.132065419,0.019488499,-0.174253113,0.453123033,0
0.001047337,0.243385739,3.814393498,21.05743704,7.117418671,0.012855372,1.048499661,10.25713004,0
0.001082055,0.243153888,3.868811803,21.39438092,7.110610526,0.01071432,0.661368705,26.27765457,0
-0.00061288,0.232869312,4.115337011,23.99435673,7.093272345,0.015451851,-0.401065101,2.319934407,0
0.000882902,0.233980245,4.12568659,23.92194947,7.068296432,0.017791776,0.15612812,0.891234824,0
0.000964456,0.257857706,3.488827288,17.96755608,7.100548826,0.058791055,0.797971605,-0.720551473,0
0.00269579,0.256891047,3.591847617,18.64787985,7.242874908,0.113173039,0.122701437,-1.23035973,0
0.001119069,0.230695618,4.374891568,25.7197384,7.285545676,0.072509869,0.677680831,-0.842135146,0
0.000877271,0.238733959,4.125736853,23.17463593,7.208036532,0.030437888,0.04649587,-0.036287273,0
0.002429437,0.23868463,4.0820135,22.82899729,7.165928214,0.024202714,0.589449628,0.521568436,0
0.00026564,0.228354704,4.217839089,24.71034054,7.132250922,0.018909656,-0.269898318,2.522136346,0
0.002466692,0.239795792,4.038747891,22.39435327,7.102295303,0.021280896,-0.290161804,0.478768242,0
0.002618402,0.242513906,3.980534148,21.95986205,7.066276932,0.027213367,-0.093263874,0.657711453,0
-0.001769158,0.232042947,4.085224253,23.79889684,7.031467928,0.019956309,0.110738159,3.412454263,0
0.001053458,0.240289103,3.961203586,21.97388514,7.010828345,0.012873879,-0.63068611,25.93010526,0
0.001256202,0.24042986,3.944810986,21.97569412,6.996124758,0.012831883,-0.896224812,20.23459587,0
0.000200618,0.230368902,4.16164015,24.4799266,6.974526596,0.018820331,-0.247766565,0.822281777,0
0.003894758,0.240171063,4.031483139,22.47255215,6.946394512,0.019837848,0.207693108,0.591233479,0
0.001617521,0.23966736,4.067899104,22.68371182,6.921564266,0.015891962,0.467648316,3.257390534,0
0.000361019,0.238817891,4.095621982,22.90160607,6.901569148,0.01586649,-0.269347675,6.02520523,0
0.002438527,0.238709757,4.053154859,22.6053826,6.887142072,0.015361112,0.240359035,5.36736758,0
0.001427843,0.240255763,3.959747919,22.17504581,6.883057186,0.014987955,0.951914002,5.189407391,0
0.001509606,0.254919294,3.471273344,18.74986784,6.971642957,0.10233111,0.766422484,-0.458502978,0
0.002615498,0.268221701,3.087223229,15.92804993,7.153945923,0.108883872,-0.417757219,-1.434667782,0
-0.002034557,0.268785823,3.300843499,16.68936243,7.200937707,0.055292743,-0.197175098,-1.230923973,0
-0.000368572,0.257848669,3.607482229,18.97064535,7.130772563,0.034585217,1.025602704,0.399844311,0
0.001277226,0.241554481,3.726217969,21.23149363,7.123926435,0.038669205,2.284484044,4.860042539,0
-0.00024922,0.23825977,3.704369081,21.70639291,7.214574705,0.083265461,-0.218232156,-1.717087913,0
0.004416615,0.255915748,3.512231433,18.88830264,7.378946304,0.113221787,0.600978294,-1.206751004,0
0.001818532,0.255298872,3.435577071,18.65062208,7.43835798,0.076537779,0.172831014,-0.009317902,0
0.001722715,0.246628219,3.375597237,18.90030524,7.40914481,0.032810229,0.917915252,0.185276218,0
0.001682563,0.246665563,3.417769407,18.81320355,7.375357928,0.046979087,0.695633054,0.046958802,0
-0.001178277,0.249502095,3.478714379,19.08286366,7.296639415,0.052381633,-0.251479232,-1.131446591,0
0.001210805,0.240481702,3.64523135,20.84626437,7.212098857,0.047837956,0.476508588,-1.062078118,0
0.0015946,0.239464763,3.559505716,20.47535695,7.149663653,0.029153666,-0.240995838,-0.188312984,0
0.000723044,0.239895586,3.481819142,20.06904144,7.106450054,0.030059203,0.036108191,-0.678077228,0
-0.000383135,0.240263859,3.523285195,20.29888335,7.051307951,0.038924861,0.1492896,-1.055529482,0
0.002037107,0.249767199,3.442834962,18.9355826,6.991785812,0.029574235,0.139651436,-0.853019199,0
0.002845577,0.239359411,3.556614247,20.37886065,6.958016586,0.014716016,0.21667723,1.796511613,0
-0.000128023,0.238292146,3.484217246,19.92700379,6.956533269,0.022518617,-0.064019589,7.452771468,0
-0.002296345,0.239588598,3.57176195,20.43903947,7.027506965,0.147399888,2.06043813,3.151111818,0
0.001609294,0.25902114,3.242780228,17.40874342,7.407804326,0.345200753,-0.269416767,-1.677027729,0
0.004556638,0.273398917,2.993481646,15.1955066,7.669117137,0.074275037,0.446793871,-0.82525767,0
4.31E-05,0.249851145,3.460991235,19.45845717,7.59658868,0.03121898,0.300650178,-1.308543285,0
0.001776012,0.247700188,3.529995865,20.10766747,7.53918893,0.043133217,0.150576433,-1.290899912,0
0.001399547,0.249165136,3.417213914,19.5100218,7.49979526,0.021569444,0.638050802,1.833877696,0
0.000596943,0.260386066,3.191374144,17.28340741,7.595154136,0.100607321,0.100696286,-1.647314245,0
0.000424373,0.276707,2.910583936,14.92712348,7.686796733,0.029099074,-0.104366712,0.854375552,0
9.27E-05,0.264864532,3.034957341,16.64806957,7.636987904,0.054232329,-0.394695874,-1.389511919,0
-0.000724908,0.271703399,3.070083679,16.05257847,7.580312674,0.030488137,1.267682342,0.944521889,0
-0.002287393,0.287057304,2.700960257,13.51638489,7.733540235,0.265752205,1.719622108,1.965347074,0
0.004827347,0.279165235,2.767652111,14.08053276,7.964038576,0.230824686,0.288125142,0.011338761,0
0.003765871,0.266178931,3.328556652,16.98084192,7.93347108,0.123236455,0.926320159,0.068013674,0
0.000365492,0.25131129,3.749654427,20.30425193,7.783419963,0.063039747,0.013930999,-0.999422249,0
-0.004021277,0.247511524,3.778286414,20.68659059,7.845429775,0.221421724,1.708213976,1.568494003,4
0.000568157,0.253106173,3.603209025,19.0453629,8.080599431,0.239475251,-0.201212723,-1.096371442,4
0.005820262,0.2394692,3.964600109,22.20938184,8.118249839,0.12378731,1.225588785,0.633775279,4
0.000193359,0.237045415,4.101577288,23.38450323,7.988795199,0.056962254,0.692622799,-0.579272479,4
0.001482762,0.238997843,4.030884091,22.7484915,7.906084442,0.041227618,-0.074955556,-1.185095375,4
0.002685621,0.237949564,4.070932279,22.95260591,7.857355445,0.026910425,0.228326133,1.125244116,4
0.001234144,0.238804651,3.982853326,22.38900548,7.811321204,0.039102776,0.489488122,-0.688388654,4
0.000864088,0.23055707,4.103697758,24.13590946,7.766455405,0.024153252,-0.281044593,0.920500431,4
0.001725187,0.231535434,4.086893847,24.09392773,7.730916541,0.034630642,0.33073202,-0.370575795,4
0.00359903,0.240919264,3.971944213,22.20646517,7.687874494,0.030409402,-0.054518101,-0.006267727,4
0.00253212,0.240180485,3.931102063,22.10040089,7.641023854,0.035739965,0.409556775,-0.361229364,4
-0.002601445,0.230405708,3.937496503,23.51823706,7.602942439,0.017697956,1.189865814,2.833013385,4
0.000605543,0.239258958,3.921165225,22.29974382,7.580248805,0.018788984,-0.603161317,2.490071489,4
0.00518163,0.248884022,3.813601284,20.5695438,7.532600021,0.038278332,0.087747807,-1.414362761,4
0.001959464,0.240198916,3.908553878,22.02918191,7.477113506,0.030252427,-0.632052847,-0.289906331,4
-0.002678702,0.22923524,4.091666934,24.53861833,7.435933467,0.031367917,0.494698912,-0.088473936,4
0.000921969,0.238902397,3.922622392,22.40155698,7.428714589,0.025810559,0.016988651,0.426748872,4
0.002100337,0.239413863,3.977802356,22.56908302,7.411847796,0.04036694,-0.093496878,-0.533429939,4
0.000419638,0.23765578,4.06484701,23.16236871,7.352012798,0.039253465,0.136137647,0.169106339,4
0.001741104,0.238578387,4.010289442,22.7844547,7.302868489,0.028644345,0.293244157,-0.245920262,4
0.000916234,0.229719735,4.143335267,24.48120957,7.255862263,0.030853847,0.165789261,-1.059707342,4
0.000461936,0.228017996,4.156741046,24.79421356,7.213240269,0.022418773,-0.573583348,0.174335298,4
0.000427179,0.228710068,4.163032419,24.88942413,7.180206244,0.023683604,0.558012016,-0.262300857,4
0.002244572,0.240235509,3.959538021,22.26890064,7.138274057,0.027674596,-0.19824546,-1.183517657,4
0.003089022,0.237615933,4.003924825,22.68970836,7.10333895,0.018508653,0.617374372,3.666333612,4
-0.000419266,0.227124457,4.29120225,25.56897829,7.076357378,0.020184778,0.298810878,0.853921064,4
0.000475061,0.23911261,4.084309926,23.05936638,7.040123967,0.022332412,0.066009274,-0.574918999,4
0.002966426,0.240009427,4.020467581,22.65002212,7.007732446,0.015350571,0.192848896,1.850664072,4
0.001394067,0.241303759,3.886051123,21.67404847,7.005532728,0.015310017,0.5211364,3.134035865,4
0.001646752,0.246159271,3.826263782,20.83295849,7.0073749,0.019941056,-0.502698835,1.246761885,4
-0.000266739,0.239219986,3.971697616,22.69805697,6.97855399,0.026329916,0.618997189,-0.304761208,4
-0.000542293,0.242615162,3.830712336,21.60592908,6.936355645,0.026698906,-0.463983915,0.55156136,4
0.001234804,0.236442324,4.016875851,22.96446489,6.900458472,0.021551724,0.736381927,3.095674942,4
0.001886496,0.236970074,4.114963021,23.32595192,6.872406987,0.019910614,-0.268207117,1.115555088,4
0.000935839,0.238317395,4.057411223,23.01257645,6.84364466,0.021299273,0.267590061,0.846514689,4
0.00067322,0.238423571,4.012733764,22.77665987,6.823099191,0.0133151,0.345221819,7.219140652,4
0.002060846,0.240254993,3.917808003,22.05364616,6.80242266,0.018315948,-0.006477928,1.677690048,4
0.000111138,0.229792397,4.169382358,24.69342707,6.781644167,0.011858019,0.250507254,14.75667042,4
0.001789496,0.238104673,4.066276604,22.90907018,6.765539224,0.013726194,0.408941708,2.149042692,4
0.002834473,0.239370189,3.918912724,21.93573748,6.743396487,0.015063734,-0.030061206,3.557280854,4
0.001820703,0.22914702,4.171066332,24.51947177,6.729133279,0.010673745,-2.526876604,93.55247775,4
0.00064767,0.228462863,4.217560321,25.03364035,6.713125338,0.019480156,-0.847187141,6.468485281,4
-0.000616006,0.230768231,4.105971617,24.18923722,6.691824232,0.015519867,1.021234312,4.14237783,4
0.000697527,0.229102727,4.195335536,24.82093163,6.677178138,0.013397842,-0.276989843,7.058827916,4
0.002377023,0.238905231,4.03644074,22.7306351,6.655615779,0.018516951,0.338126679,0.256070477,4
0.003514265,0.239441992,3.99487281,22.45375516,6.634068353,0.013213931,-0.115085012,5.459907178,4
-0.000511636,0.228563313,4.195189632,25.01850905,6.618094853,0.015296354,0.539694266,3.865159482,4
-9.45E-05,0.2301002,4.117816943,24.24964333,6.596384266,0.015843853,0.191661365,2.130360831,4
0.002824225,0.230170884,4.095792122,24.06035562,6.5754782,0.013914158,-0.598227615,4.26662182,4
0.001621732,0.231139134,4.109181377,24.07682566,6.558592715,0.015281443,0.17558052,3.342228834,4
0.000187919,0.230828404,4.158977991,24.45284111,6.537718691,0.018289839,-0.307080079,2.06130717,4
-0.000971218,0.230165842,4.153875329,24.54238856,6.50991854,0.020322066,0.330439813,0.306845745,4
0.002028789,0.240971966,3.92880531,21.86749854,6.479616874,0.018155548,0.217501942,1.626308993,4
0.002626988,0.239815399,3.943551223,22.15515443,6.457520948,0.014311724,0.538665371,9.449694423,4
0.002083963,0.236630761,4.086120026,23.31037946,6.441725758,0.015993751,0.38252424,6.259288375,4
0.001344609,0.238241579,4.031430448,22.81003986,6.420496423,0.017128388,0.196370897,3.183623998,4
-0.000734299,0.23084046,4.06241582,23.91587364,6.395416532,0.015424403,0.066108916,4.09314324,4
0.00029975,0.228911418,4.167653451,24.6541622,6.374343436,0.013404531,-0.502808802,13.8859382,4
0.005746268,0.237419736,4.083443653,23.01120734,6.351307351,0.019752205,-0.597643401,2.01196808,4
0.001713723,0.239735258,3.987234193,22.45721754,6.330364391,0.014862061,0.312770554,2.51953104,4
-0.002567518,0.233898087,3.979405597,23.25760315,6.311692756,0.015607409,0.331954583,2.399843675,4
0.002042999,0.231275324,4.079111836,23.98549247,6.295770972,0.012012648,0.173919254,13.36522692,4
0.001255744,0.237556452,4.06796011,23.1545683,6.288573183,0.011920997,0.509160199,13.36048079,4
0.001294124,0.24047993,3.953333404,22.07833299,6.272616686,0.015710373,0.17690144,3.473212952,4
0.001107618,0.229629381,4.204742274,24.75159459,6.256063461,0.011922498,-0.312889585,10.55068517,4
0.000911218,0.227874381,4.341970867,25.74417391,6.244193758,0.013886556,0.725593037,7.851878674,4
0.002231598,0.229672455,4.21291089,24.80952017,6.230518777,0.012565375,-0.006929911,14.68365488,4
0.001762822,0.228498558,4.25964725,25.29110505,6.229262652,0.013782007,0.435274806,11.71578521,4
0.001136012,0.229717344,4.262046532,25.05791461,6.225161852,0.014152091,0.817805347,8.170405347,4
0.000288561,0.229186665,4.271159726,25.20834334,6.217180143,0.009443211,1.001517661,36.64990886,4
0.000499688,0.228726824,4.240358271,25.17118234,6.215137918,0.009503565,1.645555459,37.54090481,4
0.001417446,0.230976366,4.195367392,24.62377179,6.203159877,0.01287598,0.469230488,8.693836664,4
0.000738491,0.229864099,4.213800662,24.9446801,6.187358911,0.012079905,-0.013341826,8.744512638,4
0.000613894,0.228796609,4.175430673,24.95203951,6.175856073,0.011590696,0.493076832,8.811162436,4
0.001021853,0.239107228,3.983882301,22.64755925,6.163459069,0.01559304,0.058665948,5.220838246,4
0.000283709,0.238503559,4.065821461,23.12111389,6.15133013,0.01496767,0.840646198,10.94590652,4
0.002651001,0.239039966,4.069080738,22.93831491,6.135043553,0.015105996,0.118936315,3.086996848,4
0.00164789,0.237949584,4.081763289,23.14138639,6.125980377,0.009956454,0.845887641,23.72091108,4
-0.000403715,0.22854476,4.211004062,25.12993804,6.11710107,0.014788201,0.315433973,3.46714411,4
0.001834239,0.229774164,4.226062796,24.91083578,6.112010574,0.010786946,0.592202644,17.13282517,0
0.000971715,0.228299068,4.286243901,25.49941944,6.111453629,0.011922867,-0.05323452,10.63091864,0
-0.002866993,0.239670198,3.940492522,22.57303895,6.138896615,0.080262071,2.385651765,4.293523802,0
0.000228705,0.26347124,3.471717077,18.27896206,6.468397195,0.317749446,0.079782395,-1.689661758,0
0.005171932,0.267375142,3.321323713,17.32425564,6.766487612,0.104294472,-0.935928395,1.575538218,0
0.001586903,0.252291456,3.417095572,19.09260208,6.727684784,0.064673857,1.308975466,0.698738037,0
0.003180006,0.249277338,3.532590222,19.8622647,6.79080222,0.133056228,0.742827736,-1.066750473,0
0.002825154,0.238640298,3.841315271,22.13760635,6.861629595,0.08979885,0.479716242,-0.313587263,0
-0.001812718,0.223858306,4.057996974,25.02804203,6.786021859,0.047262357,0.088412135,-1.344720258,0
-0.005370915,0.235713673,3.813584711,22.46806998,6.75072937,0.058405882,3.040257614,9.702073545,0
0.001805361,0.246239127,3.575441347,20.02801761,6.87295663,0.137203868,0.123720403,-1.42470659,0
0.006587527,0.245352363,3.595633947,20.08641608,6.923894065,0.08180783,0.888709241,-0.224981084,0
0.000142979,0.236346029,3.759234415,21.83962146,6.846881104,0.022687322,0.577357352,0.927181989,0
0.002591989,0.23524075,3.725786827,21.65086165,6.816305052,0.025636043,-0.336878471,0.167269403,0
0.001619869,0.234343786,3.701127521,21.60522377,6.771301651,0.031201714,0.301474542,-1.213857803,0
-0.000612449,0.235893549,3.700290015,21.58622301,6.740439333,0.01918199,-0.778662193,7.524482687,0
0.003028623,0.245876264,3.536785981,19.71598494,6.746188681,0.042446914,0.930656087,0.217652192,0
0.001236583,0.244285029,3.540364935,19.8389124,6.770413971,0.046321581,0.240072728,-0.764343574,0
-0.000626934,0.248033085,3.514216826,19.55553832,6.907470594,0.133320283,0.256264776,-1.503251173,0
0.000453232,0.242964875,3.596534321,20.68898969,7.035599136,0.052939978,-0.190932072,-0.390997969,0
0.003831992,0.240884446,3.615834545,20.85982814,7.057796805,0.051007089,0.360678014,-1.049962707,0
0.001547915,0.236252927,3.649720923,21.30254981,7.043561772,0.054046457,0.756357594,-0.687642285,0
-0.002567976,0.224225226,3.836130532,23.68459597,7.006498173,0.020554553,0.491111048,1.277417978,0
0.003148453,0.236009633,3.669397336,21.50371535,6.971783556,0.037695413,-0.398919653,-1.136164115,0
0.002436454,0.23546279,3.687457151,21.61276958,6.9515025,0.026507943,0.137181492,-0.538357592,0
-0.011002592,0.239795133,3.501368725,20.34611648,7.092954036,0.30096561,2.449237404,4.814066455,0
0.004948059,0.262166382,3.158564563,16.58993327,7.646352659,0.502889739,-0.389606871,-1.67618293,0
0.01176193,0.261745434,3.225919732,17.11924889,7.994047219,0.094510297,1.009867428,0.03097443,0
-0.001282445,0.254157519,3.341684764,18.62860184,7.896530478,0.037113389,0.12072187,-1.11290604,0
-0.0012357,0.255525394,3.360626585,18.74281639,7.91983272,0.075007597,0.931125568,-0.484342982,0
0.00044182,0.258205493,3.21831272,17.84639936,8.116124889,0.18308313,0.472073912,-0.879950259,0
0.003692766,0.259578508,3.010239415,16.90495688,8.340955189,0.138255922,-0.218665665,-1.025314118,0
-0.003497118,0.257418253,3.103313274,17.86657588,8.443075398,0.093608742,-0.260406813,-1.052525566,0
0.000183844,0.244709707,3.454489669,20.53174279,8.47721296,0.070003174,-0.634308465,0.753798339,0
0.00390256,0.241874201,3.6358214,21.49575202,8.448954718,0.053610059,1.132393851,0.721725356,0
0.001257326,0.243152013,3.558277345,21.09885868,8.484131459,0.088986862,0.656031887,-1.007808553,0
0.000404781,0.235910917,3.624667811,22.03872317,8.529046031,0.063994656,0.473473385,-0.831664859,0
0.000947558,0.235707588,3.641925584,22.19712383,8.506033598,0.037880602,0.754733207,0.270464635,0
0.004513125,0.245334223,3.556867398,20.6402613,8.520267759,0.042978102,0.300040922,-0.886158228,0
0.003059758,0.248838727,3.411471367,19.78067153,8.672200557,0.198011851,0.735743733,-1.111132096,0
0.00032048,0.238207408,3.454348519,21.11068637,8.782723509,0.140273355,0.085957251,-0.652755425,0
0.000755186,0.235334861,3.618121511,22.06142927,8.757020296,0.042703041,0.82315835,-0.555522116,0
0.00030009,0.238286372,3.589399693,22.0118682,8.757910647,0.0666677,0.230349547,-1.038770055,0
0.001960366,0.246639246,3.504700824,20.44613253,8.878521892,0.190261102,0.745470661,-0.610176109,0
0.000800616,0.249755871,3.501744953,19.48531292,8.890439442,0.175812889,0.998523694,-0.371518623,0
-0.001534254,0.246896668,3.682936449,20.52533364,8.728306634,0.060977396,0.470699118,-0.659206681,0
0.002311059,0.249889357,3.702316028,20.46753398,8.713770785,0.049214719,0.198882778,-1.213082753,0
0.00213055,0.238434646,3.873344256,22.6529919,8.717087827,0.048165802,0.102645065,-1.151788151,0
-0.00018816,0.23867111,3.842847481,22.6783227,8.675324958,0.041452189,0.386038608,-0.618504473,0
