mean_ecg,std_ecg,skew_ecg,kurt_ecg,mean_eda,std_eda,skew_eda,kurt_eda,Label
-0.000690615,0.328490693,2.812427705,10.43434678,10.39899608,0.30452533,-0.73007256,-0.504168805,0
0.002125894,0.320856159,2.970630822,11.18218786,10.36778772,0.132305101,0.273360341,0.073669637,0
0.001763809,0.331569735,2.904531727,10.48663653,10.2133031,0.095678742,0.398300142,-1.088054384,0
-0.000285631,0.331672064,2.999251632,10.98536324,10.06647699,0.089167594,0.226771908,-1.550564981,0
0.001653285,0.322248975,3.106290837,11.93374594,10.08227708,0.115037292,0.49273388,-1.378046862,0
-0.002934442,0.327010409,2.99095504,11.28571921,10.21130687,0.099042965,0.779374318,1.720400561,0
-0.012139239,0.344289902,2.899484043,10.41377659,10.58707891,0.398172072,0.496996727,-1.106503566,0
0.003700503,0.341337114,2.886161962,10.11324292,11.07173963,0.283010125,-0.207820526,-0.813890155,0
0.012322717,0.325704729,2.929036935,10.49298377,10.9489521,0.313355359,0.541094057,-1.20396398,0
-0.002555355,0.330742498,2.813960768,10.17973794,10.6597799,0.157054388,0.1128414,-1.053503922,0
-0.003299188,0.331448968,2.956366242,10.69233539,10.75834176,0.214925653,-0.217883392,-1.202087178,0
-0.001002104,0.329790337,3.134082414,11.34775998,10.92629967,0.112780376,-0.735350913,-0.502035995,0
0.002182244,0.317723466,3.253121721,12.51822925,10.93533767,0.052868197,-0.013221386,-0.636608351,0
0.001077765,0.315568868,3.319958248,12.9098781,10.85818863,0.053699748,0.4352275,-0.970788836,0
-0.007180762,0.329306724,3.168437217,11.82504168,10.8753964,0.172203161,1.45308262,0.660481018,0
0.001696721,0.315289867,3.240386434,12.68637714,11.12220464,0.270917603,-0.263206964,-1.287915382,0
0.006293557,0.30127985,3.47271069,14.26706224,11.13544502,0.219489507,0.30267259,-1.107217878,0
-0.000952403,0.301073307,3.515784124,14.41613731,10.88610453,0.116785459,0.45341785,-0.226291645,0
0.003058528,0.29045675,3.659200507,15.47575601,10.73024461,0.097712372,0.52083855,-0.930717876,0
0.001479355,0.287858873,3.716740424,16.1670212,10.63653881,0.031044788,0.420921336,-0.47884487,0
-0.001601826,0.317187765,3.166199485,12.3351547,10.90947445,0.3588972,0.723848854,-1.143628524,0
-0.021129992,0.327725356,2.937953645,11.03677166,10.97383826,0.319498611,0.650971298,-1.044320746,0
-0.003032063,0.31903296,3.133165328,12.03019124,10.87403739,0.289591916,1.006336039,-0.146672733,0
0.017093759,0.310724878,3.441346818,13.39046049,10.67972009,0.417831263,0.727522289,-0.719096468,0
0.001340908,0.29791032,3.591688603,15.05982367,10.28635374,0.135701411,1.671190215,2.014893213,0
-0.001253802,0.290020059,3.637385245,15.73191626,10.14642972,0.081106586,-0.267761152,-0.97027473,0
-0.012997395,0.298139745,3.616521585,15.33949711,10.16231373,0.199241347,1.529978124,1.478862412,0
-0.00162852,0.30756878,3.502516322,14.26147588,10.32236225,0.251931158,0.301576949,-1.097401395,0
0.011829902,0.300547994,3.511557347,14.19615841,10.16652723,0.313108956,0.20167928,-0.569649646,0
0.002735144,0.289386006,3.662674093,15.61732694,9.878941672,0.159474196,0.106893441,-0.852454739,0
-0.003725483,0.292524297,3.684406154,15.77751623,9.811169052,0.111115325,-0.045493261,-0.846396387,0
-0.014843393,0.315260975,3.345622571,13.4117609,9.906176758,0.173814569,0.758784462,1.433842572,0
0.002889143,0.317185465,3.224445816,12.760942,10.15527622,0.318699998,0.939338474,-0.588121159,0
0.010236956,0.299336352,3.407611238,14.18679011,10.20534069,0.294843346,0.79946921,-0.608744232,0
-0.000622461,0.292490614,3.444199235,14.3633082,9.966655731,0.222566962,-0.036504343,-1.317379299,0
0.006176389,0.297084978,3.539846663,14.22555836,9.714845657,0.178340763,1.399364516,1.752240316,0
-0.001208483,0.290293226,3.688381982,15.69101144,9.540941947,0.14044117,-0.547816913,-0.787546367,0
-0.013844873,0.299121703,3.591438735,15.16132271,9.563986206,0.179408072,0.523214447,0.759891114,0
0.000565181,0.312577347,3.400119761,13.55110907,9.937351554,0.304736318,-0.148514898,-1.605966042,0
0.007931625,0.314371626,3.175593849,12.47418573,10.16438451,0.128930275,-0.155393115,-1.351237659,0
-0.00119698,0.310404947,3.248432341,12.78642251,9.848902348,0.298458435,0.104810007,-1.359751237,0
-0.002437251,0.303150688,3.535462269,14.26741276,9.52735454,0.132135969,0.824014686,0.238640993,0
-0.000640895,0.30577783,3.537983524,14.3110511,9.551278033,0.127009783,0.034711009,-1.104260663,0
0.000744925,0.29724424,3.681019625,15.67817342,9.694908742,0.213006842,0.940238459,0.509146821,0
-0.001201322,0.319432745,3.360480926,13.23568998,10.12166933,0.430155773,-0.28674533,-1.2624117,0
-0.00537132,0.342889968,3.036854357,10.79748521,10.10960693,0.405362257,0.109708705,-1.592889802,0
0.00046877,0.319585379,3.238073419,12.39402468,9.584401757,0.33518129,-1.578590418,1.366733536,0
0.005666153,0.306631273,3.293955318,13.14934627,9.16561955,0.433131306,0.128713235,-1.345334804,0
-0.001435756,0.310775638,3.282388657,13.06849716,8.616454915,0.345782614,0.523806714,-1.126907473,0
-0.000792232,0.290077265,3.627837139,15.452851,8.237708228,0.166603189,0.073267674,-0.782349245,0
-0.005661124,0.291847522,3.610881595,15.38632568,8.093103627,0.144836822,0.682018385,0.650624197,0
-0.005261765,0.318696778,3.296929016,12.85707445,8.318383626,0.302639126,0.077318415,-1.37485837,0
-0.002474527,0.328412374,3.185781437,11.79514808,8.439082227,0.289060909,-0.468620778,-1.02812953,0
0.004287931,0.304434904,3.478298721,14.09774444,8.067084231,0.332226546,0.886740138,0.009540907,0
0.004888962,0.288659854,3.767787623,16.25298631,7.626402228,0.261123822,0.086417101,-1.100894458,0
-0.001319641,0.305848998,3.509805388,14.1133228,7.324110631,0.181654028,-0.370257912,-0.813221946,0
0.000188998,0.291497033,3.593018749,15.25964954,7.223161425,0.173748898,0.482407108,-0.619685248,0
0.000927168,0.2862155,3.767314725,16.2929327,7.201337542,0.127760886,0.904771203,0.834558958,0
0.002361452,0.288142384,3.775315452,16.28211868,7.198235158,0.103190375,0.070450453,-0.975152352,0
-0.004341777,0.293502065,3.600704383,15.35963604,7.393773488,0.23746764,0.254801924,-0.995648705,0
-0.00138004,0.32232448,3.237225552,12.20776536,7.708828136,0.162258843,-0.993224944,-0.35998583,0
0.000142842,0.34838498,2.712576043,9.308239,7.893938937,0.121396165,1.392407466,0.316139208,0
0.000199454,0.338303292,2.754796925,9.980924218,7.912486812,0.131914301,0.379274104,-0.274060761,0
0.004253311,0.308926999,3.225686886,12.65608127,7.694188363,0.19198198,0.085200925,-1.379509383,0
-0.001359303,0.28755179,3.492111059,14.6329484,7.408641652,0.129821941,0.170765303,-1.357278983,0
-0.000290392,0.280614364,3.750198902,16.11776507,7.340249634,0.066856603,0.040310233,0.141550677,0
0.000310992,0.286745381,3.71679758,15.97286606,7.480416216,0.112655568,0.254904364,-1.215207902,0
-0.002791979,0.289733506,3.69610278,15.85469361,7.632798713,0.084716955,-0.493226093,-0.838319765,0
0.002809891,0.300595549,3.511865923,14.1343893,7.758878708,0.091407032,0.063406239,-1.029457186,0
0.002967061,0.287716819,3.647845122,15.52157145,7.873179408,0.075556498,-0.796295108,0.750189463,0
-0.000834451,0.284146085,3.694060502,15.75857327,7.929714475,0.054661211,0.101097131,-1.058632042,0
0.000393794,0.284131474,3.697537823,15.7406026,8.03678578,0.115520917,0.04334214,-0.994310799,0
-0.020976916,0.295657203,3.456979851,14.82986291,8.22703574,0.153132176,1.540078463,2.754002344,0
-0.002113822,0.324616092,3.228965369,12.37605545,8.711357444,0.41898722,-0.01320556,-1.658839665,0
0.019729327,0.312347012,3.388876479,12.98984809,8.720505088,0.414332686,-0.071473164,-1.575720422,0
-0.004973589,0.28448927,3.645008417,15.61295116,8.234325463,0.165515915,1.489287133,1.553877346,0
-0.007666639,0.289944494,3.697231854,15.93385836,8.165129852,0.062102627,0.190217578,-0.568959498,0
0.004116623,0.320209666,3.30086039,12.5206003,8.376098251,0.218501637,0.559846999,-1.065420256,0
0.007444578,0.340985026,2.304546022,7.750904742,8.619013596,0.145368957,-1.152294843,0.643413253,0
-0.004952584,0.328155307,2.447452327,8.846518568,8.474635805,0.244142661,-0.366484199,-1.508678752,0
-0.00246133,0.300975724,3.585557911,14.81312211,8.226312365,0.146309465,0.939492329,0.079413827,0
0.005734504,0.297983496,3.589903064,14.80819906,8.13854817,0.104770448,1.142079934,0.028612284,0
0.001730942,0.298331433,3.660381464,15.21990814,8.093898664,0.050858114,1.015751913,-0.393433231,0
0.00095256,0.297809201,3.608906689,14.91149316,8.138613783,0.07355361,0.535795142,-0.944456891,0
-3.20E-05,0.287557346,3.73587201,16.26373324,8.133577674,0.06924025,0.980133191,-0.380291777,0
-0.00159201,0.286040707,3.808724432,16.62552057,8.112353679,0.025513514,0.282322683,-1.087206635,0
-0.003365688,0.305506156,3.549181459,14.45137502,8.229106195,0.150382124,1.733175518,1.772865074,0
0.002780914,0.308602795,3.450094407,13.96011553,8.405689457,0.147502816,-0.271734298,-1.202850352,0
0.004058363,0.288440478,3.657700847,15.7725241,8.437268339,0.078345544,0.13688606,-0.769027232,0
-0.013237688,0.297936553,3.488182872,14.83797952,8.424143818,0.089906639,0.251352985,-1.191606074,0
-0.001060377,0.340139587,3.0131926,10.64639577,8.512970734,0.103359811,-0.194257318,-0.130693986,0
0.010498973,0.33088485,3.098938811,11.09027944,8.485336522,0.1023725,0.754036543,-0.442164267,0
-0.000310226,0.287589588,3.604594388,15.45353057,8.362412643,0.053080211,0.481874797,-1.018332181,0
0.001136594,0.269928121,3.857482504,17.64213208,8.336500331,0.029137666,0.509277375,-0.539549248,0
0.000979379,0.282844012,3.757261711,16.26340336,8.402956608,0.055825893,0.073095183,-1.26592613,0
0.002631422,0.285522447,3.743671018,16.09997589,8.490867887,0.048374611,-0.101241932,-0.968057673,0
0.000881156,0.285043554,3.763505803,16.189244,8.579780361,0.057496961,0.122662692,-1.134632479,0
-0.003171374,0.297298797,3.645859024,14.92973633,8.675863375,0.056562704,0.060821402,-0.891851124,0
-0.002488789,0.300039841,3.599019246,14.78012575,8.792698615,0.083071403,0.343395672,-1.179315353,0
-0.006864356,0.316215499,3.402001688,13.3112267,8.977222988,0.159065582,1.378297605,1.881207072,0
0.003671088,0.312386318,3.335867937,13.07232508,9.259722028,0.205025159,-0.179270896,-1.581581911,0
0.007354065,0.309142292,3.225436759,12.73719497,9.586474936,0.272034353,0.806624666,-0.979221262,0
-0.002217499,0.307130367,3.281629364,13.03725693,9.663171005,0.244881859,0.390674591,-1.167463507,0
0.002419516,0.288398802,3.603580343,15.11381729,9.493103518,0.12417817,1.240357054,0.381199885,0
0.002435545,0.291342764,3.623642548,15.24541584,9.387798037,0.024841797,0.655569326,-0.150536986,0
-0.005724452,0.318114986,3.228300964,12.48846421,9.545822634,0.268156116,1.051062036,-0.725371311,0
-0.004688213,0.332078646,3.07226326,11.1375329,9.808194733,0.231857165,-0.840898878,-0.579651219,0
-0.004811809,0.321681707,3.226390597,12.01592272,9.811087799,0.125033805,0.440210347,-0.493847207,0
0.001108076,0.31729312,3.272521753,12.30441463,9.762338638,0.095220957,0.544186628,-0.659109942,0
0.012787563,0.316184491,3.311687229,12.44012557,9.679761015,0.139144057,0.518406306,-0.886320846,0
-0.003789466,0.316699381,3.24647115,12.56934518,9.573224967,0.095928581,1.247131207,0.383467539,0
-0.004028667,0.314671632,3.256579857,12.62556802,9.601852798,0.101713844,0.548508936,-0.876932689,0
0.006214809,0.310892388,3.320504167,12.81911485,9.607418551,0.061468793,0.388832462,-0.42833467,0
0.004213989,0.317285737,3.147499297,12.01244081,9.629852513,0.105316151,0.550359782,-0.808164871,0
-0.002450448,0.324121569,3.002945559,11.00624417,9.701114546,0.131497446,0.083045086,-1.066645467,0
-0.004367902,0.30670544,3.282214336,12.8801571,9.593658556,0.171160658,0.648207795,-0.831440573,0
-0.000103978,0.289515662,3.622080292,15.22769149,9.365184293,0.093552306,0.075735295,-1.415011994,0
-0.008874344,0.298215232,3.483549826,14.36570535,9.253262874,0.04478187,1.25066434,1.977850175,0
0.004168291,0.335483306,3.093883495,11.08089112,9.253379222,0.069270661,0.278163044,-1.051053029,0
0.008291225,0.346168656,2.970711573,9.995242349,9.287066105,0.062003467,-1.076765373,0.534536634,0
-0.004596451,0.316752654,3.2834246,12.45595447,9.285541262,0.017448983,0.094792941,1.557366056,0
0.00108299,0.300447226,3.446199372,13.9027862,9.28855411,0.022566043,0.754275908,-0.110490309,0
0.002614151,0.288706093,3.54178912,15.04402106,9.315638842,0.02472808,-0.616317991,-0.282175683,0
0.000561892,0.290980386,3.53160674,14.95784899,9.333645085,0.009506373,-1.298380976,45.14546847,0
0.005221776,0.300658442,3.456613769,13.88903093,9.328879002,0.010358154,0.568232643,1.770910517,0
-0.000289287,0.30433848,3.405255207,13.55881768,9.37815361,0.069786433,0.642954489,-1.308794096,0
-0.010309322,0.310190256,3.357117328,13.42691841,9.477190345,0.068590856,-0.738467952,-0.18995227,0
0.001215676,0.307196767,3.396471711,13.78200976,9.570073264,0.069999586,-0.096945755,-0.896845123,0
0.006152488,0.31120073,3.380304361,13.13205559,9.603971972,0.049691297,-0.492739984,-0.528706727,1
0.001747709,0.305228531,3.52543713,13.99403826,9.587260274,0.026666215,-0.126291423,-0.042101003,1
0.002888587,0.293012385,3.702031546,15.54621158,9.56152371,0.026380469,0.085118829,-1.396490948,1
0.000664882,0.281829717,3.81637747,16.81094881,9.52282693,0.021639541,-0.502746927,-0.509186484,1
0.003787425,0.278990737,3.800775914,16.86806718,9.487929044,0.025667993,0.5032904,-0.457283581,1
0.001773206,0.285016122,3.666732138,15.89570034,9.459408569,0.014476928,0.005103834,0.15546197,1
0.001356511,0.289499868,3.639783293,15.52500609,9.415534483,0.039990205,-0.32679704,-1.339578733,1
0.000516044,0.286503314,3.688481035,16.02827697,9.370296315,0.021263603,0.895653049,0.095583134,1
-0.00382591,0.28665249,3.637916303,15.79224652,9.344456264,0.021563311,-0.336348107,-0.632704189,1
0.000703321,0.296198659,3.600451927,14.92901358,9.302741568,0.030852916,0.006359318,-0.946605224,1
0.002109329,0.295180036,3.641380445,15.14749434,9.254373986,0.026955662,0.241010674,-0.967626847,1
0.002046021,0.29699756,3.590466114,14.83183544,9.199301638,0.040047083,-0.710820106,-0.449182356,1
0.001371159,0.286298611,3.751242405,16.44559153,9.130119487,0.044336278,0.315219709,-1.263768725,1
0.000687437,0.285616969,3.777637679,16.60240632,9.065791048,0.034553387,-0.232648325,-1.01014934,1
-0.000606929,0.286305933,3.771821506,16.54931904,9.004799925,0.040682075,0.006969428,-0.891814846,1
9.08E-05,0.286862572,3.77319192,16.56036622,8.939204352,0.03756136,0.267636091,-1.209589126,1
0.000709835,0.299282705,3.63779709,15.09587444,8.864098358,0.047960127,-0.280758499,-1.355227448,1
0.001034487,0.301532394,3.644766393,15.09434742,8.786191668,0.041964752,0.298465985,-0.870576903,1
0.00141498,0.301372425,3.620079749,14.95711535,8.718563952,0.03832871,-0.080316979,-1.31864047,1
0.001611799,0.299006933,3.644336508,15.14304225,8.652333995,0.040384848,0.04551864,-0.970801898,1
0.000838113,0.297667562,3.718364666,15.58058049,8.585672488,0.039273243,0.059500489,-0.242486268,1
0.001895894,0.297532564,3.702845926,15.48987024,8.520836421,0.0377889,-0.084164309,-0.814395668,1
0.001057565,0.286251033,3.802904396,16.76254615,8.46065434,0.036470942,-0.12180994,-0.858974868,1
0.000304491,0.287641174,3.776969243,16.60640434,8.396196038,0.043310826,0.043978082,-0.916490595,1
0.001912432,0.299613043,3.648083149,15.15952046,8.339738955,0.026994602,0.522636016,-0.80223325,1
0.000894326,0.300009194,3.647872414,15.16030556,8.29653413,0.027488607,-0.353899944,-1.093685766,1
0.000953188,0.30105547,3.649495776,15.18796663,8.239004026,0.040361996,-0.068153763,-1.177050901,1
0.001224681,0.287519427,3.807637098,16.83669382,8.172388404,0.038643684,0.074847981,-0.920025012,1
-4.01E-05,0.286607232,3.808312348,16.8200583,8.122348295,0.024289473,0.696251573,-0.704703998,1
0.000986612,0.287554875,3.805036388,16.74419368,8.080488586,0.027764295,-0.38149079,-1.097383591,1
0.001611138,0.28876026,3.784464198,16.63785274,8.023684311,0.03809634,-0.01237105,-1.238608631,1
0.000584427,0.288063001,3.801054494,16.73971723,7.965850667,0.030309514,0.306448601,-0.792078406,1
0.000728008,0.275369232,3.932524483,18.32256336,7.918358067,0.027622428,-0.114888608,-0.776369027,1
0.002062768,0.289400379,3.745972216,16.39016813,7.872816031,0.027900847,0.085515084,-1.188037105,1
0.002281167,0.290303642,3.758028202,16.42996466,7.822929709,0.032222124,-0.167354972,-0.873778293,1
0.00019965,0.2898504,3.760065534,16.46581468,7.769384875,0.03169504,0.194547823,-1.083711047,1
0.003045992,0.299631943,3.648691021,15.20532027,7.723737553,0.02300279,0.305679264,-0.890326166,1
0.001050064,0.287785269,3.799363208,16.74273165,7.6872212,0.019991042,0.081886418,-1.018418295,1
-0.000174872,0.288449555,3.780946975,16.62961392,7.651857812,0.022596018,-0.463152848,-0.523198177,1
0.000483294,0.2873271,3.811321081,16.81613571,7.6079913,0.03143866,-0.086942189,-1.028778095,1
-0.000546871,0.287552052,3.829150246,16.88919014,7.566450882,0.022188642,0.479090489,-0.594533136,1
0.001470415,0.300855759,3.661016212,15.19820056,7.533114079,0.021236276,0.021104237,-0.836778229,1
0.001034265,0.301029576,3.643652903,15.11896374,7.495746122,0.02262717,0.019185376,-0.984839621,1
0.002555368,0.29994276,3.645043012,15.17266212,7.450638635,0.028495395,-0.177807181,-1.298549913,1
0.001875098,0.288232556,3.807577796,16.76146878,7.406245477,0.023469572,0.099611357,-0.670704409,1
-0.000728197,0.289079154,3.785730818,16.63038354,7.373370961,0.018777819,-0.060443552,-0.604416273,1
0.00113373,0.288192539,3.773946392,16.59781183,7.341874804,0.020961004,0.123738296,-1.057070802,1
0.005151993,0.285742919,3.833060239,16.9480974,7.310265514,0.016819289,0.222772496,-0.803967238,1
0.001222634,0.289112604,3.770584513,16.52164483,7.282596534,0.017037337,-0.162396572,-0.550671946,1
-0.003044279,0.279238568,3.88684362,17.96930714,7.254588808,0.020191937,-0.073247542,-0.751472665,1
0.004751142,0.287403777,3.807952196,16.73881485,7.229980469,0.016649328,0.511762783,8.970645726,1
0.001394492,0.288453174,3.767390237,16.47916229,7.215942819,0.011482152,-1.6758185,30.21285595,1
-0.003301398,0.290808485,3.743322308,16.32827767,7.195605033,0.020223583,0.12632219,-0.873686469,1
0.001929062,0.292704259,3.751118434,16.18167478,7.161866924,0.020312991,-0.091184438,0.598346549,1
0.00101086,0.28918331,3.793903063,16.657855,7.131330981,0.017777456,-0.144310256,0.85871768,1
-0.000288725,0.284160124,3.82285952,17.10539787,7.11080355,0.012365583,1.039068761,1.564508419,1
0.001314259,0.287498554,3.801611792,16.72824024,7.098403931,0.010435406,0.011700843,0.683842389,1
0.002089057,0.289095399,3.788292062,16.62096707,7.078206035,0.018466304,0.085965751,-0.608160659,1
0.000998651,0.275890975,3.93823278,18.30155472,7.058503342,0.010306625,0.822456242,1.525618419,1
-7.28E-05,0.289351036,3.787954895,16.60810351,7.040992737,0.01624808,-0.292333903,-0.161275895,1
0.001005504,0.301652531,3.653203075,15.18623057,7.021590533,0.012554364,0.643767645,1.361681141,1
0.003295388,0.300216041,3.676947242,15.31785294,7.007707432,0.011449217,0.319558992,0.748714987,1
0.000806102,0.287797557,3.835675126,16.93657363,6.988816888,0.015112443,0.017744122,-0.055832416,1
-0.00075563,0.276283783,3.961958096,18.43569766,6.963598687,0.016812643,0.177715758,-0.738985938,1
0.001031152,0.288434774,3.787622518,16.66476533,6.942278726,0.011456772,0.582766654,1.077955302,1
0.000958897,0.287728751,3.813586873,16.89186748,6.929490716,0.010011198,-0.135903386,1.663788488,1
0.005299609,0.286471578,3.83806604,16.95735485,6.917911148,0.010821441,0.530143551,0.68097868,1
0.002465437,0.287775916,3.777443014,16.61368893,6.907022422,0.009372892,-3.317832154,128.6342641,1
-0.002364748,0.277485968,3.869832165,17.96420343,6.891758456,0.013745538,-0.798700524,22.01420934,1
-0.001264696,0.276645325,3.931240889,18.29554932,6.875830623,0.009045306,0.522800386,2.291121355,1
0.000665229,0.289803738,3.798082915,16.64065855,6.866998836,0.00892843,0.545908252,3.734381095,1
0.00121671,0.2895001,3.763026331,16.45095732,6.85705234,0.010479761,0.476400833,2.062301134,1
0.00056919,0.288959562,3.781476486,16.56863862,6.849607413,0.00810179,0.987607196,4.628287713,1
0.002809557,0.301561722,3.642102401,15.08277603,6.83271844,0.018214285,-0.097529853,-1.061537358,1
0.001235498,0.288629218,3.804589071,16.69120328,6.810077613,0.011402802,1.082088188,2.358812104,1
0.00133975,0.289707667,3.803146784,16.60982535,6.798006112,0.009142823,0.094232408,4.694112814,1
0.000652542,0.291409338,3.753437231,16.26105482,6.781764167,0.013816136,0.26492517,0.265597658,1
0.000355074,0.290702225,3.768523764,16.38972234,6.762412698,0.013242565,-0.571683572,0.342071698,1
0.001044211,0.289494354,3.793805574,16.58802906,6.747253091,0.012583597,0.519307937,1.70137577,1
-0.000203156,0.276408011,3.981902111,18.51482367,6.737950788,0.007758788,-0.131556529,11.43113594,1
0.001695485,0.290600453,3.803314674,16.61615024,6.726060813,0.012138159,0.251490262,-0.35687828,1
0.001220463,0.290757874,3.800742887,16.59115989,6.707932281,0.012511855,-0.08097394,0.849658279,1
-0.000335129,0.289428116,3.789219724,16.5781455,6.688699722,0.014053916,0.681810645,0.57563512,1
0.005854438,0.300010514,3.667939408,15.22139691,6.6672178,0.015085147,-0.225927683,0.609467948,1
0.001735644,0.289516639,3.81463935,16.70314007,6.654159001,0.010881192,1.072269464,3.167200365,1
-0.003596996,0.277720677,3.926782568,18.21240675,6.646891839,0.009295441,-0.172869424,9.16765842,1
0.002272901,0.288673036,3.804833171,16.6882625,6.638907896,0.008871826,-0.07232212,8.74025158,1
0.001019335,0.288343697,3.83164019,16.81145427,6.633989007,0.007781684,0.775368587,4.376377074,1
0.000680786,0.288739538,3.808148199,16.69403456,6.623021044,0.01191216,0.01448161,0.181877965,1
0.002048303,0.289347913,3.799420612,16.63438478,6.608618818,0.009858761,0.438533168,1.581925705,1
0.001041125,0.288581428,3.809569876,16.66732518,6.594863401,0.011380958,0.352194313,0.432439897,1
0.001098397,0.300387762,3.67608511,15.2324375,6.588512966,0.0074433,0.98371954,7.253054727,1
0.000890527,0.288459203,3.798750746,16.69415974,6.588305555,0.00817402,0.880851104,5.593421744,1
0.002548155,0.288197261,3.809682571,16.77144704,6.581915447,0.009373524,0.741211235,4.682394585,1
0.001252683,0.28965517,3.811743677,16.69456365,6.571204812,0.010368024,0.328822611,1.43060123,1
-0.00131815,0.290068324,3.775316361,16.48838906,6.56182033,0.00777711,0.654634626,3.497323766,1
-0.000327039,0.288997447,3.826366078,16.83004788,6.548454884,0.013670626,-0.205638309,-0.483076433,1
0.002493465,0.289730685,3.785041649,16.57920469,6.533490535,0.009760178,0.938332799,1.811673525,1
0.002224045,0.291135561,3.727946923,16.20691849,6.525306865,0.007914609,0.718557485,3.687387937,1
5.87E-05,0.291092716,3.736954154,16.25837926,6.515211923,0.009566372,0.335481344,1.624726957,1
-0.000792343,0.289124135,3.786558966,16.60987414,6.501494925,0.010359466,0.274907634,1.351877179,1
0.001442132,0.288632654,3.837869093,16.89735959,6.490324674,0.008025458,0.679912383,5.028001531,1
0.002959174,0.288941496,3.797366602,16.61253932,6.490456608,0.007900518,0.564956163,4.768609809,1
-0.000670362,0.2762674,3.957439495,18.38248389,6.494071034,0.006669613,1.001977135,9.974892855,1
0.000193216,0.290685099,3.787754165,16.54091055,6.488380923,0.008936593,0.483790366,2.96018883,1
0.002717514,0.289958881,3.76049522,16.3847709,6.479576438,0.008270076,0.603571257,3.271465054,1
0.001590108,0.28881557,3.781626217,16.52942667,6.467406355,0.01227062,-0.00426496,0.043884659,1
-0.000531679,0.289095594,3.830750668,16.81446538,6.455762863,0.008655429,0.849519624,3.13074803,1
0.000618857,0.289766691,3.838490347,16.84198223,6.451735742,0.007140873,1.024031253,7.606703012,1
0.001903159,0.289915909,3.794711045,16.59613327,6.444048909,0.010587775,0.16065809,2.159603135,1
0.000105665,0.288755112,3.81059701,16.69280259,6.434111404,0.008951602,0.902457735,4.502168922,1
0.001974014,0.300291547,3.687225409,15.30014541,6.430469676,0.00769878,1.257507839,7.835550513,1
0.005117576,0.300149914,3.68590474,15.32065277,6.434102086,0.00905252,0.400850453,1.597854123,1
0.000721919,0.289931075,3.772956943,16.51047838,6.433261108,0.008699525,0.575834665,1.841813165,1
-0.002965151,0.277321176,3.906713619,18.11119095,6.425936018,0.006768025,0.931966015,8.746458954,1
0.001224603,0.289282816,3.787328939,16.55071247,6.42303118,0.006355238,1.314536098,14.2714302,1
0.000714451,0.291605894,3.75404937,16.28368462,6.418660627,0.008357738,0.43061553,3.910091914,1
0.00130598,0.291710808,3.762775149,16.33930796,6.408033425,0.010077821,0.469417821,1.375274137,1
0.001018505,0.290511771,3.78663386,16.51330779,6.394804437,0.010129578,-0.370321232,13.07142379,1
0.000615574,0.290465213,3.768294175,16.3867038,6.387596621,0.008050664,-6.684850773,241.7772246,1
-6.38E-05,0.291190065,3.76843766,16.37912795,6.383412225,0.009022246,-3.741559797,129.8532072,1
-0.001192834,0.292978492,3.756092777,16.27577097,6.371933801,0.010864169,0.567155345,0.947048529,1
0.003005787,0.304760809,3.600821371,14.69455161,6.36149074,0.007566477,0.845017441,4.801068477,1
0.000308559,0.304852453,3.629496655,14.84474782,6.35474047,0.009119872,-1.968645756,61.92401801,1
-0.000694663,0.304289842,3.646284982,14.99719505,6.344309562,0.010233828,-1.024206328,32.19191312,1
0.002937489,0.314866977,3.50872386,13.72668866,6.332077571,0.009755391,0.347030126,2.214614355,1
0.002067065,0.302129967,3.651618608,15.09896966,6.323117828,0.008335822,0.588855855,3.682891749,1
-0.000900107,0.289397126,3.828280839,16.7861386,6.318061011,0.007023206,0.508404651,3.451084783,1
0.001034958,0.301898716,3.717522919,15.460874,6.308120074,0.011643103,-0.541967484,2.7455617,1
0.001693104,0.289462451,3.865802049,16.99293453,6.298964691,0.008703846,0.169171051,8.86918101,1
0.000674646,0.289320452,3.821663742,16.71318168,6.299976839,0.006879297,0.918081795,6.318738527,1
0.000802192,0.28948111,3.821701596,16.70972894,6.299014228,0.007902918,0.380222983,4.114607753,1
0.004238584,0.289796443,3.834885105,16.76731651,6.289183099,0.010351934,0.156963019,0.99068965,1
0.001443806,0.291028198,3.785594129,16.47753173,6.281991523,0.008349804,-0.871779823,27.15468975,1
-0.000972283,0.278009989,3.904450324,18.02828402,6.281831905,0.007933092,-0.916389296,32.93898332,1
0.000299986,0.289469412,3.786372273,16.5515583,6.282600403,0.007245147,0.91945423,6.305442957,1
-0.000381598,0.28913728,3.806968195,16.7017318,6.279415076,0.008312541,-4.119234009,162.558999,1
0.001482422,0.276102414,3.950445944,18.39585715,6.272111184,0.00856515,-3.676912483,130.2010636,1
0.00168117,0.289646213,3.771755595,16.43907278,6.270952116,0.007890022,0.699671148,5.593015214,1
0.00087342,0.303080242,3.642310168,14.99675978,6.273344585,0.007224056,1.188842045,6.036740283,1
0.000594655,0.307931234,3.546209022,14.36883378,6.288533783,0.018144367,0.3630443,-0.988992453,1
-0.000130142,0.311236387,3.491942826,13.91615417,6.322178813,0.030223362,2.283370655,7.542544096,1
-0.000479946,0.330338737,3.320007593,12.17879828,6.330687659,0.037630299,0.631145591,2.003568104,1
0.000779853,0.335809177,3.245641749,11.66946912,6.297648512,0.037583025,1.051027578,0.369251628,1
0.005046518,0.331822497,3.285884082,11.95180453,6.268466405,0.011445812,0.557347527,0.320912537,1
0.004761919,0.330927765,3.291566472,11.92916284,6.267391259,0.011551196,0.676477542,0.805470427,1
-0.003154763,0.310824122,3.507695829,13.97453276,6.27190361,0.011953638,0.213763216,0.666689769,1
-0.001393858,0.301642105,3.619597403,15.04671878,6.267632021,0.010301502,0.754058187,2.388472964,1
0.002317553,0.302157964,3.588127513,14.80903635,6.254592405,0.011666983,0.161380491,0.402082322,1
0.004326115,0.299331727,3.630355982,15.11250358,6.244159426,0.007285062,1.326155608,10.68216255,1
0.000157379,0.286329502,3.795640685,16.80401723,6.245470374,0.007074736,1.009093337,7.847865636,1
-0.002232298,0.288789378,3.808843882,16.75370132,6.248765019,0.007158751,1.341130183,9.756210675,1
0.00121979,0.3016413,3.647253306,15.10074865,6.247621809,0.008658199,-1.104373109,48.40782385,1
0.000313751,0.301107556,3.611651099,14.98516432,6.24358624,0.008910572,-0.9497447,39.61519013,1
0.000935944,0.311478086,3.515491877,13.88561796,6.239907564,0.007796262,0.982177062,6.980156579,1
0.002427037,0.311253734,3.501369105,13.82574125,6.237036242,0.007731497,1.022408967,7.834862212,1
0.00089364,0.28660948,3.819609361,16.93552426,6.232037953,0.008126652,0.959574159,6.017804133,1
0.00365593,0.283962463,3.879517602,17.27562517,6.226646369,0.006979181,1.240130197,8.786708628,1
0.000985474,0.284662052,3.864253388,17.1649458,6.231676701,0.009840366,0.560607636,2.110121857,1
-0.002196926,0.285748666,3.881638789,17.28291322,6.234762573,0.00901805,0.392173631,3.310791411,1
0.001057925,0.285841291,3.889239715,17.35166499,6.231249346,0.008449057,-0.198264683,15.24424036,1
0.003700437,0.297829798,3.724393701,15.70861753,6.224424526,0.010827901,-0.170870888,4.200004739,1
0.001287598,0.298091058,3.688199085,15.48624757,6.218004826,0.00897119,0.461395722,2.53416071,1
-0.002750656,0.286307169,3.855334846,17.12718497,6.222445679,0.00883194,0.004465324,3.84954493,1
0.001307693,0.285084366,3.901609348,17.44080999,6.221432059,0.008275282,0.733459909,6.244798879,1
0.001527185,0.285727604,3.866662822,17.1892137,6.217537907,0.007881757,-1.151274356,57.58283338,1
0.000161872,0.298988036,3.691851392,15.39127113,6.221737071,0.012928063,0.09632279,8.057037536,1
0.001283079,0.288217976,3.828452442,16.83308946,6.219150489,0.013913294,0.742432408,0.161510866,1
0.001082062,0.28867365,3.841724042,16.89542592,6.21342223,0.009425207,0.893022919,2.41038972,1
0.000875813,0.300376685,3.689513553,15.3141236,6.223113033,0.012738781,-0.092928868,-0.226416963,1
0.002377481,0.300444835,3.674550027,15.20638177,6.229759053,0.007142873,0.655160719,5.638040858,1
0.002486474,0.300882081,3.703140242,15.34960573,6.229948807,0.007717983,0.77686836,6.94402145,1
0.000962873,0.301102669,3.689442137,15.28296899,6.229535839,0.007791336,1.105961078,7.622391264,1
0.001084396,0.300370328,3.645583434,15.06352765,6.225361143,0.006427601,0.985687305,9.659234579,1
0.001018727,0.299516422,3.64541321,15.06981716,6.243335615,0.046871654,2.241973511,4.998090256,1
0.000582302,0.313737167,3.519218411,13.7827342,6.26999648,0.044929429,0.991787274,2.326412397,1
-0.000509256,0.3272227,3.391547018,12.64506585,6.266260474,0.017305606,0.886491105,0.673639346,1
0.002854673,0.323650459,3.421299919,12.87921813,6.252002716,0.009905678,0.433005431,2.425280386,1
0.002301387,0.311363885,3.527239171,13.92233751,6.254876818,0.011211502,0.097177058,0.847896827,1
-0.001907632,0.288966253,3.766678966,16.48631969,6.258666829,0.008608955,0.034578838,2.672386439,1
0.000508242,0.275505146,3.982839165,18.60349375,6.250676727,0.009640571,0.420145535,1.60049766,1
-0.000252182,0.288578715,3.822120863,16.78170353,6.243401882,0.008786912,0.241241203,2.92447809,1
0.005181891,0.298721209,3.705093276,15.44473169,6.236757442,0.010832038,-0.057507691,14.51832795,1
0.002159951,0.288678584,3.796198439,16.66315041,6.226770728,0.008684704,-0.682885885,31.16922953,1
-0.003049831,0.290388615,3.758637729,16.40056118,6.220536641,0.007294643,0.83835158,4.790894594,1
0.003921079,0.299424428,3.679150489,15.28135749,6.219794464,0.006953153,1.00224771,4.904427624,1
-0.001387436,0.302502104,3.652649557,15.11319827,6.223431342,0.007407554,0.491493014,5.136237557,1
-0.002131112,0.318117891,3.4623021,13.44872639,6.225504739,0.008690262,0.363280933,3.370145061,1
0.002744032,0.327956514,3.352296932,12.39918629,6.223197992,0.009725303,0.42401762,2.895491394,1
0.000318165,0.313882303,3.480670858,13.65869925,6.220732607,0.008285086,0.537785241,5.846893318,1
0.000576874,0.300835758,3.627342293,15.09741156,6.218214253,0.009377279,0.208154119,2.079218931,1
0.003502481,0.307731996,3.582567109,14.39874765,6.21856526,0.011457067,0.030763271,0.176784617,1
0.001625179,0.303681061,3.448311346,13.83887945,6.235415867,0.026472367,0.719882441,-0.779635863,1
-0.001780923,0.308298984,3.403373129,13.44705779,6.247757503,0.022299192,0.1183999,-0.970901614,1
0.002034792,0.313035213,3.513229125,13.87560641,6.232809612,0.01731078,0.17685602,0.461057288,1
0.000730669,0.302906255,3.636675843,15.08030962,6.224566051,0.010891175,-1.094436381,16.37993519,1
-0.001333779,0.317439543,3.460114618,13.47428281,6.22975878,0.00817786,-1.479216808,45.28179083,1
0.00145476,0.316887807,3.438276663,13.36940613,6.219898769,0.013272611,-0.223792093,7.600351457,1
0.001267881,0.31485857,3.483984336,13.62478384,6.208152499,0.008046481,-0.634817171,54.41358385,1
0.000348384,0.324648121,3.418913272,12.80248247,6.202512796,0.009115295,0.157064204,1.390795198,1
0.001361304,0.321614708,3.442879654,12.98396927,6.197204753,0.007918785,0.65831178,4.182967041,1
0.001723631,0.309644195,3.575889086,14.24249132,6.188124248,0.011737935,-0.032803671,0.13173621,1
0.000817762,0.298364019,3.732835991,15.70331503,6.179577855,0.008257058,0.826540418,2.980331172,1
0.001298989,0.299161861,3.718466839,15.55059175,6.176141739,0.009779229,-0.410439206,4.876062199,1
0.00298526,0.298320476,3.703017727,15.46131841,6.171156638,0.009640091,0.217075066,4.153403595,1
0.000909092,0.284749122,3.865883064,17.14131153,6.172815922,0.008222745,0.480951826,2.060729418,1
-0.00056522,0.286212114,3.883873943,17.16972765,6.190975353,0.020529635,0.574069285,-1.004943743,1
0.000358246,0.300334554,3.721766664,15.45765224,6.208801923,0.015016325,-0.878192902,0.781159138,1
0.001194377,0.300877338,3.702078869,15.33556113,6.207907758,0.009100422,0.503950055,2.329347837,1
0.002722236,0.300650321,3.68678958,15.24893802,6.202547836,0.007467112,1.052269315,5.009724817,1
0.000491841,0.301199564,3.684151589,15.2806377,6.199706105,0.007157412,1.101383491,6.012256595,1
-0.000713176,0.301440386,3.694742465,15.37845633,6.191546358,0.009758406,0.348032302,1.468923114,1
0.006316916,0.29870218,3.704934187,15.40759147,6.182740511,0.009127693,0.605763404,2.745131178,1
0.001603513,0.287993269,3.814917811,16.68167294,6.189772415,0.012777172,-0.030574729,-0.129751044,1
-0.003591391,0.290941636,3.7945401,16.57445716,6.195932606,0.008750804,0.414343384,3.841776536,1
0.000804735,0.301719925,3.691455668,15.33190674,6.185765948,0.010558432,0.89247878,4.055962562,1
0.001131474,0.301328456,3.704971077,15.39420364,6.177822549,0.007313923,1.418173182,20.14867424,1
0.002841601,0.30123833,3.686610916,15.27865466,6.178595134,0.008922066,0.257580884,2.342448874,1
0.000845646,0.30167226,3.68072255,15.25664235,6.18295408,0.00857704,-0.101058474,3.371879423,1
0.003166332,0.30031612,3.710079693,15.42316104,6.18366939,0.006798737,1.133855469,8.000902503,1
0.000741708,0.288797663,3.827929806,16.78178167,6.180873925,0.006650303,1.675462659,12.47912394,1
-0.001847985,0.291168489,3.746868071,16.30306109,6.182613155,0.007183181,1.401773662,9.272819217,1
0.00021475,0.304517984,3.613285406,14.80471462,6.19103666,0.011789391,0.906505545,1.262037424,1
-0.000294362,0.306471855,3.577676811,14.51458063,6.201575633,0.011847822,-0.920906913,13.30741058,1
0.001012207,0.320527712,3.391491392,12.93642144,6.206525203,0.008082346,-1.997022366,66.29097914,1
0.001066158,0.33215339,3.299416344,12.04781215,6.205270604,0.007569411,0.235947243,12.87990338,1
0.001967933,0.327620072,3.362255493,12.47756222,6.2002982,0.007651776,0.331362673,12.4462489,1
0.000988325,0.301634289,3.668691801,15.22611631,6.20171705,0.008913908,0.191328659,9.706091796,1
0.000520006,0.290409607,3.804703486,16.59989697,6.210879462,0.010982138,0.270153905,4.758158969,1
0.001488667,0.291806152,3.768979816,16.35876262,6.217756053,0.011213083,0.091117331,0.255036655,1
0.001057539,0.292873984,3.755746795,16.27029572,6.220201274,0.009181508,0.255931429,1.699335084,1
0.000921674,0.292181252,3.760361635,16.32178311,6.220040403,0.008163147,0.350632874,3.313410905,1
0.001385507,0.292584834,3.75734763,16.27282199,6.22203816,0.008439758,0.749644434,2.971665194,1
0.00098911,0.293248666,3.750611249,16.21974543,6.217567062,0.010407522,0.467315464,1.265783488,1
0.001617482,0.292667272,3.729981571,16.14560681,6.211777714,0.00759725,1.347771963,13.77016457,1
0.000104488,0.292792219,3.741754087,16.22102439,6.214506476,0.00711909,1.56083005,16.26766055,1
0.000982616,0.27966342,3.88909514,17.90330343,6.218703352,0.007121826,1.122603533,6.671113638,0
0.002117373,0.293351266,3.656297172,15.69879341,6.222505787,0.007589199,-2.228627781,93.04033255,0
0.001112928,0.307703559,3.488058389,14.0718064,6.256579535,0.047047793,0.997140156,-0.248696972,0
0.001255136,0.310287386,3.44647353,13.734658,6.299106325,0.036469436,-0.702409326,0.240963161,0
-0.001730824,0.331881567,3.235799641,11.82089169,6.289993504,0.023467696,-0.003508918,-0.993147433,0
0.000554849,0.340445561,3.155753374,11.15290334,6.264660481,0.019420154,0.291689219,1.396732057,0
0.00374452,0.317789777,3.36812142,13.05423263,6.25770547,0.016894342,1.216783852,5.441634536,0
0.004579147,0.303955439,3.5713208,14.67562159,6.255225318,0.008127664,0.248994568,6.715149275,0
0.000209754,0.292986814,3.700767532,16.05925227,6.249887357,0.01197126,-0.037404874,0.220043529,5
-0.002941812,0.281369545,3.828826428,17.60348289,6.236790793,0.014606103,0.857704776,0.251813194,5
-0.000878213,0.293103601,3.720109531,16.16010066,6.226783698,0.008121942,0.806685845,5.434259472,5
0.000519313,0.307624234,3.501574716,14.26284696,6.230462919,0.011335546,0.619473577,1.700543081,5
0.005793771,0.307447789,3.521689146,14.37421312,6.237409592,0.010454514,0.100085378,4.42707999,5
0.001372389,0.295659888,3.703829749,15.99830932,6.248234667,0.01518292,1.035199752,0.840288843,5
-0.002848513,0.284160432,3.821264146,17.42649761,6.266722706,0.016429652,-0.483452009,-0.532977819,5
-0.001572444,0.297646359,3.676919912,15.83434505,6.279864229,0.008401344,0.85210654,3.771607489,5
-0.001847161,0.298064553,3.677095805,15.86687149,6.277098683,0.009917273,0.421581057,1.709564166,5
0.003541548,0.297098439,3.676797958,15.87274246,6.300094169,0.031916821,0.259229688,-1.549058044,5
0.001902793,0.297530367,3.705170441,15.96392976,6.348443767,0.025885011,-0.323467654,0.088861989,5
-0.005295959,0.285400909,3.836502482,17.55940682,6.384389005,0.022252463,0.109040335,-0.517223597,0
-0.001186138,0.299301424,3.660357933,15.70913933,6.4485963,0.055079523,0.415268824,-1.233909327,0
0.002836755,0.304660901,3.666622087,15.27129468,6.534195818,0.048536882,-0.251887098,-0.773895635,0
-0.004977964,0.311895132,3.557050058,14.46739127,6.660242571,0.098980273,0.306941684,-1.465991833,0
-0.000999357,0.327381473,3.35308417,12.68163161,6.828132902,0.090478955,-0.524825305,-0.907735783,0
0.006263763,0.315881198,3.4914581,13.67529576,6.941377858,0.043700144,0.389345463,-0.525720936,0
-0.004239454,0.293073915,3.767509625,16.27348788,7.005517742,0.039901638,-0.407549363,-0.707774899,0
-0.000735188,0.290906457,3.764563192,16.30881903,7.07784244,0.044755536,-0.010818987,-1.660560451,0
0.006148028,0.290116464,3.799901111,16.64395825,7.143497685,0.031159121,0.452838706,-0.99327566,0
0.001638447,0.293720011,3.74906788,16.22897193,7.202239227,0.045108096,0.026809955,-1.176507023,0
0.001041759,0.290898947,3.731339665,16.11903582,7.271985027,0.046425098,-0.301287942,-0.747589552,0
0.000152121,0.276021989,3.937088618,18.10337939,7.333890315,0.035852365,-1.03339766,0.368007562,0
0.000328177,0.289545521,3.821176331,16.57275786,7.363125174,0.011140163,-1.308656615,7.783981697,0
0.00056129,0.290674693,3.814826673,16.57896497,7.381274959,0.020236627,0.425421895,-0.857429326,0
0.00082436,0.289853259,3.836171084,16.71938341,7.415061079,0.021105445,-0.429006953,-0.915814984,0
0.001304254,0.300965827,3.697358305,15.23265797,7.44142189,0.011793727,0.242873498,0.593001828,0
0.001182665,0.299325349,3.694599207,15.3187067,7.463191714,0.016241817,0.243879424,-0.64592356,0
0.001321479,0.298103399,3.741567917,15.67508639,7.503717531,0.03151069,0.30867318,-1.18422085,0
0.002400755,0.297426707,3.747158218,15.69878041,7.525864356,0.015565961,0.581333886,0.397973345,0
0.00143847,0.285943134,3.88722136,17.14160752,7.522600501,0.01019752,0.754844322,2.411503107,0
-0.000207877,0.27489183,4.044503812,18.89679145,7.536235373,0.016439485,0.293748019,-0.036788511,0
0.000997729,0.286641337,3.870871761,17.09875127,7.561130687,0.020811239,0.56841402,-0.562153558,0
0.001387102,0.296904155,3.734402047,15.63592403,7.554376384,0.026788726,0.194431522,-0.859762681,0
0.004924026,0.295906319,3.786808308,15.93177439,7.545580237,0.024951519,0.434884619,-0.776674959,0
0.000784561,0.285793931,3.87315997,17.104044,7.541804123,0.025699556,0.544230841,1.69310502,0
-0.004468336,0.272932348,3.944961298,18.31812866,7.518570546,0.013163223,-0.721644031,25.24921702,0
-0.000853075,0.291860645,3.839491804,16.58150114,7.537633296,0.033170771,0.640524237,-0.821918336,0
0.00244005,0.302565378,3.742161928,15.56623639,7.587692097,0.032383094,-0.292669937,-0.874345193,0
0.002047753,0.298500919,3.705246898,15.53611857,7.580047117,0.034985832,0.21328209,-1.400728483,0
0.000662953,0.302520028,3.624682188,14.83640676,7.5607987,0.020106109,0.654864648,-0.272097584,0
-0.00189539,0.290590775,3.759691295,16.32747836,7.621229172,0.076834372,1.178926259,-0.130138578,0
0.001164754,0.309691797,3.504999298,14.09985557,7.697725514,0.066671618,-0.561798044,-1.082837631,0
0.003923277,0.333715453,3.204239236,11.39867535,7.673497936,0.06822685,-0.554758835,-0.998710293,0
-0.00321868,0.345907213,3.063692679,10.37022769,7.575609425,0.061876502,0.93468235,-0.519591959,0
0.002026664,0.371757139,2.852754988,8.797602427,7.522139304,0.015433901,-0.115912741,0.681771244,0
-0.000111014,0.350838187,3.000010376,10.16969548,7.518906621,0.013222871,-0.346687845,4.999772818,0
-0.003389635,0.314254711,3.238059356,12.736896,7.508508955,0.018312006,-0.255090809,0.000431799,0
0.002401311,0.313891813,3.224600717,12.59862805,7.493022047,0.011426968,0.176238916,0.401007414,0
0.00097724,0.31813234,3.1870209,12.36690489,7.491561072,0.012425594,0.041897817,0.586827607,0
0.004653554,0.316073363,3.179105428,12.34027291,7.48250509,0.017166831,-0.049044525,-0.203004157,0
0.000519804,0.317770416,3.192769721,12.37342724,7.472987311,0.020613148,-0.096921106,1.895665744,0
0.000176926,0.332554866,3.054164777,11.12692592,7.4962083,0.034223377,-0.059800416,-0.43654242,0
0.003426976,0.341958157,2.931252076,10.09417118,7.51477247,0.021209831,0.095763634,-0.440014859,0
-0.003795907,0.330572282,3.091837554,11.29668638,7.506097031,0.01491192,-0.194070019,-0.192314487,0
0.003883556,0.326668369,3.166678954,11.71657485,7.510650199,0.015403311,0.044501088,0.045271049,0
0.001685852,0.327135336,3.171470721,11.75200936,7.521506718,0.01184881,-0.148302248,0.487937312,0
-0.003445509,0.315474275,3.298606493,12.94144773,7.524401038,0.009832134,-0.308817044,1.20173261,0
0.004293568,0.312095183,3.33235414,13.12858652,7.513217817,0.015287324,-0.043222157,-0.727042927,0
0.002299125,0.324058213,3.260638828,12.22953059,7.509374564,0.014899353,0.794082154,0.775451479,0
-0.000403486,0.311674118,3.398549467,13.50827101,7.531430381,0.020391656,-0.134510296,-1.175312747,0
-0.00119526,0.313893818,3.358327262,13.22975089,7.519614846,0.030926641,-0.242518959,-1.244010038,0
-0.001978906,0.33684937,3.148736822,11.21017052,7.502264513,0.018922944,-0.106668467,-0.233729581,0
0.000221558,0.323307937,3.302825106,12.5146886,7.568798719,0.075829713,0.811723404,-1.03538717,0
0.001632954,0.311620604,3.433585955,13.69324978,7.643017142,0.052468929,-1.041772191,-0.291253214,0
-0.000179313,0.324848207,3.304706949,12.48371184,7.678670938,0.031818607,0.729960376,-0.719626153,0
0.001926041,0.33557972,3.203570903,11.55047032,7.699877003,0.025086409,-0.415308252,-0.189777878,0
0.001320014,0.337327466,3.143061083,11.25221378,7.715161569,0.022197306,0.692172748,-0.531963272,0
-0.001742222,0.353542966,2.965444969,9.884754062,7.744187764,0.04735437,1.224341613,0.469790558,0
-0.003140239,0.365765534,2.859390445,9.055720694,7.865128108,0.121244973,0.053093119,-1.442022643,0
-0.001466498,0.337528872,3.128905293,11.18676768,7.997648021,0.05457153,-1.382999502,0.792702026,0
8.43E-05,0.318633426,3.397634958,13.11109583,8.057271739,0.040909629,0.479197254,-0.513798726,0
0.002252498,0.317983791,3.419193675,13.25013615,8.119292995,0.03804622,-0.702277116,-0.607740782,0
0.002468857,0.317687539,3.397744398,13.21255523,8.173900768,0.042369016,0.786507715,-0.814582794,0
0.000810327,0.317942478,3.362341463,13.09424923,8.20478581,0.042155181,-0.427930243,-0.92142906,0
0.00066086,0.306826764,3.448718693,14.0219673,8.277590888,0.082969349,0.408620614,-1.088521291,0
-0.000421744,0.321502188,3.280901128,12.495232,8.385517883,0.073906163,-0.198998201,-0.609224286,0
-0.002417417,0.335516894,3.144207839,11.32382152,8.415742384,0.0501283,0.334562736,-0.342838727,0
-0.001261642,0.322037067,3.251488377,12.31657451,8.457187435,0.067536886,0.381619142,-1.292855167,0
0.00199445,0.307800438,3.380261506,13.52210758,8.463616834,0.058269265,0.739662525,-0.997789429,0
-0.002064521,0.322856987,3.29384658,12.56996825,8.454968425,0.061394371,1.279458175,0.544257145,0
0.00053287,0.324790574,3.287965697,12.47159686,8.588309915,0.112411607,-0.169713457,-1.110517326,0
0.002968761,0.311399018,3.414354224,13.63740706,8.741560037,0.069500071,-0.347563964,-1.282725875,0
-3.32E-05,0.309908284,3.476433704,13.92315795,8.77651825,0.030010824,0.684332084,-0.220450375,0
0.003221858,0.33680337,3.199434048,11.45096157,8.817287336,0.073012579,0.517204259,-1.207589692,0
-0.00122525,0.337844621,3.180845144,11.36407696,8.847976739,0.050606339,0.608705099,-0.570649988,0
-0.000961323,0.325558382,3.239754288,12.15001707,8.893111583,0.0882572,0.260910823,-1.566095755,0
0.004755654,0.334502302,3.130651155,11.20669834,8.94903826,0.055292558,-0.457701777,-0.700726494,0
-0.003852166,0.336175942,3.081486489,10.98320047,8.935267803,0.036979149,-0.51822811,-0.135561794,0
-0.003873472,0.324461951,3.155540688,11.83187404,8.967916325,0.044555005,1.004361289,-0.053697166,0
0.00368027,0.317493504,3.257853655,12.35131199,8.937409701,0.067160937,0.562212869,-0.860020599,0
0.002240838,0.317035078,3.263357318,12.36859733,8.877051653,0.023148643,0.595872908,-0.306703066,0
-0.001110973,0.309635254,3.337132238,13.29268678,8.863432421,0.024904882,-0.006993871,0.01210929,0
-0.005045353,0.315148307,3.244996831,12.83769199,8.917679432,0.093241879,0.648803041,-1.198465565,0
0.003311757,0.334824518,3.044658612,10.80162493,9.001633126,0.079293461,-0.85313233,-0.055472635,0
-0.002763729,0.36994833,2.635377317,8.032009436,9.008584431,0.047818333,0.497247215,-0.713024684,0
0.000904567,0.354678113,2.643103911,8.700447106,9.148968833,0.195725072,0.659440916,-1.133977613,0
0.010120514,0.326725885,2.865246025,10.4765499,9.295180893,0.119178033,-0.406175949,0.5269639,0
-0.001842329,0.352077442,2.59237066,8.432345192,9.25707016,0.045010607,-0.020829302,-0.694636061,0
-0.009068998,0.361422067,2.449042398,7.647041584,9.215988922,0.049112486,0.02999774,-0.731777272,0
3.56E-05,0.338664245,2.600357157,9.023244214,9.261148834,0.071694979,-0.553345111,-1.076360863,0
0.006533269,0.328506013,2.914184516,10.55209654,9.315900585,0.042287967,-0.193233717,-0.782061572,0
-0.001221484,0.335561124,2.947634295,10.3392429,9.322409112,0.065753411,0.265824922,-1.296512253,0
-0.008076959,0.328864741,2.993317564,11.0504301,9.356457847,0.070067192,-0.063964448,-1.201161108,0
-0.004384205,0.33052962,3.070089723,11.37682457,9.449392591,0.137918197,1.377766498,0.858094005,0
0.006576056,0.33871822,3.059962086,10.78682623,9.423742131,0.161119433,0.908271707,0.137808708,0
0.002864384,0.348852905,2.963503734,10.04922427,9.354463904,0.126033507,0.387882874,-1.041311608,0
0.001959856,0.356151325,2.832373169,9.262424049,9.427413395,0.147016225,0.010523022,-1.136943009,0
-0.000613547,0.353009223,2.81243777,9.196308378,9.324730301,0.180364998,0.595094695,-0.94266025,0
-0.001346159,0.356383945,2.780755608,8.929592372,9.156014088,0.046734817,0.956360282,0.670847058,0
0.001858919,0.345482091,2.823774532,9.455744207,9.109276254,0.051999868,-0.389461625,-0.051574042,0
0.000646094,0.330777206,2.951621149,10.47235304,9.027728162,0.063816198,0.462551133,-1.174623548,0
-0.001735258,0.32454002,3.041021154,11.43096125,8.997782516,0.034811022,0.252590896,-0.750244255,0
-0.000440689,0.337679792,3.02943576,10.91874928,9.0534729,0.057743473,0.788733192,0.291830206,0
-0.000253738,0.347121197,2.88545962,9.715199606,9.117975453,0.10345351,0.492235944,-0.698629681,0
-0.001012894,0.351236759,2.851500128,9.492705116,9.094692176,0.112482623,0.62507772,-0.506799695,0
0.001721767,0.350590592,2.875934937,9.659113917,8.983342089,0.074136204,0.300069188,-1.139253929,2
0.001262251,0.349165635,2.805778261,9.339129843,8.954716274,0.073376871,0.702907254,-0.487940049,2
-0.001699781,0.352283414,2.700057909,8.863555386,9.007456262,0.120629769,0.406122412,-0.932261481,2
-0.002994088,0.348666095,2.735842917,9.030097823,8.943345969,0.137817764,0.994365853,-0.222354283,2
0.001170319,0.348281029,2.819499908,9.355440589,8.841576277,0.067496682,0.155909084,-1.419939034,2
-0.002433073,0.34482966,2.772863448,9.587463395,8.856018339,0.06554317,-0.39730238,-1.177411086,2
-0.003615731,0.345947196,2.78576007,9.620189346,8.970797185,0.117559044,1.065720978,0.041351046,2
0.010116891,0.341102836,2.847591718,9.841308118,9.042336709,0.089828106,0.646617481,-0.308392464,2
0.001353038,0.326161544,3.013055855,11.05435612,8.90149825,0.13882656,0.087914477,-1.52239353,2
-0.006890599,0.327973838,3.038010085,11.24418938,8.846673911,0.102740934,0.650326831,-0.600124253,2
-1.02E-05,0.327244101,3.021226376,11.20107472,8.879254804,0.083398144,0.691235721,-0.300746938,2
0.0004662,0.325879191,2.984972644,10.99783065,8.849526542,0.091355966,0.048500769,-0.911988357,2
0.002051226,0.328522972,2.98474926,11.02685283,8.845570973,0.13348097,-0.134775734,-1.455219353,2
-0.001177577,0.331245449,2.958052487,10.80142353,8.834687805,0.152472722,0.462755496,-1.047802542,2
0.001399907,0.340921283,2.87622796,9.91198345,8.819872393,0.150231228,0.659898605,-0.404846727,2
0.002830314,0.340467496,2.862667583,9.933562456,8.761545345,0.149242342,0.085708445,-0.710844482,2
-0.002949057,0.343164318,2.778409837,9.611228862,8.701093728,0.149776693,0.11582417,-1.43635062,2
-0.005662537,0.346026831,2.835209801,9.797148117,8.610162463,0.132717769,1.20177202,0.270251825,2
-0.001901609,0.358652567,2.774398586,9.044460004,8.561964362,0.084754183,1.056423277,0.916944637,2
-0.003846575,0.356138698,2.773549661,9.088990951,8.464012963,0.162167808,0.252524353,-0.996105372,2
-0.000613508,0.327871111,2.952748854,10.85259649,8.270628575,0.108786712,1.394593381,2.045052225,2
0.007673506,0.324048124,2.995841232,10.98676781,8.147063773,0.068940494,0.209469393,-1.177259267,2
0.003459699,0.324159099,3.021737063,11.10401506,8.083588954,0.045989605,0.642109687,0.296938532,2
-0.006307859,0.324243504,3.01034739,11.10598193,8.063734327,0.06039508,1.377663701,1.528615221,2
-0.000902383,0.326888067,2.913527232,10.57415646,8.126320921,0.098208132,0.20463071,-1.473900171,2
0.002615295,0.323756692,2.769670121,10.45432647,8.26383182,0.213662608,1.203342841,0.349014709,2
-0.004033467,0.333943343,2.815541848,10.18784793,8.140903582,0.293106874,0.854029772,-0.31756242,2
0.002255814,0.32568412,3.008157885,11.08218935,7.936348288,0.127030392,0.707599955,-0.329244728,2
0.001559954,0.32377774,2.997729111,11.10261813,7.862919998,0.094543988,1.120318367,0.013263478,2
-0.001371957,0.324285036,3.058378012,11.25640088,7.791434751,0.030830198,0.50188698,-0.628046509,2
0.002591178,0.326138409,3.121247161,11.58626635,7.852336393,0.094549188,0.748052263,-0.751630565,2
0.005044,0.337392897,2.955590406,10.39671452,7.904941504,0.068498988,0.351454095,-0.483513386,2
0.000221381,0.32822889,2.860313647,10.2842762,7.913293185,0.114278664,1.027990855,-0.09034678,2
-0.011668658,0.330001618,2.86371015,10.30672928,7.891988155,0.125065144,1.113622336,-0.184400598,2
-0.003977424,0.326023831,2.96410863,10.86157311,7.885521208,0.074567666,0.377317399,-0.715718223,2
0.009114264,0.306691012,3.157687964,12.4293523,7.908552878,0.04687758,1.645498861,1.762206175,2
0.00377279,0.311825378,3.161262499,12.37047144,7.952544621,0.07766464,0.518863092,-1.288670578,2
0.002132335,0.31374811,3.1838386,12.39932331,8.001235907,0.056513198,-0.279672288,-0.726264508,2
0.000808803,0.322560937,3.07043473,11.36568295,7.971861158,0.084007375,0.10912226,-1.131004611,2
-0.000707166,0.33343032,2.956071382,10.36946859,7.96227259,0.07635208,0.425928968,-0.352611458,2
-0.001463732,0.317795806,3.090318718,11.52399583,7.95143498,0.020977685,0.756322368,-0.136526943,2
0.000888192,0.318837602,3.138714339,11.83238753,8.041201837,0.126168059,0.649241682,-1.252238991,2
0.001325043,0.30379303,3.33030846,13.41601966,8.059826442,0.112105186,0.694188406,-1.110098277,2
-2.94E-06,0.303409299,3.344145687,13.37453319,7.983064325,0.026661477,-0.026923876,-1.127536233,2
0.001803458,0.322080763,3.147348363,11.71396422,8.034204047,0.073484258,0.886448135,-0.518309064,2
-0.001348179,0.309238013,3.21741479,12.57378314,8.075081853,0.05648702,0.201358337,-0.495237104,2
0.000255484,0.31911274,3.13702779,11.65202112,8.132492828,0.072748865,0.661269888,-1.056770436,2
0.001426235,0.318858258,3.126130583,11.6956217,8.220249939,0.067449367,0.330467834,-0.483688793,2
0.000390407,0.303040452,3.237496648,12.84415742,8.256424114,0.048090533,0.230561561,-0.657700264,2
0.000608237,0.305415357,3.25803716,12.95411078,8.316376059,0.060643845,0.585737912,-0.993642834,2
-0.001472286,0.324055107,3.109948229,11.58672604,8.446614783,0.134737947,1.261224311,0.143483743,2
0.001975283,0.321454785,3.022544651,11.0588274,8.530092893,0.108177789,0.444933201,-0.605046458,2
0.007721414,0.328761072,2.978697636,10.43124433,8.544240352,0.031617982,0.79507148,0.138945088,2
-0.006545667,0.336947436,2.999057734,10.51043413,8.650759125,0.167688816,1.639157316,1.19874638,2
-0.008677963,0.333581193,2.910484848,10.55349947,8.891192191,0.219514974,-0.107151562,-1.245742257,2
0.002168773,0.326142118,2.939742066,10.79523547,8.945539583,0.163743528,0.158867655,-0.9848971,2
0.001738998,0.324529118,2.958492982,10.77844402,8.837345723,0.149069483,0.355721119,-1.501061344,2
-0.000483013,0.32476998,2.930410217,10.62739926,8.747700664,0.13889796,1.182643099,-0.0097964,2
0.007165231,0.319217024,2.995003779,11.00293013,8.715342876,0.098981127,0.803323083,-0.749423812,2
0.005941053,0.322775686,3.075112459,11.36948887,8.827886581,0.129441714,-0.192787656,-1.120594404,2
-0.006785182,0.306295351,3.313549235,13.14261396,8.792841339,0.132587185,0.513922142,-1.23437753,2
-0.002659031,0.301613728,3.376140023,13.53384598,8.686307199,0.030408098,0.724796885,-0.181834436,2
0.00055683,0.303283754,3.393180471,13.61902429,8.708249719,0.025381685,-0.590803383,-0.925480382,2
0.001021192,0.300307815,3.397175754,13.61679606,8.756932722,0.036289931,0.774908506,-0.523476573,2
-0.001667352,0.301524179,3.447361685,13.89353161,8.837288611,0.057403788,0.040121789,-1.162515088,2
0.00311091,0.291255913,3.589107059,15.37120786,8.931269727,0.049256763,-0.155883239,-1.356582468,2
0.006167927,0.288906728,3.583408989,15.33501815,8.98719101,0.024147351,0.343753001,-0.958111075,2
-0.000363406,0.313255408,3.302805426,12.58456875,9.037126378,0.04315803,-0.152914466,-1.096968566,2
-0.000774261,0.314654577,3.264503115,12.38018426,9.103017535,0.036382218,0.206987327,-0.553326912,2
-0.0007483,0.318900474,3.186811832,11.97374509,9.191358457,0.073440866,0.448220296,-1.139866901,2
-0.002776114,0.33310897,3.051346255,10.84237504,9.292619269,0.059242499,-0.616409753,-0.027371931,2
-0.001646275,0.332818452,3.081616852,11.00695043,9.419109235,0.092705405,0.240261924,-1.460806684,2
0.004508547,0.331655918,3.057018575,10.86169882,9.489494978,0.036334082,1.123000509,0.327223588,2
-0.002228877,0.332756727,2.969667488,10.43748106,9.493493598,0.061353066,3.021047544,8.818350585,2
0.001581554,0.331487577,2.951146488,10.32192185,9.62076683,0.128952327,0.001883044,-1.570100112,2
0.003934956,0.342561815,2.840209343,9.393604056,9.685591507,0.059949875,1.031408341,-0.261386311,2
-0.000883987,0.352398099,2.753323147,8.981568653,9.741031047,0.140987801,1.22256149,-0.103589796,2
0.004430099,0.33627816,2.849418929,9.787386652,9.846452386,0.106375731,0.308585332,-0.923529744,2
0.000922943,0.314312837,3.092697151,11.42065024,9.825126103,0.045966398,1.592057377,2.366379843,2
0.003734972,0.315748553,3.211946357,12.08195688,9.814345115,0.026144631,0.9524639,5.328492904,2
-0.00296364,0.322030176,3.198133508,12.00618285,9.8966762,0.104079336,1.886593054,2.969203397,2
0.001610203,0.307403393,3.274231978,12.9857003,10.03891896,0.117774666,-0.004993989,-1.357010237,2
0.003366374,0.307267319,3.293201648,13.09203421,10.12797437,0.088774836,0.525908784,-1.15628464,2
-0.007455819,0.328217454,3.15688242,11.75074107,10.29476858,0.194235139,0.117650934,-1.109543346,2
0.000590633,0.324731182,3.153708486,11.72135495,10.40568701,0.101134514,0.796112873,-0.151016119,2
0.001790445,0.309743593,3.266175881,12.90464354,10.3608126,0.088860509,1.072851565,0.417981428,2
0.000882183,0.321450734,3.1334506,11.67437533,10.4134849,0.104839687,-0.261658585,-1.354436797,2
0.000569824,0.32337504,3.146642762,11.76903447,10.49321491,0.057841342,0.037151406,-1.042749838,2
-0.002456288,0.316415068,3.263662986,12.96639168,10.63857487,0.174925441,0.782146834,-0.629166531,2
0.001303423,0.325328236,3.145587166,11.74401405,10.7627758,0.133813671,-0.131722377,-0.844074021,2
0.001676474,0.327712489,3.151698488,11.57103595,10.70019232,0.090862155,0.886789013,-0.372097181,2
-0.000386778,0.322935309,3.230096562,12.1502123,10.59462771,0.054219979,-0.59277585,-1.015954996,2
0.00088281,0.331076985,3.114258027,11.26223047,10.59119944,0.070219888,0.121378933,-1.206468338,2
0.000930333,0.337657005,3.049282296,10.79965536,10.62509384,0.084583018,-0.094358324,-1.35265913,2
-0.000166593,0.3257683,3.085081681,11.50852035,10.70388772,0.179383543,0.883070478,-0.474603769,2
-0.001495409,0.320388407,3.138371795,11.78040438,10.6885376,0.187643522,0.948970795,-0.521700281,2
-0.003566208,0.318448754,3.234780986,12.20962186,10.51541072,0.106512177,1.430198259,1.499646543,2
-0.001295445,0.322115305,3.18937161,11.98383181,10.45726705,0.039132245,0.937760083,-0.230386205,2
-0.003196668,0.339475596,2.967985921,10.4443712,10.59901935,0.148005533,0.599520953,-0.862829381,2
-0.003761019,0.342202376,2.940707963,10.27774063,10.6736945,0.106411649,0.309751822,-0.316827716,2
0.007415431,0.320356141,3.119362697,11.63143096,10.56881529,0.142885322,-0.52933864,-1.040808201,2
0.000287351,0.30711237,3.271449426,13.00624606,10.39138827,0.177154285,0.877106362,-0.582351295,2
0.000995649,0.329638141,3.129788958,11.47139865,10.32366894,0.090357554,0.567201576,-0.759012408,2
-0.003047876,0.338390254,3.008861501,10.63515611,10.30842901,0.098936621,0.413370421,-0.649884282,2
-0.002824009,0.332173822,2.958927625,10.58923975,10.28665815,0.13482924,1.089162779,-0.059674844,2
0.008508826,0.335503874,2.889989746,9.973229058,10.31295428,0.138246102,0.531998681,-0.8940241,2
-0.000215829,0.338656995,2.941019308,10.18833675,10.26425727,0.101347094,0.28764209,-1.223007341,2
-0.000125957,0.32473145,3.063826387,11.31764601,10.18742038,0.082437362,1.063844905,-0.059215107,2
-0.001201545,0.322008769,3.062987984,11.32285856,10.10239318,0.046513215,0.474036227,-0.858267247,2
-0.00103329,0.336033179,2.916034267,10.12369407,10.06424005,0.018391551,0.429999785,-0.444310699,2
0.002248156,0.338041372,2.883949245,9.932766029,10.066525,0.015722679,0.379438495,0.011603963,2
0.000244792,0.337986548,2.937296915,10.20503601,10.08319555,0.019894099,-0.033785223,4.10871001,2
0.001106722,0.339169544,3.004494155,10.51807272,10.18190972,0.100037808,0.714962017,-0.785238363,2
0.004476301,0.324473801,3.119805836,11.55708637,10.28899329,0.058072648,-0.550060278,-0.410774488,2
-0.002021072,0.310486415,3.189766272,12.47542876,10.29771805,0.022044531,0.229442983,-0.623325696,2
0.000787452,0.313153652,3.162514052,12.29459045,10.29819608,0.020859959,0.08765838,-0.424940591,2
0.005445544,0.32199334,3.13530226,11.64124168,10.34325894,0.050240417,1.946103314,3.553133841,2
-0.00077793,0.321079687,3.167208995,11.76576963,10.43186972,0.07101672,-0.229294165,-1.627012676,2
0.000562422,0.295951002,3.345755051,13.89757665,10.48049414,0.022847396,0.448933605,-0.455423709,2
0.000257956,0.307756086,3.328016789,13.21777627,10.50017019,0.060704856,1.360945236,0.503506113,2
-0.001525772,0.320345289,3.214833725,12.07024735,10.55519829,0.061010745,-0.428298913,-0.999034139,2
0.006429199,0.304637054,3.331614186,13.25921102,10.57241004,0.022790842,0.852088875,0.23387351,2
0.001664389,0.308125334,3.320201829,13.17707395,10.58733433,0.043106243,0.948954032,-0.59256187,2
-0.003883589,0.310477661,3.251559946,12.7511817,10.62301985,0.03702586,-0.805752945,-0.36574289,2
0.001498843,0.311931842,3.18266239,12.23217099,10.63861253,0.020122664,1.306822755,1.711173533,2
0.003853285,0.321321381,3.101155931,11.46199782,10.66024666,0.027427758,-0.159521182,-0.828498569,2
0.000294362,0.319649629,3.18291451,11.9756369,10.72902827,0.059285192,0.303945432,-1.608504491,2
-0.001237675,0.311088524,3.330826452,13.1954176,10.79982638,0.047522831,-0.238810842,0.293305201,2
0.00177817,0.308588935,3.35879553,13.42889413,10.81306027,0.038863505,0.186629995,-0.826450796,2
0.0003311,0.305745562,3.320431443,13.24632887,10.81291776,0.022948349,-0.574829455,0.21454147,2
0.000290641,0.306935647,3.306587521,13.16468541,10.81457318,0.027329286,-0.022423518,-0.530136985,0
0.00212025,0.310288821,3.285841495,13.04368449,10.82133157,0.064272409,0.625051096,-0.798993467,0
0.004615664,0.304345207,3.314531886,13.206378,10.83130417,0.061019617,0.383139695,-0.725011601,0
-0.004173811,0.30715003,3.309774111,13.06915984,10.97917115,0.192732229,0.614583439,-1.424780565,0
-0.007110456,0.339050958,3.042333921,10.64197953,11.22094078,0.158598952,-1.352060148,0.987826116,0
0.007585458,0.371394452,2.717047126,8.147860576,11.32397853,0.065987079,-0.004194869,-1.087888146,0
-0.002567394,0.377031302,2.633112986,7.842410531,11.37881486,0.09912715,0.761032847,-0.174411416,0
-0.002133793,0.37561118,2.569680191,7.644153877,11.53353015,0.14915751,-0.026995501,-1.044162638,0
0.004756452,0.364619219,2.548023092,7.814262281,11.55409557,0.112636762,0.831343093,-0.628896376,0
-0.00193925,0.34485734,2.701136793,9.251288208,11.52338012,0.08304908,1.16040905,0.499872542,0
0.00471526,0.322654822,2.93598176,11.01038911,11.64461539,0.099997538,0.12390512,-1.031022292,0
-0.001547379,0.2961482,3.26420074,13.73505452,11.65828797,0.076805395,0.765548292,-0.410917669,0
-0.007769839,0.300824009,3.298736712,13.85177925,11.60342331,0.037345232,-0.371211617,-0.518545675,0
0.004668908,0.308892207,3.224915776,12.87408672,11.61535165,0.062480946,0.402311405,-0.750589584,0
0.00386074,0.29483594,3.460162442,14.72899991,11.65388799,0.068220193,-0.320564848,-0.940574235,0
0.001154774,0.286154848,3.612099998,16.05825239,11.68224896,0.05169327,-0.476022728,-0.203418877,0
0.001228958,0.299720451,3.415798326,14.32340284,11.70919958,0.083714954,0.52426824,-0.484755203,0
0.001489491,0.308130239,3.359646996,13.51745345,11.662577,0.103506037,0.893256665,-0.324602043,0
0.000383357,0.295175088,3.511949916,14.84542359,11.5980532,0.068534351,-0.074922878,-0.788407371,0
-0.005148435,0.282540489,3.687852881,16.62251212,11.56898226,0.073619289,0.600905819,-0.57836282,0
0.003749137,0.294902751,3.663689675,15.68086627,11.55947996,0.067767776,0.195510343,-1.236279931,0
0.001135882,0.296227544,3.618082872,15.41245196,11.53687472,0.086052086,0.219136346,-1.372458581,0
-0.00330368,0.280739755,3.747438315,17.00433981,11.43844239,0.072267095,1.053374485,-0.040062137,0
0.001000318,0.294897658,3.627637346,15.55638541,11.44225611,0.091079809,1.338618823,0.179711346,0
-0.000650633,0.293739291,3.664204998,15.73343994,11.48249087,0.079249835,0.841941048,-0.622878338,0
0.001053314,0.29123644,3.694493564,15.92912889,11.4840901,0.053377299,0.331123713,-1.035601474,0
0.002034145,0.293633501,3.701640524,15.92420704,11.47791944,0.046547904,0.934788748,-0.260021668,0
0.00172694,0.294915193,3.729942477,16.08432324,11.47862963,0.054490326,0.691924034,-0.814446972,0
0.002369908,0.305854844,3.599463503,14.73917504,11.51863234,0.054785404,-0.573073799,-0.809054416,0
-0.000239816,0.303956473,3.552653149,14.53605689,11.50877805,0.040005901,0.407322365,-0.767296325,0
0.001692947,0.287870347,3.681110978,16.02701272,11.45001548,0.041658323,0.127472745,-1.059944881,0
0.00686537,0.292994537,3.670558026,15.24002138,11.4067931,0.020001819,-0.165446562,0.106255177,0
7.46E-05,0.292507018,3.679726257,15.36483386,11.38194144,0.028373453,-0.107834363,-0.186057209,0
-0.005422937,0.283195789,3.827092694,17.13853136,11.34638149,0.027557941,0.310463499,-0.109408835,0
0.001181697,0.300274663,3.660753554,15.29762019,11.48134689,0.168074083,0.300921171,-1.748868249,0
8.97E-05,0.28828063,3.812889244,16.72183879,11.62679389,0.073123696,-1.543682821,2.918732802,0
0.000632348,0.282451702,3.863965382,17.20599664,11.58897852,0.040586591,0.375352369,-0.630308517,0
0.002496355,0.292282724,3.718553367,15.79668903,11.55500352,0.032369471,0.108719892,-0.915934696,0
-0.001116898,0.27898309,3.90826835,17.66314514,11.59916295,0.058368942,-0.275821927,-1.1148483,0
-0.000505312,0.281575817,3.913250118,17.66049819,11.69126254,0.074118429,0.745957019,-0.352052299,0
0.002995128,0.294968851,3.75906819,15.94376294,11.71039707,0.068976944,0.313162403,-0.332129584,0
0.002916955,0.299870516,3.607887922,14.90405745,11.82287429,0.170669258,0.576927592,-1.15749542,0
-0.000435405,0.307632515,3.44635759,13.83054169,11.98727897,0.114989554,-0.637656978,-0.259245782,0
-0.00103915,0.334422304,3.145091142,11.34548148,12.01617214,0.0633815,-0.112234692,-0.723679798,0
-0.006268975,0.344830718,3.077429077,10.61660212,11.93246901,0.11300958,-0.81998153,-0.427483611,0
-0.002851063,0.32956943,3.27163922,11.97988549,11.90013924,0.095519444,-0.712990427,-0.065130221,0
0.004825176,0.326857378,3.323903009,12.31156745,11.9268752,0.056302328,0.41399192,-0.535681885,0
0.00110941,0.327858413,3.329464746,12.33074156,11.86529988,0.051434147,0.493866546,-0.187790266,0
0.001030805,0.317448733,3.427703297,13.34113971,11.87402752,0.080081327,0.803647925,-0.630602279,0
0.00036315,0.305047925,3.513746189,14.36969234,11.92553226,0.086381295,0.06285932,-1.368886378,6
0.000871307,0.295590896,3.589274156,15.22433949,11.96033963,0.084895201,0.03479432,-1.455632895,6
-0.000664104,0.292065076,3.625832644,15.6536558,11.87816217,0.124988012,0.393792923,-1.314370375,6
0.000336306,0.303403448,3.441071393,14.07616075,11.88235185,0.141971718,0.736144421,-0.806075273,6
0.00194972,0.293332592,3.545446797,15.09512801,11.88976113,0.134332153,0.869829287,-0.686402509,6
-0.001986014,0.296799382,3.630015535,15.50824853,11.8109763,0.039851572,0.532004594,-1.050467036,6
-0.003904946,0.299785039,3.567327732,15.11219283,11.86202627,0.079315673,2.403304251,6.395927656,6
0.00283565,0.296268744,3.559905016,15.09236655,11.97345603,0.142564662,0.465230222,-1.32816854,6
0.006083987,0.307563824,3.477780158,13.95330334,11.95247111,0.14610012,0.513080767,-0.982224337,6
0.000390414,0.295012783,3.664457836,15.60687562,11.80679043,0.067059382,0.192147692,-0.783441577,6
-0.002820609,0.282810404,3.821145186,17.31471874,11.71650194,0.063542725,0.620349739,-1.026612105,0
0.000867377,0.298449624,3.54371437,14.95863426,11.67232301,0.025907943,0.858525013,0.276155758,0
0.004346048,0.295883706,3.549651044,15.00751847,11.69997161,0.041348428,0.646335609,-0.329026693,0
0.001763103,0.289976227,3.706932531,15.97254035,11.70661338,0.041244746,0.410223447,-0.53069087,0
-0.000198153,0.289925405,3.756671243,16.21329991,11.65714204,0.04599881,0.738810251,-0.624098477,0
0.002488174,0.281798217,3.799302617,16.8605248,11.60970906,0.017151048,-0.101531792,0.463826546,0
0.0028375,0.287356291,3.670416581,15.71434767,11.6017267,0.016135529,0.440929635,0.491419162,0
-0.003025262,0.310998275,3.469370708,13.6666567,11.63715984,0.043909735,1.123998709,1.608851267,0
-0.001583588,0.319665932,3.428980112,13.23716189,11.64912387,0.035581578,1.661216365,3.955697663,0
0.00502257,0.304665741,3.526639034,14.29162009,11.62637907,0.014778499,0.15227719,0.475888739,0
0.002988379,0.304371499,3.514157161,14.18720644,11.65025608,0.073184578,2.036189469,3.65323452,0
-0.002978472,0.305405208,3.489592648,14.14935081,11.71705693,0.083096999,-0.095591852,-0.771124333,0
-0.00109416,0.317447534,3.337712106,12.8634275,11.72013016,0.055542297,-0.197934391,-1.285982857,0
0.004364443,0.313857869,3.437749687,13.40265862,11.61477786,0.080500327,0.100712855,-0.916406891,0
0.001687225,0.311345526,3.51282317,13.84651102,11.51029358,0.050187149,0.663372615,-0.466246996,0
-0.002073604,0.314030147,3.483785453,13.73977493,11.45891925,0.026784628,-0.138084421,-0.207932316,0
0.000618373,0.299536836,3.644624535,15.23859332,11.39910475,0.052485927,-0.068278801,-1.240223873,0
0.002191105,0.284210117,3.833739735,17.02489182,11.30987887,0.050505694,0.162035335,-1.091454217,0
-0.000520261,0.2873729,3.808848263,16.78515957,11.22753721,0.045362294,-0.04561929,-1.075410333,0
0.004062921,0.300817081,3.64118421,15.09279462,11.1915378,0.030567321,0.290081126,-0.161626239,0
0.002532676,0.288674556,3.755148593,16.40730701,11.14663942,0.055584142,0.393305175,-1.029829867,0
-0.003879482,0.289742307,3.71177265,16.1013127,11.08410781,0.026727278,-0.058538155,0.202404934,0
0.00102679,0.311737708,3.490580601,13.81964519,11.10785288,0.075042833,2.026543196,4.155047312,0
0.001514165,0.314388268,3.443180749,13.61354402,11.22831001,0.117905297,0.232813867,-1.129591513,0
-0.000808273,0.317434374,3.376007002,13.09549793,11.25931805,0.084812546,0.64194911,-0.538528583,0
0.000479135,0.313194211,3.441501264,13.48957085,11.1448682,0.080225373,0.090186464,-0.959169126,0
0.002500011,0.301298339,3.631848936,15.02834449,11.01527732,0.077088858,0.301523127,-1.045712599,0
0.001574589,0.291888183,3.759656242,16.30088235,10.90878051,0.048900825,0.201703053,-1.037230558,0
-0.000395737,0.278218814,3.897521162,17.95720397,10.83358846,0.040944699,0.051992567,-1.007221689,0
0.000553462,0.277818978,3.882874172,17.85888541,10.75893102,0.045712262,-0.072841643,-1.309348292,0
0.003367081,0.290554149,3.706722476,16.07649309,10.68895454,0.036713597,0.205286494,-0.976380299,0
0.000707284,0.290208501,3.70371565,16.07765808,10.62746925,0.036741633,0.109091742,-1.106946833,0
-0.000846634,0.287661158,3.702969169,16.14207606,9.378278569,2.099041324,-1.156894341,-0.630912432,0
0.002390102,0.300172161,3.564531334,14.77291329,6.791131483,2.191290499,1.138334143,-0.657584783,0
0.000379676,0.291655616,3.681460435,16.05775697,5.423326111,0.05971504,0.773723482,0.967187782,0
0.000267131,0.292686191,3.651619648,15.854609,5.449701745,0.042150801,-0.597601916,0.40406639,0
0.001723611,0.315467252,3.416026247,13.31402802,5.499623653,0.084534321,0.546553568,-0.475925957,0
-0.001419035,0.315030432,3.456608963,13.5188762,5.596158164,0.142588176,0.297346143,-0.23797852,0
0.005036532,0.31547067,3.470492572,13.56087644,5.922428567,0.299529509,0.205516162,-1.146607392,0
0.002436061,0.319119803,3.370079177,12.95665226,7.089122881,1.738475243,1.350394189,-0.063471841,0
-0.005242839,0.34374116,3.055718722,10.72642784,9.233995547,1.922672261,-0.965374078,-1.010443559,0
0.001954546,0.346790318,2.988960892,10.33519207,9.935611452,1.298365735,-2.24733211,3.108780552,0
0.002026533,0.322370334,3.260913855,12.30460582,7.656790161,2.116024625,0.481767271,-1.71071429,0
0.000358259,0.303421502,3.50121071,14.31242434,6.029847227,0.226398077,-0.059655523,-1.117210141,0
0.000648004,0.305913285,3.501942196,14.31275253,6.715363693,1.342933656,1.702086268,1.327023072,0
0.000266628,0.317924171,3.425579264,13.33704273,6.418235888,1.487413488,1.659000302,1.126916233,0
0.005303329,0.300370443,3.636588851,15.13979326,5.543515342,0.021778708,0.222696964,0.995951277,0
0.000586912,0.289083856,3.780081166,16.59546719,5.521050862,0.019797604,0.475577053,-0.089170796,0
-0.003379512,0.29160459,3.759694675,16.41307002,5.519077737,0.020787358,0.378163753,-0.865862619,0
0.002068732,0.302303184,3.619333172,14.92990072,5.514027023,0.038137847,-0.276329547,-0.814788308,0
0.001320609,0.291474689,3.750261397,16.28211055,5.467441395,0.047219177,1.012763792,0.166135625,0
0.000473537,0.291837534,3.758656069,16.34869855,5.425382669,0.015654772,-0.431802049,10.12432835,0
0.001704038,0.289608885,3.758489408,16.40955748,5.414688274,0.014718234,0.458741753,0.224200128,0
0.001593881,0.27592052,3.911652624,18.12725176,5.438077545,0.030923448,0.090055984,-1.317250047,0
0.000823798,0.291210969,3.710149144,16.10290477,5.463535418,0.015867206,-0.384120759,0.931620312,0
0.000930045,0.292117334,3.701188187,16.04056043,5.441318403,0.039924495,-0.797490616,-0.653071285,0
0.000660599,0.281761413,3.8441895,17.54790739,5.689292635,0.391421504,1.122628766,-0.412716507,0
0.001264919,0.295576258,3.640968792,15.55119649,5.730807277,0.36287223,1.216876766,-0.274184803,0
3.74E-05,0.293828786,3.684454128,15.88655189,5.503119877,0.039575977,4.253767655,29.54224407,0
-0.000598009,0.295251867,3.716687894,16.03456894,5.716801398,0.683337571,3.710586848,14.23140824,0
0.002957212,0.304966797,3.580634928,14.68077644,5.627601515,0.715243616,3.544751088,13.07146738,0
0.001418086,0.288408763,3.779852193,16.60395692,5.34124794,0.020917973,0.210382026,-0.73917025,0
0.000738033,0.2890905,3.778069391,16.52985283,5.358365904,0.014593446,0.192202907,0.221393562,0
0.001489694,0.30396246,3.607495113,14.87795101,5.378957421,0.026589954,0.7119766,0.118884722,0
-5.75E-06,0.291186238,3.750923572,16.34772123,5.401198305,0.025846144,0.407260065,-0.821129309,0
0.000925526,0.289112935,3.745956394,16.32735208,5.40645474,0.022168534,-0.002881336,-0.305656906,0
0.00157884,0.300974537,3.626759407,15.02171051,5.421577726,0.018076093,-0.020166492,-0.347721164,0
0.001006943,0.308199503,3.486698637,14.09830868,5.769077465,0.483176402,0.880352513,-1.067412093,0
-0.002413239,0.315416506,3.36243247,13.27440107,6.06109145,0.510697755,-0.189363359,-1.712595904,0
0.001285963,0.31532952,3.376767707,13.16444572,5.735899299,0.475462442,1.027619005,-0.622413274,0
0.003490455,0.303461954,3.543703778,14.54760459,5.474274772,0.099891635,1.250504383,1.798554432,0
0.002855556,0.305498873,3.607017033,14.76049598,5.420542908,0.083770902,0.152676374,-1.401799619,0
0.003146399,0.309470764,3.56572703,14.29074383,5.336007581,0.025849219,0.849224941,-0.252696667,0
-0.002168682,0.299180628,3.671134503,15.45704832,5.331999915,0.014467447,-0.074562761,-0.016290695,0
0.000345821,0.309401294,3.548321109,14.21300949,5.37997006,0.063915408,1.612465542,1.900853871,0
0.000174473,0.311451058,3.524785883,14.06242932,5.428582927,0.053377775,0.837853255,0.319859408,0
-0.001407283,0.302251852,3.631679979,15.20535475,5.402940478,0.04126632,0.809726558,-0.362933561,0
0.001588067,0.3016157,3.606695158,15.04708063,5.389021029,0.02274645,0.127635895,-0.795707283,0
0.002506753,0.303010126,3.609489083,14.90235528,5.433379419,0.055016468,2.139253977,3.953571643,0
0.000747352,0.302537281,3.640560989,15.08860057,5.449200821,0.05591188,1.564018737,1.771421656,0
0.003568582,0.312679723,3.573713028,14.1655399,5.482673917,0.058862063,0.004009938,-1.472715511,0
-2.26E-05,0.301840846,3.686259825,15.36336164,5.479790497,0.054551613,0.414122701,-1.467281521,0
-0.00244727,0.289367569,3.78261499,16.64234595,5.427433014,0.011427687,0.178059225,2.193241347,0
0.002553157,0.288561232,3.80559779,16.79773311,5.423524366,0.011613776,0.299397525,1.717823597,0
-0.000943719,0.289970283,3.785144293,16.67790044,5.431195504,0.013876409,0.209102281,0.615255471,0
0.000436327,0.290249275,3.787458391,16.65851048,5.459252984,0.053264603,2.141233798,3.396413088,0
0.002051115,0.289735196,3.777463065,16.54094546,5.487307794,0.053331735,0.994634725,0.312541936,0
0.004303547,0.30101621,3.64333324,15.07438487,5.483131136,0.027595856,0.724261792,1.955021209,0
0.000893509,0.29130961,3.749305564,16.40992139,5.450052697,0.033463076,-0.819250201,-0.082062902,0
-0.00234479,0.292726373,3.72711254,16.27897422,5.412807792,0.027182842,0.681754889,-0.978837931,0
0.001889675,0.288823379,3.748472099,16.4571589,5.407017572,0.013474715,0.263864495,0.140818302,0
0.000777525,0.288372334,3.743077921,16.44619817,5.434738159,0.022215853,0.167759858,-1.102149379,0
-0.001152034,0.304174211,3.592028448,14.85935595,5.461309923,0.016426321,0.357920102,-0.440684095,0
0.003469195,0.302873315,3.631782985,15.1339007,5.481433923,0.018562131,-0.496064371,-0.472892333,0
0.00656097,0.300385625,3.684725017,15.41115102,5.504506629,0.020324906,1.026418878,0.770708047,0
-0.001965598,0.290186613,3.762978772,16.49062903,5.527125113,0.021989961,-0.328499399,-0.587303051,0
-0.002495636,0.293067354,3.698612238,16.0749627,5.546424702,0.014272113,0.193073406,1.280091654,0
0.000842298,0.306292179,3.573597083,14.66778121,5.562670353,0.018082233,0.704643928,-0.166643241,0
0.001112385,0.302167682,3.623914103,15.04298038,5.579070772,0.018591648,-0.011660277,-0.152542175,0
0.000681309,0.288287072,3.786183302,16.68287685,5.612348012,0.029326816,-0.096474462,-1.371659932,0
4.48E-05,0.291482112,3.746180041,16.34026876,5.650220544,0.017543397,0.277935246,0.59684589,0
0.002326963,0.290362972,3.738560229,16.34250665,5.676201466,0.019711219,0.264762531,-0.577823245,0
0.000779421,0.290523585,3.723060861,16.32388465,5.702287892,0.016935973,-0.284906489,-0.51172101,0
-0.000747142,0.291431047,3.713092647,16.25656997,5.728461184,0.020667146,1.160474196,2.188651791,0
0.001411671,0.305116379,3.601192011,14.82873868,5.778417151,0.052669622,1.624957444,3.493359279,0
0.001822625,0.3073451,3.594994096,14.72514333,5.917671967,0.15463102,1.382139511,2.047774577,0
0.0004182,0.296032317,3.687169096,15.84551712,5.981594086,0.128786471,1.314368362,3.171748814,0
0.000386523,0.307879476,3.528722239,14.32982639,5.918929509,0.062408288,1.065545812,1.478226844,0
0.001678286,0.305628188,3.561407367,14.63250244,5.918462372,0.030154897,-0.137267265,-0.722806232,0
0.001337376,0.292542563,3.740362508,16.33129147,5.956330109,0.021006069,-0.297786927,-0.671191503,0
0.000654922,0.29123758,3.721528199,16.26973871,5.999349649,0.032047174,0.434444279,-0.908109152,0
0.002420164,0.301787824,3.597182206,14.91257264,6.064420101,0.042873672,0.1122102,-1.264127418,0
0.000330852,0.291287576,3.757918033,16.44430053,6.143337849,0.047130837,-0.042232421,-1.285278242,0
-4.28E-05,0.292814016,3.713800975,16.18456509,6.198092651,0.021390107,-0.693876709,0.323955824,0
0.001481068,0.290241666,3.712341516,16.24405085,6.230198669,0.02665356,0.730559334,-0.624483128,0
0.001206031,0.289780652,3.742988091,16.39884793,6.29086707,0.048977138,0.088244967,-1.172212547,0
-5.68E-06,0.290656435,3.714128497,16.21756562,6.371057674,0.048532936,0.143443828,-0.825012865,0
0.000711973,0.2924299,3.662638592,15.92473013,6.44588683,0.044640834,-0.310483131,-1.073645374,0
0.005356077,0.303389039,3.571744721,14.74036594,6.519472667,0.046543754,0.850629744,1.081971227,0
0.001143526,0.290874876,3.729298146,16.25027101,6.594004004,0.046950737,0.002575303,-1.360134042,0
-0.002966734,0.29341938,3.718483847,16.14952883,6.65784814,0.031628204,-0.422930357,-1.047836905,0
0.000547786,0.303880131,3.635860477,15.06946076,6.698164804,0.017483286,-0.096710843,1.019403867,0
0.003120993,0.301628432,3.65001841,15.18823127,6.735087204,0.027164493,0.248026502,-0.515134641,0
0.002829888,0.301016127,3.637490101,15.14053457,6.785357012,0.031776955,0.030286227,-0.99079733,0
-0.001726416,0.290067762,3.784632436,16.63713896,6.835080773,0.026748286,-0.339653836,-0.530226462,0
0.000357991,0.29123606,3.76314094,16.47198258,6.873674665,0.019219141,-0.606292014,6.653441236,0
0.00210143,0.290981126,3.742502146,16.35752213,6.901295635,0.016685193,-0.908472443,18.48247196,0
0.000209885,0.27747891,3.905115168,18.14940814,6.928170231,0.020362523,-0.280260662,5.264460994,0
0.00131456,0.29044236,3.735248548,16.32038046,6.964909254,0.026664996,0.162069937,-0.775548989,0
1.78E-05,0.291289966,3.755605858,16.43629851,6.99318815,0.014940973,-0.523311011,0.499083583,0
0.002758961,0.295528415,3.685578321,15.89709452,7.08180166,0.181437696,3.019226688,8.355182653,0
0.001170554,0.324135761,3.296060694,12.41792339,7.455456053,0.414877444,0.406658379,-1.499846144,0
-0.001939571,0.336553722,3.11847708,10.87502112,7.505699267,0.347720593,0.712776454,-1.169497798,0
-0.00037929,0.332441353,3.182492697,11.39876485,7.213073948,0.066374775,1.133334979,0.494002352,0
-0.000638338,0.314181335,3.451259839,13.66815239,7.151109859,0.014547565,-0.288839915,0.230488925,0
0.001184849,0.300754643,3.622220776,15.05472512,7.211557116,0.078833102,0.374173509,-1.547742643,0
0.00390715,0.297491169,3.714322925,15.64153468,7.491645595,0.303287665,0.863033168,-1.154464264,0
0.002002899,0.288972836,3.829515012,16.86050214,7.827852358,0.252206152,-1.427734531,0.071390008,0
-0.000963017,0.280064369,3.912473928,17.95902706,7.941387394,0.019295672,-0.040422002,-0.257225797,0
3.52E-05,0.274466949,3.997957883,18.75158786,7.90979745,0.022309885,0.241977652,-0.830336111,0
0.001123228,0.288099393,3.816519626,16.78007439,7.900417546,0.018336844,0.721261073,-0.188327374,0
0.00536484,0.299527856,3.703195145,15.44266613,7.906457955,0.016755456,0.380371628,-0.515697146,0
0.000194818,0.289153487,3.836833422,16.92870513,7.906951959,0.010976266,-0.129213945,0.780257102,0
-0.002012015,0.293513938,3.768198063,16.29589759,7.919262259,0.026365278,3.121215501,9.984765601,0
0.00065417,0.292181975,3.756706261,16.07896773,7.963291659,0.043765533,0.00423964,-1.386401146,0
-0.000102977,0.292835553,3.762513473,16.15975571,7.98396225,0.02724126,-0.276872781,-0.419832317,0
0.002669527,0.306080985,3.654156198,14.94986983,7.95656444,0.025033329,1.047419529,-0.263671722,0
0.00044938,0.291854426,3.836921133,16.68588486,7.93127,0.01432924,0.24511483,-0.607650421,0
0.000267412,0.289886766,3.849359996,16.78076946,7.913821084,0.009504815,0.143576097,0.657043432,0
0.001062064,0.289040852,3.862539537,16.88196647,7.898977116,0.012110994,0.242114548,-0.173135477,0
0.001102118,0.290286666,3.882204109,16.98443516,7.874625397,0.01786632,-0.10704493,-0.643898009,0
0.000674528,0.289987167,3.895788896,17.06356608,7.86099472,0.009614012,0.092759611,2.710216995,0
0.001462745,0.288542336,3.885492242,17.00757227,7.852651651,0.01303465,0.04047805,-0.07717469,0
0.001087987,0.290647991,3.8638795,16.7628002,7.831579535,0.01829333,-0.776628657,-0.209098632,0
-0.000624135,0.279188587,4.040203234,18.55640698,7.808977454,0.019022855,0.572867935,-0.570228569,0
0.002902562,0.289863191,3.877155816,16.92057522,7.783572824,0.017286964,-0.314780884,7.054974067,0
0.003942411,0.300594097,3.729495128,15.39250575,7.767503793,0.008932175,-2.931572669,86.98094392,0
-0.000817265,0.28950303,3.890261499,16.93374928,7.754236603,0.015460977,-0.349214791,-0.502091266,0
-0.000143535,0.29040167,3.882561692,16.88148764,7.736166273,0.014380314,0.280396511,0.576402738,0
0.001050528,0.29000826,3.895506297,16.91482207,7.716639056,0.017054238,0.172887843,-0.913869104,0
0.000891639,0.289397956,3.888782629,16.89722972,7.706978171,0.010770249,0.313877538,0.226446227,0
-0.000194465,0.290560416,3.876987732,16.83207494,7.714065661,0.010999821,0.160610051,0.718148748,0
0.00036438,0.29192715,3.879227011,16.80718033,7.68860321,0.074508786,-2.866338806,6.839865805,0
0.002386969,0.291629288,3.894400959,16.91095937,7.674915423,0.07003711,-2.908647956,7.070385609,0
-0.000162428,0.289676787,3.933659233,17.23769207,7.687185669,0.008258098,0.789581104,4.868454517,0
0.000446221,0.299863931,3.774227902,15.67668919,7.681958662,0.006768053,1.219731292,12.44635375,0
0.001962145,0.291901119,3.883273174,16.73722758,7.674942725,0.008319272,0.636836802,3.540466749,0
0.001056963,0.289785001,3.934074011,17.20844571,7.674863924,0.00864402,0.571039696,2.410181712,0
0.000964881,0.29876665,3.801998849,15.9234039,7.670120512,0.012518801,0.170022145,-0.265686789,0
0.001284361,0.301537305,3.757000499,15.48560689,7.657426998,0.008235527,0.553179359,3.67358666,0
0.002355874,0.300138318,3.7993893,15.74801069,7.65920748,0.009124822,0.309510045,2.02491627,0
0.000849426,0.291506894,3.890319092,16.86783158,7.66208943,0.007480627,0.897175098,4.979571855,0
-0.00063242,0.292722345,3.84691483,16.5688502,7.658801106,0.007297207,0.786114719,5.827767689,0
0.000940528,0.301260043,3.768306497,15.53736688,7.660630635,0.007985401,0.355093151,3.05723479,0
0.000422503,0.302301609,3.767776212,15.54108758,7.660404914,0.00819922,0.243929443,3.013746056,0
0.000333631,0.303879407,3.699958958,15.17088759,7.652249146,0.018493762,-0.395810549,0.035433551,0
0.000402008,0.30454486,3.624352704,14.77442467,7.684676743,0.054979888,0.826351072,-0.505814935,0
-0.001307007,0.32071337,3.4271311,13.12259343,7.765518733,0.058285047,-0.784820318,-1.052848224,0
-0.001081356,0.330162293,3.337103735,12.23612349,7.730696651,0.105487593,-0.822359918,-1.10260456,0
0.002513816,0.302445818,3.666452203,15.07971551,7.705483246,0.088212265,-0.883821233,-0.982821936,0
0.003422307,0.291697754,3.845079698,16.63271808,7.745665414,0.017436187,0.198990532,-0.802707402,0
0.001103537,0.290884527,3.855754368,16.75076734,7.735681207,0.010445267,0.565556144,0.519411793,0
-0.000112512,0.277569322,4.038783973,18.7129457,7.73461974,0.009572891,0.893861291,1.767820265,0
0.000848315,0.277659105,4.048009908,18.74746472,7.726610075,0.007587511,0.769827252,6.802940475,0
0.002379338,0.289368203,3.875699178,16.88606789,7.726754924,0.009423064,-0.275214004,17.76991675,0
0.00151302,0.288681706,3.883874422,16.93170393,7.736687143,0.010923102,-0.7928092,11.59441322,0
0.001031937,0.289972298,3.872761274,16.87402457,7.737224361,0.00931177,0.295449366,1.554056909,0
0.001177453,0.306949309,3.637790643,14.80640218,7.773134504,0.057779011,0.783535696,-1.0872697,0
0.000123805,0.308263081,3.600555735,14.60169631,7.743667712,0.126492109,-0.381836767,-1.498302908,0
8.57E-05,0.291192678,3.818107818,16.5749786,7.601479013,0.120362155,1.666703622,1.156045828,0
-0.000292354,0.275935781,4.039053014,18.77219812,7.524865014,0.01236448,0.388902034,12.15696058,0
0.000995616,0.290674625,3.878584277,16.95474667,7.513289152,0.011640668,0.202725693,0.708198841,0
0.006225619,0.301310062,3.754936059,15.53756662,7.529920142,0.081705052,2.707043102,5.782543619,0
0.004583032,0.315939225,3.504188135,13.62896536,7.68285784,0.159331964,-0.193719361,-1.841347824,0
-0.002835591,0.306266135,3.585926746,14.70104611,7.677234704,0.14506629,0.154823438,-1.876749654,0
-0.002083485,0.288401505,3.872763007,17.10592855,7.532727051,0.019606322,1.394465935,1.97781975,0
0.000829311,0.286726257,3.933965985,17.43317517,7.513778523,0.014025755,0.455172045,-0.282401933,0
0.001126981,0.273138975,4.114203206,19.35729303,7.491453007,0.014476692,0.039027463,-0.668016861,0
0.001194325,0.287066508,3.868530336,17.00482089,7.545574897,0.114716628,1.255093216,-0.289094215,0
0.001958732,0.317937822,3.452949458,13.35009241,7.693383408,0.124789837,-1.006679651,-0.841706759,0
0.000480711,0.320756027,3.42135614,13.14441908,7.747524425,0.036117407,-0.619302557,-0.478141521,0
-7.01E-05,0.305495465,3.583108263,14.56760251,7.711608233,0.03559797,-1.402630818,2.337549396,0
0.000982851,0.300147018,3.649060239,15.07255225,7.632276317,0.076919942,0.209251424,-1.769934779,0
-0.001704803,0.28462311,3.905490915,17.39507247,7.545510864,0.020394099,0.026336348,-0.678005186,0
0.00159343,0.285187821,3.953920984,17.67753812,7.504310117,0.028991154,-0.03913938,-1.36102605,0
0.003227626,0.285901217,3.939514708,17.53207747,7.465703038,0.017583755,0.75770904,0.076101808,0
0.003449491,0.286182311,3.895147423,17.1570025,7.462652479,0.018641833,0.620657249,-0.665945983,0
0.002319135,0.303475401,3.654950677,15.03819538,7.568493053,0.134118443,1.145517475,-0.234912187,0
-0.003363961,0.307977444,3.576659067,14.62886514,7.762822887,0.135665007,-0.861031341,-1.088674603,0
-0.00011894,0.320975382,3.392091175,13.0900456,7.871016748,0.017290081,-0.130679471,2.046683578,0
-0.000588128,0.316959355,3.430803947,13.37699026,7.868959536,0.031877767,-1.771452233,2.583906363,0
-0.000346429,0.31336132,3.472482959,13.63933504,7.836579132,0.046431141,-0.281425913,-1.473721182,0
0.00359935,0.314700833,3.473586227,13.6291602,7.811228725,0.036276685,0.577294534,-0.67985303,0
-0.000858745,0.304738923,3.611622575,14.94148029,7.79347229,0.025322509,0.960721037,0.007054962,0
0.00259246,0.316644287,3.452760444,13.47997253,7.826032094,0.049142684,0.115020758,-1.581954567,0
0.003041781,0.317999675,3.448852015,13.38651239,7.928607777,0.074279952,0.666413916,-1.008877171,0
-0.012586441,0.327845871,3.366032154,12.81098996,8.021310534,0.061592444,-1.001987321,-0.06309592,0
-0.000663757,0.338832018,3.150606748,11.25164613,8.145221274,0.11278584,0.583454917,-1.215717201,0
0.007449823,0.330336899,3.172035732,11.41903298,8.224508994,0.069179222,-0.308000899,-0.301998699,0
-0.001727613,0.341134999,3.134570203,10.86305777,8.19189246,0.03299982,-0.204583272,-0.532247166,0
0.002813128,0.319268815,3.368364142,12.98451676,8.156071745,0.022863929,0.694281605,-0.477427359,0
0.001604991,0.305733397,3.536734921,14.42087567,8.140653719,0.01076587,0.463452768,0.682651063,0
0.000661567,0.304852411,3.536885809,14.45044999,8.135157013,0.009578262,0.516910467,1.449566207,0
0.00281713,0.291068754,3.680969281,15.93794248,8.125556619,0.012692017,-0.04280962,0.7025662,0
0.001105401,0.291363948,3.719737544,16.08072133,8.114520536,0.031026219,1.555314757,5.504214837,0
-0.000597447,0.294259139,3.67126631,15.86204091,8.187140002,0.089161138,0.268487504,-1.035561478,0
0.000760744,0.296451858,3.610553687,15.49645872,8.207145963,0.067372468,0.79292924,-0.284569786,4
0.006284997,0.294481851,3.636350896,15.53716464,8.128231485,0.027794988,0.09277417,-0.963878728,4
0.001287715,0.282677882,3.681210503,16.59995469,8.10679839,0.012703562,0.52229527,0.472397131,4
-0.004918821,0.286852384,3.629338577,16.23663677,8.098341588,0.02333069,0.269202842,0.123702866,4
0.001423527,0.298853051,3.492992211,14.71090903,8.082205854,0.029001692,0.964964586,0.484047716,4
0.001777974,0.297629198,3.445743195,14.46472888,8.05484145,0.029097034,1.237958958,0.972596304,4
0.001309256,0.297314715,3.523696117,14.87121124,8.019266401,0.017912263,-0.27687691,-0.992038553,4
0.004291587,0.296305973,3.579801859,15.21824719,8.00403535,0.012570137,0.138071991,0.015505231,4
0.000617752,0.297492048,3.516817381,14.87937249,7.994750977,0.014671744,0.243824839,-0.335921545,4
-0.000769514,0.285030814,3.611884947,16.20645898,7.972229004,0.017008324,0.355922031,-0.155276219,4
0.000862669,0.296997756,3.515364157,14.85554275,7.951448604,0.013010517,-0.415274488,0.231960201,4
0.000300241,0.29716575,3.533107598,14.95646672,7.935167367,0.015796772,-0.073063662,2.444289927,4
0.002086075,0.285374794,3.652149814,16.45283227,7.920458439,0.011869626,0.188536185,6.988991298,4
0.000687221,0.298866664,3.500999282,14.77124384,7.903437587,0.014881985,0.042258721,-0.48906497,4
0.000940358,0.310203355,3.406032563,13.57868499,7.882931846,0.012905284,0.373686141,0.19084811,4
0.001459985,0.296480308,3.536738703,14.99725427,7.878676551,0.009035282,0.197665764,1.506893263,4
0.001443571,0.283837994,3.678799249,16.61894706,7.873933084,0.012000495,0.124129156,0.317106831,4
0.000711875,0.297375156,3.554616554,15.10401809,7.858004761,0.011814686,-0.125050205,1.638715231,4
8.96E-05,0.309866071,3.411119857,13.69316749,7.839596394,0.016310448,0.022370955,-0.757575165,4
0.000945249,0.310632475,3.408072514,13.70450031,7.830265045,0.01106828,0.149531888,0.455546312,4
0.005435002,0.309437027,3.383830354,13.57120935,7.821626609,0.014154321,0.374368193,-0.538795363,4
0.003184047,0.310211714,3.353789654,13.37985315,7.807298388,0.010501466,-0.985119129,10.28203129,4
-0.001463019,0.298617903,3.508806377,14.88101483,7.792244611,0.015333784,0.321490086,0.444564064,4
-3.52E-05,0.283624539,3.713098483,16.82920947,7.771139581,0.014026125,-0.497964505,-0.084261456,4
5.78E-05,0.283453886,3.706113204,16.76987001,7.757820838,0.011929733,0.735570437,1.023201742,4
0.000819704,0.29637111,3.568085244,15.19509118,7.741860144,0.015290529,-0.073165662,-0.678146668,4
0.001742589,0.295306523,3.591419468,15.31847928,7.722162955,0.012586985,0.39964258,0.273422408,4
0.00110032,0.296861056,3.529315422,14.9731649,7.715279007,0.009700649,0.072772813,1.642023769,4
-0.000427747,0.299084747,3.493860029,14.76891333,7.707834898,0.0134248,-0.07482495,0.062062828,4
0.002446753,0.285662531,3.629259003,16.33035684,7.691618674,0.01213613,0.380245587,2.034373945,4
0.00195913,0.29686031,3.495845995,14.77996824,7.685793413,0.008254541,0.184851471,10.01874091,4
0.000102382,0.296107588,3.534386928,14.99362225,7.686503111,0.009061165,0.543534663,2.074575072,4
0.000584708,0.297526747,3.582122425,15.25859913,7.676924896,0.013920734,-0.221839906,0.191150291,4
0.002729861,0.302350457,3.53618481,14.69764181,7.664910998,0.011053276,0.607692791,0.790369661,4
0.001701109,0.295780093,3.566024883,15.18203008,7.660705021,0.006960592,0.730558662,4.10202971,4
-0.000711652,0.304581226,3.496300145,14.41051846,7.654448645,0.011179054,-0.562052004,1.265716135,4
-7.76E-05,0.297456267,3.602938754,15.39406939,7.647691127,0.010024693,0.052879715,1.296785512,4
0.004206194,0.294754367,3.646113639,15.65254243,7.634736088,0.015590522,-0.278161315,-0.724085423,4
0.000665608,0.295475655,3.654773152,15.68457171,7.622563825,0.009869182,0.357361545,1.080814633,4
-0.000755755,0.296751983,3.619006338,15.49138447,7.617994417,0.008958212,0.215656368,2.261417785,4
0.002502045,0.297193346,3.599452632,15.39412584,7.607535389,0.009967013,0.153708821,0.530332845,4
-0.001004131,0.296828714,3.605566186,15.41539411,7.600498417,0.008002507,0.341946167,1.749170644,4
-6.74E-05,0.308923478,3.484211547,14.08020211,7.592356491,0.010661474,0.20964381,0.306801933,4
0.000142109,0.29555518,3.592329729,15.27136895,7.60904808,0.027936206,0.40887063,-1.292982676,4
0.004532985,0.29603201,3.571395145,15.14904331,7.615284729,0.024438462,0.156073108,-1.022864475,4
0.003755774,0.29775013,3.581012975,15.17700879,7.612900489,0.0219372,0.123079942,-0.940301679,4
-0.001690704,0.286118102,3.673600185,16.4329614,7.627774484,0.013489951,-0.140936565,-0.055203247,4
-0.001238774,0.299870662,3.49507247,14.72915047,7.619480624,0.011082705,0.569210477,0.623076149,4
0.00192521,0.299291546,3.536550144,14.88490522,7.611354283,0.007066181,0.889212829,8.005083297,4
0.002104412,0.285076788,3.714880962,16.7728618,7.613521903,0.008327236,0.931733088,4.68487004,4
0.000672703,0.310119371,3.409585994,13.67951458,7.60743272,0.013002512,-0.154880557,0.544291493,4
0.000887891,0.322988235,3.279752494,12.38477215,7.603279877,0.012322809,0.289362095,2.067411062,4
0.000548819,0.297870466,3.538450519,15.02486061,7.602670997,0.010810437,0.814939793,5.7786589,4
0.00082746,0.298753957,3.573162095,15.20525854,7.599888175,0.007563808,0.512108835,12.49826766,4
0.000906039,0.310872703,3.442407994,13.81118774,7.595130648,0.010379621,0.337991581,1.478374193,4
0.003241908,0.307940297,3.439021614,13.71704879,7.609976741,0.029242171,0.688203601,-1.068649826,4
0.003031063,0.322262487,3.316055021,12.52423071,7.633451898,0.020333272,-0.569540505,0.080051966,4
-0.001737187,0.327163937,3.287610013,12.36503983,7.629067176,0.01144405,-0.078919447,19.06043627,4
-0.00149042,0.315253764,3.3748761,13.34472775,7.6222132,0.007877711,-2.203038796,68.95456076,4
0.006682892,0.310306335,3.456721555,13.83648262,7.621324594,0.009745254,0.407999058,1.106073588,4
0.002884971,0.297632128,3.623420977,15.39080057,7.63016292,0.013929938,-0.130844777,-0.295680961,4
-0.004636335,0.288194622,3.696353785,16.5571688,7.639285224,0.009113077,0.484632238,1.611537281,4
0.000254196,0.287055551,3.716992552,16.68728954,7.636681529,0.00835761,0.909633638,2.77891293,4
0.002231637,0.298908784,3.565617219,15.06258429,7.638570622,0.009944724,1.265538103,3.158516738,4
0.000831175,0.299130034,3.557230772,15.02309381,7.656711687,0.016824602,0.025573992,-1.091918818,4
0.001018884,0.286266021,3.701565131,16.62938573,7.671619633,0.008386396,-0.025316797,3.008202485,4
0.001789117,0.298280132,3.596105332,15.1904671,7.674664579,0.008240917,-4.231499378,163.2062988,4
0.000242131,0.298257175,3.613917952,15.30056628,7.667626136,0.015642598,-1.197368864,11.24097678,4
0.000308938,0.299457133,3.602409887,15.25925735,7.648503222,0.016133926,0.891419565,0.338648085,4
0.004921653,0.311115865,3.463694196,13.85319737,7.640783364,0.00874881,0.890304266,3.271564929,4
0.002422054,0.324082456,3.321427962,12.6064253,7.639797102,0.011219406,0.342167553,0.625544519,4
-0.002006254,0.323053339,3.350548107,12.75051939,7.633869444,0.009933315,0.867054817,2.233983729,4
-0.00018013,0.309258014,3.522265191,14.19378499,7.621227755,0.013970052,-0.383499318,-0.320162022,4
0.00072086,0.296849012,3.672204457,15.67999788,7.618710436,0.012752829,-0.455668139,3.295859528,4
0.000371671,0.296745671,3.63631034,15.50497258,7.63217659,0.010178353,-0.307794837,12.08615913,4
0.002188686,0.310037216,3.489747052,13.97213877,7.650062779,0.017057892,0.664337093,-0.322423426,4
0.00075718,0.312275813,3.473986147,13.84820363,7.653118188,0.0171855,0.176952046,-0.541947243,4
-0.000855717,0.31271982,3.491526117,13.99993556,7.640207073,0.012038593,0.875251998,0.583167645,4
0.000737228,0.296943817,3.654079527,15.54712082,7.642802865,0.010068487,0.593512273,1.304876441,4
0.001686643,0.30009315,3.535150094,14.79828044,7.649018642,0.007637116,0.950269906,4.154270476,4
0.002071675,0.315225918,3.399793909,13.44143894,7.642500741,0.01131262,-0.179286905,0.135485543,0
0.000963337,0.300369935,3.567287525,15.06138316,7.641933659,0.011664495,0.087204389,0.031679402,0
0.00448048,0.310520994,3.452332637,13.80512861,7.652455194,0.009632137,0.396029396,1.833686345,0
0.000680302,0.321936396,3.296975691,12.47685502,7.734989657,0.104746362,0.690563741,-1.332270101,0
-0.002391377,0.323467046,3.292436978,12.46164244,7.803677641,0.074180376,-0.500424755,-0.291336235,0
-0.000143646,0.334368247,3.213647141,11.6510213,7.789189584,0.025706128,1.262949134,1.538017408,0
-0.000545059,0.332678328,3.187073733,11.58156498,7.775655147,0.015853509,0.636353756,0.410577068,0
0.001555416,0.328986709,3.267097486,12.03568127,7.792376328,0.028433286,0.058278581,-1.437087091,0
0.001187557,0.302372357,3.599683168,14.91662706,7.799960654,0.020924,-0.041040093,2.913215463,0
0.001677586,0.286778507,3.747093084,16.39407014,7.807218443,0.037352391,1.103088864,2.140043184,0
-6.69E-05,0.287424096,3.790547694,16.68120559,7.840423965,0.030863784,-0.262935392,2.783045896,0
0.002138194,0.277460429,4.00845311,18.70679609,7.851395634,0.016724833,0.26493235,0.324525068,0
0.001255018,0.290567108,3.778265933,16.41135131,7.878139986,0.028652211,0.006296277,-1.294457906,0
-0.001281601,0.29322395,3.764343501,16.24849087,7.886260605,0.019856175,0.470437079,-0.732853105,0
0.001361343,0.293764127,3.80702052,16.49883188,7.867550932,0.009758812,0.324113499,1.104033539,0
0.00225482,0.304237536,3.663702332,15.04598566,7.87189609,0.01124607,-0.205697931,-0.059332753,0
0.001310564,0.302528251,3.663260136,15.04425532,7.887845993,0.013436281,0.756056043,0.567072239,0
-0.000870686,0.291608524,3.796167236,16.49632981,7.896297836,0.010236936,0.637234658,2.287819238,0
0.001933535,0.293520113,3.757902851,16.24715041,7.884367752,0.014036803,0.106127798,-0.443818616,0
0.001773808,0.292669246,3.739269071,16.07695921,7.880595234,0.012247654,0.451675484,0.029636837,0
3.91E-05,0.293154822,3.755998444,16.14987354,7.892250824,0.009992911,-0.033941095,1.642805656,0
0.00041735,0.293220163,3.794277169,16.40588658,7.888962119,0.01048305,0.274647133,1.364441323,0
0.002090476,0.291013981,3.808111247,16.48380559,7.88434361,0.008336835,0.37218226,2.636749313,0
0.000775877,0.290094747,3.801805405,16.43884745,7.894012669,0.016073119,0.869710423,0.059711764,0
-0.000352825,0.291651956,3.811592477,16.52020987,7.909921864,0.017213299,-0.583549073,-0.309412642,0
0.001255266,0.292486416,3.825704334,16.59476534,7.913709423,0.009343222,0.764516253,3.0618146,0
0.00199736,0.291907375,3.823547435,16.51332167,7.901059777,0.011176584,-0.027221816,0.515121145,0
0.005897448,0.302852568,3.697775677,15.10162283,7.89386504,0.009453197,0.942685607,5.495037377,0
0.001970869,0.291601043,3.809546284,16.41881909,7.886596189,0.011297559,0.559617879,2.54940698,0
-0.002827763,0.280437458,3.953054617,18.02089298,7.875557818,0.009792019,0.115022894,1.38659045,0
0.00095706,0.293133897,3.837678891,16.56084296,7.870591518,0.012015703,0.035399977,0.681494434,0
0.000269884,0.292971829,3.814372127,16.38906826,7.873429871,0.013526797,-0.310122074,0.803248338,0
0.000105861,0.292273489,3.816664265,16.3628354,7.87611569,0.010898181,-0.264497105,2.759265817,0
0.001268234,0.292738253,3.817027321,16.39123855,7.871024867,0.00905234,0.720188342,1.900297002,0
0.001407846,0.293988432,3.800629856,16.27170907,7.867314257,0.008255675,-4.172823484,176.0135499,0
0.001489131,0.29857201,3.690120925,15.39517689,7.901935741,0.052496964,1.009232747,-0.472264558,0
0.000178554,0.29887319,3.628200053,15.22118628,7.956407765,0.044602027,-0.976504754,-0.400070857,0
0.003119744,0.322116703,3.382266859,12.87566855,7.976965931,0.014329455,0.540145722,0.335951673,0
-0.000417082,0.3087633,3.552750665,14.2840221,7.977371597,0.011717087,0.521032907,2.219019641,0
-0.001532854,0.278827458,3.958570492,18.19071187,7.959267099,0.020994728,-0.306256896,-1.086901836,0
0.005548063,0.289693921,3.859943416,16.77090494,7.944034467,0.011876155,0.301700935,0.841686416,0
0.001781087,0.29042499,3.84927158,16.73995276,7.949790573,0.011291537,0.446641264,0.492651981,0
-0.003409005,0.279413954,4.0208171,18.57863531,7.940172522,0.016490842,0.585275356,-0.640421709,0
0.002808655,0.2907497,3.902699232,17.03733225,7.938011714,0.016244776,0.626417409,-0.534757132,0
0.00205806,0.291645355,3.84891773,16.70577567,7.955074365,0.016344491,-0.318657474,0.051022204,0
-0.002983906,0.279805328,4.003577698,18.38559894,7.960798046,0.011902439,0.152728121,0.172955581,0
-0.000339137,0.29236624,3.874553277,16.82275327,7.955440521,0.009287029,0.663058584,1.173411564,0
0.003976763,0.304419424,3.718533208,15.26506709,7.953183746,0.007365595,0.553985176,3.021376873,0
0.001377842,0.292863995,3.835098636,16.54637232,7.949083001,0.010056277,0.186679014,1.006352542,0
-0.000393003,0.293346812,3.813518575,16.42412383,7.957246998,0.021452404,0.937808476,-0.021451559,0
0.00252592,0.306208035,3.682434156,15.0434901,8.009357507,0.063056778,1.352238192,0.569875616,0
-0.003027172,0.324130893,3.437776436,13.17923132,8.129746955,0.097412042,-0.484250397,-1.420510455,0
-0.004006799,0.323587373,3.405662977,13.04116789,8.240930721,0.045701652,1.408076822,1.761884018,0
-0.002073303,0.309006626,3.593248624,14.57649253,8.346135439,0.094996762,0.482489127,-0.228491859,0
0.002748119,0.332961634,3.337989709,12.23690462,8.458600398,0.058354555,-0.185961064,0.513404512,0
0.000811916,0.334307463,3.277645799,12.00651698,8.533482688,0.076909128,1.379186591,2.792680497,0
-0.003594321,0.307905313,3.585652667,14.69121065,8.593024935,0.069717143,-0.221969343,2.678734706,0
0.001829675,0.287566421,3.952099839,17.44634585,8.620314462,0.020765223,-0.105826118,-0.959907628,0
0.003493724,0.285314423,3.948218476,17.4081687,8.61421972,0.017368408,0.414850377,-0.715471108,0
0.0020224,0.28592958,3.908005996,17.15345935,8.592261887,0.014430764,-0.466832698,1.973233012,0
-0.000316472,0.27347037,4.082183598,19.00532018,8.5757661,0.016029129,-0.125994575,1.051968917,0
-0.001679371,0.274356869,4.047741513,18.73113844,8.566618456,0.026790754,1.444460111,1.918234638,0
-0.00319366,0.296130307,3.755041132,16.10709792,8.729594912,0.187808185,0.458575223,-1.439949234,0
0.001467898,0.310590499,3.569648609,14.43928618,8.951889692,0.119450467,-0.828630169,-0.305627758,0
0.002556453,0.288416252,3.797946969,16.49812194,8.9954519,0.05908149,-0.099125885,0.280235416,0
0.001144664,0.271469716,4.01617375,18.57742052,8.956394686,0.028137096,-0.092769287,-1.242067727,0
0.002291663,0.275839266,3.997736638,18.47429878,8.925987952,0.016235091,0.291354993,0.075271749,0
0.003412517,0.287534135,3.882009096,17.00849748,8.909225845,0.016760927,0.601289003,0.008520616,0
0.00096957,0.287593365,3.848605464,16.7932587,8.885973849,0.018575388,-0.324139362,-0.557832718,0
-0.001781217,0.276445438,3.951155624,18.15896002,8.86160965,0.01798504,0.836058116,0.195725637,0
-0.001519658,0.275108654,4.005989433,18.4706409,8.843059376,0.015225335,0.578100417,0.458603779,0
0.003649292,0.304022189,3.640354795,14.9061857,8.890195465,0.057756926,0.116977131,-1.679601557,0
0.002703016,0.323017127,3.364212644,12.76163151,8.931665748,0.025228473,0.089879658,-1.275499693,0
-0.001545848,0.307875092,3.49077987,13.9888605,8.884308624,0.041775975,-0.097820129,-1.085029648,0
0.001020159,0.286115249,3.797192221,16.59369942,8.823266111,0.03388978,0.50598094,-0.49365897,0
0.000619433,0.273731497,4.043238698,18.91281623,8.773626654,0.029327964,0.085402267,-0.708313801,0
0.002215295,0.274280595,4.056065798,18.93707275,8.734404973,0.021768881,0.269840101,-0.673632413,0
0.001821004,0.284887091,3.867624708,16.96235106,8.716620799,0.011373974,0.584499189,1.846839466,0
0.001776358,0.300468645,3.662380168,15.09807623,8.799864796,0.125924259,1.1124796,-0.413180131,0
0.002990413,0.304005819,3.62868953,14.95890787,8.929647773,0.103239123,-0.957332549,-0.324806452,0
0.001645902,0.289097756,3.76911951,16.49474068,8.943362318,0.035142373,0.235255939,-0.966884345,0
-0.001700899,0.298827186,3.583410951,14.87063728,8.910039575,0.016782414,-0.562383869,0.253930786,0
-0.001085011,0.326489106,3.30983201,12.28259497,8.956873322,0.06403451,1.128916107,1.253231192,0
0.001088797,0.330116344,3.321283002,12.27000364,9.097644315,0.103455918,-0.055578326,-1.536860211,0
-0.001342379,0.320184819,3.439740981,13.34346527,9.180302266,0.033124329,0.157485503,-0.429122211,0
-0.001449234,0.308413399,3.550406023,14.44038983,9.156518391,0.026390041,-1.359730275,2.585158463,0
0.00205375,0.306661409,3.521146948,14.25504865,9.139239175,0.022993797,-1.129761259,1.292367522,0
0.000182327,0.313429847,3.319293574,13.14343442,9.1461489,0.039419428,1.097812564,1.185237377,0
-0.000868953,0.325107264,3.230290475,12.11486593,9.193820245,0.058992914,-0.147784711,-0.953888884,0
0.000561977,0.331259287,3.286530793,11.91866795,9.194266837,0.055361134,-0.208653833,0.106840944,0
0.001410514,0.31470973,3.418712923,13.2849149,9.137585776,0.036660329,0.721826604,2.348084863,0
0.002165242,0.298352015,3.584269196,15.01995051,9.120210539,0.018165597,0.46227082,-0.264422696,0
0.000451741,0.298654518,3.679638203,15.54414619,9.101307569,0.028628797,0.287875793,-0.448374616,0
0.002129981,0.299055794,3.701170447,15.53409133,9.095944432,0.036583728,0.491700791,-0.964707459,0
0.001279051,0.28739085,3.777254953,16.67276402,9.10839713,0.035168126,-0.166166638,-1.045878692,0
-8.43E-05,0.274487128,3.859250338,18.04311697,9.086042731,0.027365906,0.615703589,-0.506942227,0
0.001671799,0.288284503,3.692254102,16.17436002,9.061863164,0.014505925,-0.165026244,0.339698084,0
0.001425607,0.28764589,3.727931552,16.44481531,9.047484589,0.019825451,0.314848628,-0.646976611,0
0.000560178,0.284895491,3.751495476,16.57381471,9.043470383,0.022821652,0.469627824,-0.680026953,0
0.000562389,0.285923515,3.705897849,16.2641232,9.048875427,0.021647438,0.123778726,-0.547578701,0
3.61E-05,0.290460128,3.675647801,16.09693152,9.03508982,0.018903444,0.450078868,2.153838052,0
0.001389888,0.29153606,3.681195932,16.10732534,9.007948739,0.017972019,-0.08520738,0.43702991,0
0.002768607,0.277431167,3.82142927,17.74488513,8.9921378,0.011368851,0.098451372,0.198916295,0
0.000196328,0.290490086,3.667373277,15.99496681,8.972260066,0.023527069,-0.140553865,-1.163612356,0
-0.001263173,0.291472261,3.679453184,16.03962616,8.942152732,0.018348523,0.750564131,0.268375336,0
0.00080915,0.293960902,3.666041688,15.90332468,8.910289219,0.027617118,-0.727361696,-0.386988794,0
0.00239619,0.306837373,3.488094215,14.21277655,8.879517147,0.020839784,0.713153134,-0.693647323,0
0.0030343,0.303737801,3.48249189,14.24561693,8.852526855,0.021561483,-0.412073781,-0.639253607,0
0.003740832,0.302870948,3.489235969,14.32939494,8.822656032,0.020643148,0.636531553,0.393046808,0
-0.0010328,0.291812213,3.639105674,15.83590875,8.798419843,0.015665033,0.603581533,0.321382409,0
-0.00131403,0.291991917,3.67370333,15.90023228,8.773883765,0.017068662,-0.056876442,-0.806139599,0
0.002685641,0.305998177,3.433687445,13.83071752,8.753491156,0.012331187,0.524077734,0.822887895,0
0.001380001,0.306748895,3.416836853,13.82301656,8.738381086,0.013625499,0.101325579,-0.075590184,0
-0.001352757,0.305333242,3.481882558,14.23449111,8.725358091,0.013924257,-0.531855369,2.794184511,0
1.38E-05,0.307045599,3.48538652,14.2152527,8.693095125,0.030097412,0.11771644,-1.220131028,0
0.006405199,0.305342515,3.478922683,14.14327025,8.662097222,0.008787265,-0.689278526,31.68008901,0
0.00267918,0.291885628,3.601169914,15.47468043,8.656203515,0.008337067,0.785574855,3.603263057,0
-0.003291733,0.294027023,3.655033286,15.72857254,8.659885679,0.016451852,1.354223472,1.518716389,0
0.000909583,0.320115655,3.421439115,13.18742181,8.695756367,0.044475868,1.44123061,2.590608307,0
0.003693924,0.332171474,3.262782246,11.85300382,8.755460794,0.047460655,0.133291341,-1.243677426,0
-0.000118947,0.332137348,3.222449816,11.63554715,8.806166404,0.031208432,-0.895544381,0.09028087,0
-0.001786102,0.332048486,3.23281492,11.75543718,8.813550568,0.024319132,-0.472832638,-0.519220834,0
3.39E-05,0.330430037,3.273310844,12.07758807,8.766236768,0.042916236,-0.082297254,-0.731910123,0
0.001802752,0.311833525,3.434939545,13.56053527,8.752561733,0.044336549,-0.102179133,-1.015395062,0
0.002045857,0.297610398,3.615940541,15.1073453,8.783380999,0.040471254,-0.972626382,2.053951179,0
0.000267027,0.301196611,3.626847283,15.08110332,8.786647633,0.021476181,2.465163805,10.03364161,0
-0.000967948,0.289341263,3.78003407,16.67476484,8.757296535,0.025185274,-0.016425847,-1.181210425,0
0.001234124,0.288429719,3.802997272,16.76680119,8.728791264,0.012864575,0.643586058,0.366838325,3
0.002596501,0.297262248,3.644551809,15.27128179,8.766128867,0.049550662,0.340904085,-1.626204098,3
0.002511076,0.291448628,3.687765832,15.9240964,8.806714303,0.024159823,-1.038968311,1.332451806,3
-0.000869025,0.291858462,3.703764809,16.14334537,8.784418651,0.023673955,-0.225481621,-0.808718872,3
-0.001406564,0.288168811,3.761849916,16.78333508,8.743850926,0.025347174,0.172691449,-0.934396647,3
0.003920033,0.277767427,3.858680046,17.84593909,8.699100549,0.02606267,0.034135991,-1.431152382,3
0.002216498,0.27557092,3.846584752,17.79827437,8.668834305,0.011630756,0.906314366,0.931058558,3
-7.79E-05,0.276915728,3.859048594,17.90191585,8.648193904,0.017529023,-0.411746288,-0.454236918,3
0.000475675,0.279684313,3.836648472,17.75477441,8.618169839,0.020463613,0.230522581,-0.539004934,3
0.002348027,0.279036042,3.794674475,17.47667099,8.587586757,0.017374925,0.356262642,-0.588230072,3
0.001249976,0.277637437,3.77553132,17.34514524,8.575176947,0.010510583,0.619900693,1.709201821,3
0.00275031,0.28570699,3.735977439,16.59036194,8.572924805,0.011679645,0.506954558,0.688015869,3
0.001288036,0.293124253,3.67881042,16.00058186,8.553829248,0.019221617,-0.15846316,-0.929389265,3
-0.001987276,0.283473539,3.754515988,16.947642,8.531461171,0.015591556,0.65217137,0.469541094,3
0.002499037,0.291705883,3.637776679,15.63552215,8.537373134,0.021828796,0.669670212,-0.467673735,3
0.004557155,0.310047739,3.457205053,13.70220878,8.548337337,0.017525531,0.547482921,-0.372014436,3
-0.001841616,0.320103289,3.342963947,12.9698748,8.530896923,0.019362981,0.35251625,-0.127584225,3
-0.002497238,0.316772794,3.377693701,13.38057259,8.498893138,0.020495917,-0.569214977,9.24418236,3
0.003601142,0.30366485,3.556727666,14.55759274,8.466662162,0.018696506,-0.472328576,8.692149887,3
-0.000308507,0.289977996,3.740132328,16.26360205,8.450431933,0.009960045,-3.634111138,130.1876895,3
-0.000170844,0.292147287,3.760908239,16.35106641,8.434513201,0.020060322,-0.805396382,5.535004,3
0.002920715,0.304391309,3.607911582,14.80729144,8.407052994,0.018250386,0.561227486,-0.048544634,3
0.004708538,0.300117662,3.648071294,15.10259335,8.392832511,0.01017732,0.182291226,0.744726327,3
0.001285812,0.289198971,3.733067562,16.22500035,8.390236991,0.009236854,0.649581755,2.257100644,3
-0.001775443,0.279836572,3.828915102,17.55489081,8.38839095,0.011817411,-0.476495905,5.60868426,3
0.000811537,0.290826187,3.731358628,16.27926715,8.398916898,0.019954865,0.003957171,1.300760972,3
0.00126365,0.290889994,3.701926458,16.0586737,8.400730351,0.017200303,0.53281195,1.740270275,3
-0.000141429,0.291230217,3.699350308,16.07700925,8.400305721,0.01393983,0.562025366,0.887611312,3
0.003680126,0.302886485,3.582026036,14.75878417,8.396386664,0.016501488,0.478394884,-0.166453686,3
0.005854817,0.302121235,3.593973488,14.87601734,8.376636342,0.011405953,-0.698127207,9.992334892,3
-0.00226045,0.293399915,3.671734817,15.84036885,8.359591184,0.013989844,0.077505638,2.195300908,3
-0.003017388,0.282833954,3.748051727,16.89972102,8.342290279,0.010218525,0.340884311,0.557728386,3
0.002532394,0.295631657,3.604251154,15.26159395,8.348890141,0.02585437,1.458525343,1.077268829,3
0.001371486,0.309527217,3.483896704,13.90769748,8.389642334,0.035522542,-0.56850146,-1.168116983,3
-0.001447573,0.30612988,3.535665446,14.39124726,8.401165227,0.020024253,-0.165666069,-0.837756991,3
0.000442952,0.290739011,3.71056553,16.13248746,8.371329934,0.019285476,0.139123784,-0.186926261,3
0.006008442,0.28920049,3.790815092,16.58336986,8.347451891,0.015182723,-0.72939666,18.94812439,3
0.001684283,0.29074548,3.770693679,16.43081019,8.332190813,0.010695523,-1.992272477,65.17879362,3
-0.002990387,0.278964777,3.872423162,17.80098728,8.322154726,0.009530153,-5.100892545,185.8697617,3
0.000855698,0.291666662,3.711704091,16.08964075,8.31728957,0.009743593,-5.125688415,171.4157879,3
0.004289566,0.303385648,3.591259801,14.7550607,8.31099265,0.010971425,0.298226186,7.002558472,3
0.001040288,0.291143469,3.770778383,16.4271781,8.300036185,0.011926516,-0.119969655,0.506286709,3
-0.001148948,0.278483955,3.930602655,18.14891022,8.300596074,0.01259972,0.01281303,1.206571127,3
0.000907261,0.277502949,3.912916216,18.0803823,8.302483695,0.008707797,1.156655616,6.974619583,3
-0.000316818,0.291945518,3.757048004,16.30263513,8.292754473,0.009761146,0.323607388,1.14116962,3
0.004435455,0.29825737,3.70308067,15.565701,8.276963915,0.012322347,0.446231168,0.336949439,3
0.002194342,0.290256153,3.739135659,16.23026072,8.269268036,0.00765212,1.013909582,4.748886764,3
-0.000748019,0.309819489,3.498781177,13.92445618,8.280263683,0.014190828,0.686217025,0.068192945,3
-0.000147603,0.306739296,3.542120184,14.42951953,8.286723328,0.014187478,-0.006513567,0.116380459,3
-0.000100355,0.291920792,3.725654794,16.26301068,8.27502158,0.014821224,0.702910516,0.067751334,3
0.002103895,0.289240605,3.765418531,16.4741871,8.271961158,0.010982762,0.634338115,0.479426765,3
0.002247005,0.277157553,3.90218821,17.97415774,8.277097539,0.008941794,0.509837108,2.805828279,3
0.00329584,0.290909453,3.745795867,16.2533284,8.2723532,0.009218712,0.316061671,4.546153393,3
-0.001482893,0.293427388,3.726822299,16.12431934,8.263162885,0.010874626,0.189751106,2.455855193,3
-0.000755676,0.294034498,3.715934908,16.00763227,8.243767057,0.016518739,0.169372502,-0.896148232,3
0.003579045,0.304313775,3.583654163,14.63520492,8.235469764,0.010338455,0.568087957,1.350605434,3
0.00108592,0.291352232,3.730602396,16.18916071,8.238906533,0.009782248,0.399018972,1.200120427,3
-7.69E-05,0.277300349,3.933643324,18.26497044,8.232803181,0.00929643,0.761849854,1.913827168,3
0.004018609,0.289024823,3.794945616,16.61881756,8.224242674,0.009917085,-0.059496206,1.97007148,3
0.002690774,0.291614943,3.742281902,16.23855132,8.215097318,0.011868928,0.25470188,0.631135284,3
-0.002337511,0.279244472,3.868978862,17.80623757,8.211568832,0.010375824,0.669755833,1.560241432,3
-0.000860229,0.277792383,3.892097375,17.98753904,8.219273921,0.010789757,0.268247063,0.43229303,3
0.000737411,0.278848417,3.896288119,18.00702139,8.218393162,0.010810879,0.389937506,1.071582733,3
0.002577308,0.291842514,3.73556247,16.22216914,8.209626879,0.007946786,0.63058083,6.033130118,3
0.003068632,0.289626427,3.761789314,16.35599404,8.213161632,0.010367353,-0.089377139,6.747608432,3
0.003831665,0.288459561,3.781416694,16.49257726,8.213485772,0.010326607,0.09739032,6.826154291,3
-0.000678798,0.293184983,3.734037697,16.19630821,8.20072937,0.013205858,0.098586799,0.193356518,3
-0.003105436,0.280856227,3.867614075,17.7979975,8.194864982,0.010192497,0.328204247,0.982470082,3
0.001275173,0.277568452,3.877655459,17.84907144,8.205460794,0.012007057,0.220917774,0.063481955,3
0.003678818,0.287822528,3.766539091,16.53819612,8.219305692,0.011440681,0.251612906,1.336263613,3
0.000849099,0.3094882,3.460831616,13.85243107,8.229568481,0.010863867,0.518838773,0.74954573,3
-0.001546829,0.302433416,3.544345584,14.74712551,8.232120023,0.010114311,-3.93733396,138.8882473,3
0.000475806,0.282055133,3.839168333,17.50942435,8.221489443,0.012523912,-1.851826664,50.67742179,3
0.002827077,0.279926728,3.824916146,17.44394118,8.209559904,0.009315973,0.32300612,2.190040468,3
0.001686781,0.293641147,3.68066206,15.81775806,8.212130029,0.010406241,-0.00180071,1.097842448,0
0.004209882,0.306317163,3.574788962,14.55968246,8.211525018,0.009716501,0.312619229,0.782944908,0
0.004367105,0.306420185,3.603041654,14.67439905,8.210739899,0.010844789,0.75848329,0.825874857,0
-0.004972641,0.324311767,3.199881055,11.83144693,8.235834885,0.026010359,0.440425126,-0.927875816,0
-0.004269353,0.348471037,2.969789573,9.930832753,8.300047902,0.054684996,0.340461846,-0.959886185,0
-0.000836086,0.343376087,3.110164493,10.84350004,8.345955276,0.03510553,0.040825769,0.542671009,0
0.001277115,0.32911573,3.213675228,11.85061188,8.321223777,0.035088942,1.061440265,0.763458274,0
0.004899105,0.317133344,3.358171053,12.99853747,8.290233558,0.013347041,0.570193319,0.475433786,0
0.000635082,0.303226385,3.527039917,14.4231578,8.325749697,0.053523106,0.814388801,-0.842174407,0
-0.000949801,0.288999589,3.758170316,16.5075545,8.386253629,0.044221876,-0.588775827,-0.427912496,0
0.001036227,0.275204644,4.00143133,18.85946888,8.393069186,0.026317806,0.825727981,-0.194865591,0
0.001242514,0.274081893,3.998917916,18.78103711,8.367491313,0.018385289,0.546273565,-0.384366501,0
0.002303061,0.273307052,3.98836083,18.69583446,8.345952279,0.013831269,0.406901925,0.344016055,0
0.00278287,0.285981838,3.834468632,16.92866454,8.331162589,0.012491826,0.180841877,0.315059808,0
4.41E-05,0.287333283,3.859498981,17.06017241,8.319509397,0.01231586,0.637136175,3.377688567,0
-0.00118825,0.27529696,3.98558067,18.62769146,8.32213707,0.015213269,0.607155722,1.314016573,0
0.003817357,0.287481579,3.780124789,16.4741164,8.331521824,0.021291787,0.742139069,0.381713873,0
6.87E-05,0.287331246,3.801886331,16.53671734,8.360043171,0.034359412,-0.379682624,-1.299840694,0
-0.001843525,0.277444337,3.951691769,18.24417895,8.36381825,0.02692268,-0.077890515,-0.315102769,0
0.002323144,0.279467637,3.918187219,17.93653769,8.327427237,0.016370416,0.069063159,4.092671161,0
0.003248723,0.290660125,3.764299178,16.2019277,8.299705287,0.018574233,-0.084712143,-0.401515803,0
0.001698114,0.290464054,3.796458021,16.41679186,8.300332424,0.020765926,0.083903597,-1.051812835,0
0.00032133,0.291077154,3.819659429,16.58642977,8.309197235,0.015733887,-0.315525596,-0.497405975,0
0.000798019,0.291147464,3.815345649,16.55331589,8.293743025,0.013544913,0.651163549,-0.237985815,0
-0.000900415,0.276692227,4.001063031,18.44734441,8.276644625,0.011664095,-0.044396197,0.139856972,0
0.004691515,0.287511287,3.883374138,16.96463409,8.27618588,0.011549132,0.048078509,0.194624656,0
0.00303254,0.290902768,3.813395137,16.50464806,8.280188588,0.010004372,-0.017549821,1.092311188,0
-0.003269603,0.280451618,3.943260147,17.97972915,8.276105663,0.009913884,0.597471976,1.370881616,0
0.001546725,0.290272565,3.834519767,16.57075951,8.268570982,0.011791867,0.525688175,0.984449938,0
0.001144213,0.291097428,3.804156348,16.37997575,8.263928713,0.009808842,0.212399587,2.596516442,0
-0.000701896,0.292149059,3.82414418,16.47611056,8.253954806,0.015925903,0.250627816,-0.681437096,0
0.005616885,0.302307895,3.730961471,15.28863711,8.23613096,0.009414172,0.261926881,1.796169403,0
0.001270785,0.291188371,3.832229348,16.46740683,8.226493617,0.010169848,-0.312659244,6.300720944,0
-0.000351896,0.291666826,3.793866301,16.23661584,8.221170861,0.009358513,-0.012998599,8.55351289,0
0.000391113,0.292724724,3.798262911,16.27743542,8.217959322,0.024159409,1.165827538,1.882451665,0
0.000896942,0.303452789,3.653360023,14.90302418,8.259606661,0.051773544,-0.192317807,-1.502608536,0
0.002898887,0.302241017,3.63957283,14.88263132,8.280849402,0.02907643,0.060553162,0.603769963,0
