mean_ecg,std_ecg,skew_ecg,kurt_ecg,mean_eda,std_eda,skew_eda,kurt_eda,label
0.001978108,0.282388388,2.748026939,13.97697901,12.55026545,0.026490657,-0.070997769,0.09081858,0
7.98E-05,0.275284273,2.983763308,15.41504197,12.57010258,0.019127106,-0.174745564,0.21773484,0
0.001092767,0.262797609,3.197685988,17.37145356,12.57107544,0.013376579,0.180608364,2.231269077,0
0.000839539,0.263041711,3.100875929,16.94445719,12.55452592,0.017168971,-0.44795216,5.280526362,0
0.001301939,0.265236981,2.944972303,16.123956,12.53560143,0.01537848,-0.213014454,6.323009618,0
0.002426736,0.283862563,2.750436772,13.66166422,12.51596325,0.018617596,-0.272030775,0.36952956,0
0.003159635,0.293809233,2.618252487,12.57550285,12.49867276,0.015558994,0.218370635,3.185938119,0
0.00040707,0.284547201,2.752177627,13.92451323,12.50428499,0.017630863,0.080378907,1.400584633,0
0.000318303,0.27277627,2.987242869,15.7668006,12.52182181,0.014575402,-0.328904596,1.801537287,0
0.001768374,0.262793162,3.114845184,17.11768375,12.52906358,0.011022807,0.319108438,5.12452063,0
0.000394448,0.26296697,3.092464578,16.97640606,12.5351441,0.018749742,1.513418946,3.184611425,0
0.00035359,0.275260413,2.908045553,15.16199369,12.57412633,0.039078918,-0.13437371,-1.394889645,0
0.00207709,0.276822719,2.895475007,14.96420186,12.62188225,0.019964523,-0.106824294,-0.005708925,0
0.000883118,0.258110891,3.119928836,17.46893904,12.64869009,0.017949862,0.085752214,0.180185464,0
0.002661948,0.256596625,3.27835868,18.15741584,12.68078679,0.026539499,0.951828534,1.082892884,0
0.004476105,0.269429758,2.989514878,15.84100204,12.76730309,0.070413836,-0.031612387,-1.747869152,0
-0.000559184,0.262660434,2.908157478,16.19213808,12.8355878,0.015290864,-0.553574903,2.393502787,0
-0.002027788,0.250078794,3.234671463,18.70753179,12.86824401,0.04447512,0.958814675,-0.450697772,0
0.001450071,0.259246179,3.218592603,17.60156057,12.92386486,0.040189629,-0.866592908,-0.376018465,0
0.001934293,0.269950582,2.996902989,15.62779214,12.95944437,0.018137539,-0.066865551,0.146102628,0
0.002820079,0.282108895,2.753779721,13.81251833,12.96048072,0.016634606,-0.013496618,0.723226711,1
0.004244535,0.28900968,2.739620148,13.34365668,12.97316998,0.047988288,0.986593585,-0.457905437,1
-0.00041268,0.267314241,3.090026719,16.28242446,13.01955305,0.048473477,-0.957139831,-0.462802009,1
0.001200845,0.267861803,3.125148668,16.11686056,13.04104353,0.015751447,0.14502478,0.954833782,1
0.001566389,0.268290711,3.125225995,16.06966578,13.02480338,0.019791001,0.285810892,-0.00809089,1
-0.001923059,0.245076164,3.525680282,20.03152437,12.99194298,0.023951326,-0.370098783,-0.571109838,1
0.001120063,0.256276583,3.319610065,18.01192061,12.94944807,0.031176116,-0.055281171,-0.825314736,1
0.003572787,0.26636633,3.192642931,16.51771058,12.89538956,0.035863915,0.116442975,-0.957171438,1
0.003500774,0.252129013,3.487753867,19.0344662,12.84618955,0.025656072,0.370407249,-0.501615756,1
0.001031015,0.252028751,3.498474197,18.90064441,12.8197222,0.015054493,0.497170363,2.129628989,1
0.000212206,0.265583535,3.285543369,16.71923842,12.79467708,0.025506602,-0.565339411,-0.382297969,1
0.001344792,0.264886381,3.141215328,16.48471963,12.74065873,0.044632093,-0.244430862,-0.775508836,1
0.001070147,0.263555619,2.998399443,16.17336286,12.66945169,0.041935068,0.434822226,-1.136492002,1
0.0026106,0.274381202,2.89177959,14.74266539,12.62068198,0.019427184,0.035688304,0.174360256,1
0.000635121,0.264583412,3.07370392,16.39584492,12.59092418,0.02318655,-0.305465564,-0.3392702,1
0.000808764,0.255299189,3.350742632,18.56722699,12.55571578,0.026094011,0.179917653,-0.613011879,1
0.002133636,0.265244262,3.293522713,17.19491378,12.51209166,0.029428224,0.052953036,-0.949155741,1
0.000230464,0.254491058,3.386835815,18.65910252,12.46750739,0.025715703,0.106782854,-0.587886869,1
0.001193815,0.255135945,3.326579366,18.34538593,12.42862216,0.02380994,0.268139074,-0.409496617,1
0.00239343,0.266095343,3.174601775,16.6594201,12.39192875,0.02375959,-0.206097173,-0.488353392,1
0.000970439,0.265469351,3.209950755,16.90753377,12.36306294,0.018682727,0.576414367,0.727526476,1
0.001085658,0.27381434,3.122492236,15.77968944,12.34193017,0.017178957,-0.208695674,0.455232771,1
0.002133087,0.274800204,3.09774149,15.63747147,12.31520271,0.022964085,-0.024857393,-0.019305912,1
0.003600854,0.27309199,3.191976754,16.14855138,12.27435815,0.029616085,-0.101396659,-1.025982149,1
0.000266785,0.274764011,3.111543259,15.84650031,12.24153322,0.018249936,0.419240986,0.299454499,1
-0.001965454,0.277078848,3.07429576,15.55136764,12.21732368,0.020701126,0.224145668,-0.187667728,1
0.003615784,0.282315037,3.13964171,15.10152222,12.19206794,0.017239737,-0.032854339,0.702129954,1
0.001740581,0.263329183,3.339057686,17.49139609,12.1700052,0.019676796,0.131709051,0.003296623,1
-0.000638914,0.266519686,3.251133756,16.97650682,12.14439953,0.01930867,0.260751003,-0.083661169,1
0.002192695,0.274023678,3.188323062,15.93230531,12.13624496,0.013449384,0.32087953,2.075660829,1
0.001160372,0.265186206,3.287087723,17.18274736,12.13163746,0.01653123,-0.13864011,0.546705232,1
0.000771737,0.268340446,3.218165323,16.79183949,12.10770999,0.020397872,0.147069714,-0.275820957,1
0.000766676,0.256070065,3.405456647,18.69371177,12.07609318,0.021850302,0.121962022,-0.450132952,1
1.96E-06,0.255851902,3.411147959,18.62862473,12.05330892,0.01366233,0.251148962,1.694330477,1
0.003600704,0.276350405,3.164121474,15.67463813,12.03907612,0.015943476,-0.000570021,1.03878004,1
0.002836199,0.268092095,3.205796072,16.68338786,12.01465814,0.021212448,0.105566448,-0.432524932,1
0.000181771,0.269831709,3.123220815,16.24159093,11.99019116,0.015767389,0.528370457,0.99156262,1
0.001895207,0.272811479,3.204241831,16.23892517,11.97065866,0.016225391,0.125064401,0.366119834,1
0.000906817,0.266835369,3.242610785,16.87786713,11.95328707,0.014372807,0.36481721,1.711516091,1
-0.000829062,0.261665065,3.264320244,17.55737637,11.93278542,0.018958719,0.179662219,0.36730511,1
0.002187836,0.267260835,3.229017181,16.89000604,11.90753299,0.016703968,0.276295079,0.50836828,1
0.001580776,0.26699249,3.216656836,16.85031565,11.8915056,0.012025591,0.455681548,4.254381325,1
0.001753987,0.25435093,3.501392529,19.2484064,11.88193125,0.012336632,0.384264546,3.546443986,1
0.003297226,0.265872849,3.330132328,17.31703792,11.86354098,0.019264353,-0.076686962,-0.264196129,1
-0.000157399,0.257144579,3.319373419,18.16782782,11.83742229,0.018823767,0.443545958,0.108555188,1
0.001434154,0.266229235,3.254584254,17.00372684,11.81874798,0.013649346,0.442807343,1.494639482,1
0.00262139,0.274646878,3.234897395,16.13619458,11.80635087,0.013743705,0.462535524,1.846026801,1
0.000710397,0.263270433,3.421639055,17.85483957,11.78442846,0.02008302,0.030320521,-0.328523242,1
0.000350261,0.271176183,3.245105999,16.32690933,11.7504806,0.023881223,-0.178034731,-0.199675266,1
0.001180998,0.280100958,3.056992945,14.90260256,11.72207009,0.017464831,0.56726368,1.165392921,1
0.00049169,0.269892097,3.204936162,16.48076165,11.70464886,0.0134856,0.554883069,2.323591111,1
0.000703779,0.247893286,3.588741532,20.28693567,11.68949498,0.013757119,0.601380671,2.314744269,1
0.003361385,0.25938294,3.371332499,17.99751012,11.67621198,0.012714239,0.538231894,3.044825393,1
0.001776489,0.25964523,3.348500001,17.93207362,11.66722488,0.011387911,0.71481054,3.73059195,1
0.001675225,0.249092102,3.487422453,19.71735406,11.66287951,0.010873262,0.826885135,4.374518179,1
0.000897668,0.260914302,3.307499432,17.70437457,11.66054306,0.011471966,0.808667339,4.91519363,1
-0.000399392,0.250214245,3.547166196,19.85597736,11.65074899,0.01456404,0.252692776,1.094650079,1
0.001845062,0.249312965,3.619977403,20.24893343,11.63260177,0.015450273,0.420130119,0.377686659,1
0.002023767,0.250417864,3.547182918,19.79298595,11.62469079,0.011105664,0.682066265,3.275882894,1
0.000523132,0.262838121,3.23876112,17.28190203,11.62381744,0.012882918,0.393850294,2.617630742,1
0.000169654,0.271927467,3.128169633,16.0173122,11.61185058,0.016099558,0.5832452,1.473859455,1
0.002764566,0.26908863,3.279727108,16.73175977,11.59614754,0.013479976,0.494801087,3.529739051,1
0.00199292,0.270458002,3.235707375,16.36115742,11.59953406,0.015173286,0.22674329,1.353731964,1
0.002938189,0.270552492,3.241830989,16.39339907,11.60868628,0.012207216,0.632010972,3.609794474,1
0.000686443,0.260907513,3.402057016,18.01554308,11.60286576,0.01290498,0.88659631,3.524231481,1
0.001265821,0.250555138,3.61557332,19.94477959,11.59649751,0.010691363,1.148810313,7.452704014,1
0.002096093,0.251435682,3.623589041,19.92907522,11.59507822,0.010579935,1.112656331,5.964194179,1
-0.001735284,0.252958112,3.456366071,19.09440402,11.58353037,0.017583163,-0.225707225,1.270266896,1
0.001759781,0.262361973,3.292761736,17.44526842,11.55307497,0.023969148,0.218246987,-0.381982429,1
0.003029362,0.262288952,3.283354328,17.49983861,11.52740969,0.013577271,0.620729983,1.774930439,1
0.00246664,0.262173115,3.308927897,17.63432894,11.52033397,0.01114416,0.827596623,3.938218239,1
0.001227846,0.251012211,3.539427427,19.80513353,11.51388474,0.012869423,0.581808827,2.136911289,1
0.001301461,0.250262803,3.55921414,19.9037054,11.50561278,0.011071679,0.911338944,5.351060079,1
-0.00075461,0.250958715,3.518543777,19.68787925,11.4981054,0.011473599,1.028218772,5.288911291,1
0.000859602,0.250768814,3.563295284,19.91172367,11.48789978,0.011371853,0.51773483,3.501574445,1
0.002440619,0.25090902,3.555607067,19.87167999,11.48006123,0.01062356,0.75715686,4.905949592,1
0.000379486,0.251181949,3.538742725,19.73917718,11.47153756,0.011876299,0.482447637,3.040196588,1
0.001149615,0.262468986,3.335624171,17.68455021,11.46466871,0.011603937,0.621753756,3.573413642,1
0.001306032,0.273152282,3.154346537,15.88758356,11.46259172,0.012064157,0.61818378,3.2862358,1
0.002105052,0.284291741,3.03337398,14.52319056,11.45657926,0.012442503,0.679952827,3.468964846,1
0.001310061,0.264252669,3.329945472,17.59461335,11.4463126,0.012358461,0.202547991,1.996228007,1
7.32E-06,0.252045145,3.405201174,19.22239705,11.43359473,0.013699656,0.276548385,1.865658986,1
0.001447743,0.262467849,3.162913564,17.19698521,11.42081239,0.011928701,0.433771778,2.978566326,1
0.002344666,0.261173675,3.225767293,17.50524542,11.40891996,0.012373778,0.55940751,2.690415485,1
0.002577059,0.261608809,3.232013988,17.46434418,11.40186174,0.01048305,0.834773734,5.476251726,1
0.001374213,0.251995375,3.433596465,19.40541186,11.39830371,0.012361399,0.287794196,2.072525689,1
0.000309814,0.250536456,3.513215273,20.0031351,11.38419075,0.017165562,0.143207858,1.312046679,1
0.001203716,0.249452112,3.550180251,20.29506532,11.35951445,0.018607068,0.311102728,0.835387594,1
0.001990795,0.238125827,3.780780965,22.5951703,11.33972566,0.012265752,0.786506714,2.7706085,1
0.000961245,0.240095731,3.687990684,21.68334405,11.33909067,0.011840914,0.911320952,4.130715091,1
0.001621674,0.253522667,3.440291093,18.96843301,11.34084086,0.011983249,0.66588098,3.823700585,1
0.000635219,0.255031776,3.470998969,19.13538864,11.33536502,0.011344125,0.885739439,3.72784007,1
-0.000257427,0.243379192,3.749699162,21.77155713,11.33127768,0.010849581,1.144783401,4.692917831,1
0.001956194,0.242879936,3.779142492,21.8979808,11.32723329,0.010675057,0.97829867,4.348770059,1
0.003134229,0.254755513,3.547330502,19.45050389,11.32725492,0.011107493,0.822126841,3.293076692,1
0.001093467,0.254515902,3.537135334,19.50687004,11.32414109,0.012442688,0.613519765,2.240611762,1
0.000557981,0.255128075,3.526027147,19.43438185,11.32302044,0.016319173,0.44310191,0.186785758,1
0.002007732,0.265937875,3.37064536,17.609705,11.33033322,0.016312585,-0.167025658,0.60384405,1
0.000728479,0.254859561,3.511466029,19.33726637,11.32975791,0.012328046,0.575366281,2.644835847,1
0.001318516,0.255440426,3.450591678,19.02665405,11.31988019,0.012430143,0.687523452,1.893984371,1
0.001970607,0.267394498,3.249392667,16.98184682,11.31506735,0.01310245,1.063009981,2.480819472,1
0.002259678,0.277268214,3.047664295,15.3512531,11.32377739,0.016465815,0.264157179,1.619493262,1
0.001072939,0.286761281,2.802721276,13.77931694,11.3161965,0.019821379,0.315631131,0.30534112,1
0.002393051,0.292549289,2.76021838,13.15573486,11.29600525,0.012986007,0.529265464,2.921633114,1
0.002610083,0.281092974,2.956758211,14.82417688,11.30017711,0.014883244,0.087804635,0.886909168,1
-0.001289501,0.25194865,3.351824752,19.28854652,11.31073483,0.01107522,0.93541012,5.929242392,1
-0.000486694,0.240402463,3.551693704,21.27001098,11.30695174,0.012183432,1.017629397,5.639141706,1
0.00125511,0.243632987,3.370910031,20.5472041,11.29882976,0.011445027,1.031527409,6.452417428,1
0.002145957,0.254757499,3.21862661,18.71661802,11.29319022,0.012513672,0.754520606,2.886348532,1
0.001801614,0.253980879,3.280776416,18.76689041,11.28767613,0.012172355,0.914716806,3.321675583,1
0.002505144,0.24367933,3.476524097,20.7913694,11.2771789,0.013332896,0.57916652,1.715963095,1
0.001400548,0.243456665,3.582841966,21.26672437,11.26844139,0.01086896,1.062782989,4.623380007,1
-0.000397842,0.25283917,3.469082056,19.58697424,11.26355013,0.011779866,0.680861172,3.298219033,1
0.001885672,0.2522105,3.383181336,19.20257383,11.26044851,0.010836783,0.761987764,4.504660009,1
0.001899105,0.251827565,3.414448101,19.35141931,11.25101013,0.014504983,0.388007708,0.759331157,1
0.001500693,0.250971692,3.501062397,19.87872781,11.23900065,0.011066447,1.15890447,5.011703694,1
0.002312903,0.243537424,3.400915967,20.52796059,11.24570934,0.014871605,0.521096894,1.207806053,1
0.001150282,0.244207188,3.342835367,20.14612398,11.24440248,0.015274954,0.536877843,1.009362813,1
0.000956988,0.252833309,3.386070469,19.0107274,11.2313512,0.011359387,0.893010482,4.633586289,1
0.000541796,0.265180737,3.18609831,16.98017591,11.21833921,0.014487604,0.5106194,1.395763449,1
-0.000122537,0.275683596,3.004814039,15.51157091,11.20835479,0.010675826,0.981537712,6.760293702,1
0.001392216,0.271548747,3.146774794,16.30971068,11.20219318,0.012554887,0.549922109,2.714826331,1
0.00309084,0.269706436,3.265308473,16.63887095,11.19386548,0.012013543,0.632852505,4.449820386,1
0.001257438,0.260186877,3.378806325,17.95480903,11.19121225,0.010949897,0.830952979,5.549303223,1
0.000131195,0.260585787,3.320156699,17.49517004,11.20077918,0.016027016,0.72522381,1.263538115,1
0.001104904,0.273148805,3.132531725,15.58546046,11.21339357,0.013256483,0.146325309,3.639313013,1
0.003519326,0.273121238,3.26918087,16.15431587,11.21763507,0.010314953,1.129096646,6.101352574,1
0.00379507,0.263914184,3.401480144,17.62424539,11.21848008,0.011124248,0.706227504,8.598744333,1
-0.001204723,0.244461488,3.625677718,20.79361504,11.21767011,0.011434044,0.506450175,7.068036763,1
-0.000816408,0.255047367,3.504235779,18.97687864,11.21178665,0.01346952,0.243652029,1.246658779,1
0.00136819,0.266520149,3.3284538,17.21024956,11.20021826,0.013748424,0.685888982,1.603497662,1
0.001507082,0.266389607,3.360914704,17.33477265,11.18887907,0.012750735,0.669120901,2.505827092,1
0.001282569,0.265415974,3.394663275,17.53301735,11.18007638,0.012320119,0.542332485,2.394337936,1
0.002504916,0.263094572,3.476889352,18.08902912,11.16925125,0.014670523,0.164740902,1.616831618,1
0.001391523,0.263365358,3.470742505,17.93176873,11.15801408,0.013136642,0.854325083,4.485709194,1
0.00207673,0.264785933,3.378215595,17.36497816,11.15474363,0.012033567,1.159240954,5.744708399,1
0.001066125,0.265780439,3.374279051,17.36769069,11.16877959,0.018498856,0.243274505,0.379281724,1
0.000511244,0.27724936,3.26198706,16.02423871,11.18730109,0.013573651,0.272685358,3.963716113,1
0.000880123,0.265582112,3.416340265,17.75160484,11.18640605,0.013512245,0.44792343,2.082965544,1
0.000619564,0.253201212,3.604800456,19.67192989,11.17769007,0.012085933,0.905808024,4.383744038,1
0.002593754,0.26414656,3.407857768,17.60849528,11.18041889,0.01227587,0.715431731,3.148210454,1
0.000783744,0.265378155,3.349756315,17.30212711,11.18226634,0.011173841,0.832702985,3.578465535,1
0.000146949,0.265612275,3.345058026,17.24856198,11.18287294,0.014838621,0.978097622,2.025460734,1
0.001937092,0.2760112,3.258085465,15.97245893,11.20968257,0.028394326,0.110449517,-0.786664252,1
0.00159889,0.275496547,3.311724103,16.31917009,11.2414172,0.01730741,-0.256023182,0.670523227,1
0.00034072,0.262103388,3.405653984,17.92449875,11.23311277,0.023235148,-0.340877718,0.118074119,1
0.001939675,0.27063018,3.220738556,16.31844355,11.20424837,0.019145344,0.650038752,2.620185168,1
0.001668594,0.269404611,3.283522424,16.71426846,11.19726214,0.015405844,0.699414322,2.853267375,1
-3.93E-05,0.249218256,3.583857818,20.16538889,11.21328801,0.018819755,-0.486549831,3.203110098,1
0.002705632,0.252546613,3.525740202,19.61309901,11.2242212,0.011202516,-0.756763683,37.30047892,1
0.003225553,0.254137784,3.479020543,19.18344287,11.22090236,0.010910575,0.962616062,3.452883651,1
0.002151175,0.24312227,3.656697716,21.19387224,11.21776962,0.010625027,0.924580694,8.960158923,1
0.000466422,0.242156461,3.715773962,21.52506558,11.21853845,0.012014144,-0.323281414,26.00797753,1
-0.000895196,0.242278613,3.712408514,21.57744688,11.21116491,0.015457253,-0.225493353,7.283021145,1
0.001504852,0.253970238,3.605026516,19.78892633,11.19402063,0.015120167,0.331726145,0.775104894,1
0.002801304,0.265006672,3.372023079,17.58566682,11.18281255,0.012082558,0.848523991,3.718729786,1
0.001717941,0.264952355,3.251511099,17.10234521,11.1806057,0.010997138,0.758707444,3.231343186,1
0.00048793,0.264153487,3.286107338,17.26277478,11.17861285,0.012086681,0.466823641,1.753763997,1
-0.00017497,0.261701164,3.389796639,17.98312692,11.16257401,0.018646508,0.171009254,-0.162206811,1
0.001599099,0.270218411,3.304839041,16.68141927,11.15042632,0.01505482,0.309276858,1.651119931,1
0.001676684,0.262275459,3.414321015,17.69508052,11.15346511,0.014007389,0.09071559,2.711592396,1
0.000442102,0.254008087,3.586116306,19.42833672,11.1642934,0.01395443,0.495661284,1.502963175,1
0.002094007,0.253698163,3.623221971,19.67979728,11.17287369,0.01043128,0.984678091,5.499270998,1
0.000889729,0.254004892,3.634964801,19.72683693,11.17107315,0.010753319,1.20886747,6.049418634,1
0.003449622,0.263843205,3.482172013,17.99481705,11.1712829,0.011042417,1.224427527,4.671601171,1
0.001788594,0.253990056,3.594788708,19.48457226,11.17503161,0.013033786,0.824153421,1.844225136,1
-0.000651332,0.255744201,3.557110681,19.24718918,11.18439925,0.01488253,0.277357489,1.576999543,1
0.002509258,0.264985197,3.421919516,17.78508832,11.18255642,0.014942495,0.527374064,1.955523916,1
0.001020251,0.265702771,3.374041603,17.57157162,11.17954456,0.013884302,0.628472197,2.263499729,1
0.000735456,0.266186826,3.365345927,17.52528348,11.1828519,0.012036292,0.772321723,3.080627922,1
0.003295009,0.273372889,3.212161959,16.20600018,11.16979594,0.01636322,-0.114372869,1.427542884,1
0.001325272,0.263745281,3.241996042,17.26501422,11.15724248,0.012634829,0.442481754,3.728708195,1
-0.000622219,0.253395294,3.362568289,18.71789298,11.155853,0.010754056,0.807199315,3.943878411,1
0.000871902,0.253436955,3.421742309,18.79386857,11.15773217,0.011147295,0.741798079,2.97465118,1
0.001361919,0.256400552,3.452793776,18.58029363,11.16052371,0.012165229,0.703551157,2.679312698,1
0.001899026,0.268022219,3.255230403,16.78299349,11.16211662,0.011957482,0.743675776,3.490473803,1
0.001543304,0.265803366,3.317049984,17.38708552,11.16116682,0.013540843,0.807118137,3.104454274,1
0.001729366,0.263823976,3.379365553,17.67941301,11.1573301,0.013782285,0.92716583,3.753117028,1
0.002060492,0.254877957,3.421769208,18.78860013,11.15968301,0.015940783,1.003541686,2.19132182,1
0.000897302,0.244235279,3.57347049,20.79505071,11.1744897,0.018110695,0.024520823,0.411272303,1
0.00050953,0.25567857,3.396268753,18.69815924,11.1896747,0.013167751,0.603762078,2.276999555,1
0.001411089,0.264455541,3.206916314,17.12526781,11.18739995,0.017027808,0.055238781,0.36990824,1
0.001355961,0.263660696,3.113127114,17.06820854,11.18241975,0.015500933,0.435992589,1.49131888,1
0.002071224,0.265055907,3.049506139,16.72422314,11.1899607,0.012381111,0.587602199,4.311378148,1
0.001391948,0.253597896,3.316100814,18.99212512,11.19540689,0.010708451,0.76849279,11.63950529,1
-0.000140664,0.255693454,3.338261469,19.04022632,11.18862408,0.014053712,0.270530841,3.81916336,1
0.002792783,0.266814422,3.195823297,17.27237156,11.17325859,0.014362722,0.727900028,3.153223922,1
0.00321099,0.264815795,3.198533595,17.23579505,11.17608893,0.015243949,0.384078974,2.048048394,1
-0.001456342,0.265549924,3.057618193,16.69102943,11.18366721,0.012427127,0.732242008,4.328635152,1
0.000524578,0.275585567,3.079855037,15.74925295,11.16639726,0.019137762,0.209598411,0.062899983,1
0.002593068,0.27615652,3.194005027,15.94503974,11.14406733,0.014459843,0.332602025,1.101849968,1
-7.13E-05,0.254509418,3.533958497,19.55644826,11.13360901,0.011470677,0.86810363,3.573241888,1
0.002322516,0.265178771,3.422599963,17.84428209,11.13239719,0.011189702,1.02420365,4.796010912,1
0.002476946,0.276685266,3.215399416,15.90985004,11.12973584,0.012193842,0.745041168,3.398024832,1
0.000536211,0.265787186,3.324863871,17.39820841,11.13023589,0.012372808,0.634813146,2.938218125,1
0.000697952,0.277221176,3.173683076,15.81183507,11.14047743,0.020149969,1.035830627,0.68318255,1
0.001476824,0.265694655,3.30934797,17.3793389,11.15653567,0.021610017,-0.313591254,-0.430281001,1
0.001764842,0.265495215,3.33698892,17.50627724,11.17183598,0.014049534,0.694073979,1.669221827,1
0.000764825,0.277612598,3.199432852,15.88154105,11.18410307,0.01513883,0.10641903,1.344761668,1
0.001552865,0.278290482,3.16368545,15.64715179,11.19282243,0.011588402,1.000262809,4.213114467,1
0.001943913,0.278224277,3.161360663,15.65830096,11.19520607,0.011619314,0.767687034,3.834658076,1
0.00118479,0.278468371,3.148855557,15.5958301,11.19229039,0.013288089,0.285752862,3.258880632,1
0.001471422,0.288921233,3.027387921,14.27974775,11.18846506,0.012756093,0.674254807,4.368979719,1
0.001018884,0.277023537,3.194787277,15.87836614,11.18991007,0.012041339,0.812995695,3.786381719,1
0.000411634,0.274496731,3.250650456,16.22674733,11.19120919,0.011502981,0.763914842,3.892751087,1
0.002161933,0.282227291,3.142866554,15.03307134,11.18320133,0.013569223,0.406018171,1.469698048,1
0.002581617,0.280756715,3.188348012,15.24641217,11.17397908,0.011578626,0.728171717,3.006238565,1
0.000836262,0.259073905,3.493996573,18.41888405,11.17361521,0.011040835,0.797368036,4.008702705,1
-4.43E-05,0.238689156,3.781558112,22.03965403,11.18076924,0.012222108,0.646233759,2.298510411,1
0.001808971,0.252431847,3.617794891,19.73200179,11.1949622,0.016526575,0.940775707,1.508478417,1
0.003008214,0.251847354,3.624795223,19.87516383,11.21504544,0.019047742,-0.041634861,0.046811938,1
0.00093374,0.241819367,3.78147421,21.93755375,11.22733694,0.011930373,0.785484821,2.358700606,1
0.000452185,0.254063755,3.631502427,19.93760498,11.22562365,0.012832565,0.676799729,2.227805232,1
0.000485203,0.253118034,3.66733637,20.18848215,11.22076432,0.012663187,0.850418155,3.015822535,1
0.001943246,0.251658913,3.70043131,20.33061344,11.21444152,0.011681068,0.689556915,3.374091458,1
0.001521809,0.250992367,3.705177757,20.35309059,11.20407976,0.012728844,0.705699708,2.592801016,1
0.000148374,0.250721829,3.687475632,20.34027072,11.19586667,0.011638509,0.611561523,3.273890648,1
0.001608575,0.250633929,3.671830666,20.28808746,11.19373747,0.011456635,0.817597831,3.519897732,1
0.001489367,0.251363079,3.678951149,20.26930116,11.1899959,0.010830405,0.814770289,4.946781296,1
0.002743286,0.262499294,3.485938719,18.2365887,11.18878043,0.011451253,0.870314102,3.674734968,1
0.001459678,0.262724043,3.452868455,18.12026863,11.18479554,0.012628269,0.559858307,4.241504594,1
0.000395416,0.251534126,3.610277778,19.97397662,11.18011022,0.010292929,0.428455822,7.643778824,1
0.002402416,0.250709944,3.614899358,20.10173982,11.17879116,0.010623478,0.74006609,3.047166969,1
0.000988083,0.262943167,3.359609356,17.81459476,11.18062733,0.013979629,0.651839527,0.778677451,1
0.001670105,0.276753362,3.022966714,15.27667588,11.19015002,0.014850845,0.024852356,0.618156577,1
0.001361729,0.289781143,2.828784886,13.6641051,11.19291502,0.01295392,0.245364641,2.225538638,1
0.000269897,0.27750475,3.015526436,15.416847,11.18717722,0.013810936,0.051907325,6.104793826,1
0.001604985,0.253132033,3.450092397,19.48876763,11.18619238,0.012921776,0.192647073,8.125023283,1
0.002070916,0.243228397,3.703460038,21.75816126,11.19029219,0.011232198,1.009049807,3.996438644,1
0.001033447,0.245414543,3.684673958,21.42629664,11.19331932,0.010806404,0.953736483,7.939826037,1
0.000197008,0.24580599,3.674208715,21.30998299,11.19414782,0.011829533,0.73617812,5.730509362,1
0.000836818,0.245124908,3.662263273,21.34573549,11.1966308,0.012988968,0.694470156,3.371962929,1
0.001812744,0.257236332,3.477133146,19.14003285,11.19781194,0.012365252,0.327700495,6.784382528,1
0.00238606,0.257578358,3.455692829,18.99384362,11.1945931,0.011368515,0.477330488,6.726855366,1
0.000275783,0.246626773,3.628623044,21.02942364,11.20515295,0.017321831,0.49258987,0.608022837,1
0.000241778,0.25920884,3.404983864,18.72724302,11.22781928,0.017710101,0.269235915,0.533452069,1
0.000327536,0.269300416,3.276573042,17.00061749,11.24771679,0.017343503,0.251096686,0.486552591,1
0.001762704,0.286231378,2.9906259,14.17264748,11.25572853,0.017276767,0.548796483,0.804676132,0
0.004907645,0.304379231,2.589265756,11.58583984,11.28135932,0.044452629,1.054083738,0.283716099,0
0.002243683,0.299058981,2.480948129,11.87517667,11.34239611,0.049315067,-0.508208435,-0.799353704,0
0.00723984,0.290759305,2.530735415,12.47404215,11.44019863,0.074353905,0.640979843,-0.500477701,0
-0.000912905,0.295724841,2.595597354,12.69792092,11.52718816,0.053847625,0.549807144,-0.595875771,0
-0.005724237,0.296367694,2.627241199,13.22783977,11.52221429,0.045339488,1.247290159,0.826451748,0
0.00160864,0.281135779,2.782250777,14.64748634,11.51094736,0.030742614,0.98568901,0.276934108,0
-0.001194155,0.272327739,2.933990985,15.84431367,11.55351535,0.035192409,-0.539826376,-1.071585599,5
0.002152385,0.274605783,2.943858397,15.66365263,11.59506487,0.020822692,0.3424601,-0.336622812,5
0.001024907,0.277132431,2.952853408,15.45875559,11.64842475,0.046432721,0.632508376,-0.788933393,5
0.000486295,0.266732501,3.089328758,16.99857357,11.75614025,0.076622619,-0.189098545,-1.511310355,5
0.004379137,0.265591058,3.109743504,16.98052923,11.84341959,0.027295945,-0.74887662,2.012149645,5
0.003972002,0.265515301,3.088046574,16.72539508,11.87494011,0.022622657,0.044126539,0.419020329,5
-0.000683755,0.254101076,3.243652881,18.50857077,11.91148851,0.026291433,0.009774344,-0.967953154,5
-0.00115055,0.253586101,3.273371777,18.60610674,11.93926877,0.01386011,0.647133714,2.080442058,5
0.002127411,0.254807107,3.180872706,18.2083344,11.94111595,0.012616824,0.775087807,3.074490798,5
0.004337801,0.266959281,2.930712578,16.01333011,11.93772321,0.011860686,0.725521918,3.983141606,5
0.002090286,0.267247011,2.920967945,15.95880778,11.94545092,0.017706843,1.043080457,1.993447068,0
-0.000858379,0.256245084,3.041465851,17.58164421,11.97797721,0.031488638,0.068198182,-0.942622641,0
-0.000789368,0.267374476,2.850800658,15.55058205,12.02184503,0.02694294,0.225679974,-0.353891391,0
0.001077209,0.28793358,2.66867132,13.22430132,12.05270631,0.022044318,-0.214396539,0.280242398,0
0.003341309,0.286224554,2.631781037,13.2477803,12.06907904,0.01500597,0.307588992,1.466403066,0
0.001934555,0.27578848,2.720020431,14.5402858,12.07703138,0.016253121,0.365561955,0.761134805,0
-0.000192431,0.265512648,2.942338284,16.54593999,12.09349278,0.020585612,-0.052367772,0.398769169,0
0.00261625,0.262830351,3.048000075,17.00311395,12.10828814,0.013807309,0.58667396,2.911445498,0
0.00218365,0.25432556,3.150256858,17.97895633,12.11662865,0.013884453,0.552436439,2.976374613,0
-0.000679439,0.243100065,3.227456853,19.66971102,12.12150121,0.012080142,0.855532771,3.834429291,0
0.000282597,0.251485261,3.162100701,18.5856386,12.11083401,0.016154426,0.132145494,0.345834163,0
0.00213896,0.253224264,3.144050303,18.10656825,12.09960191,0.013585286,0.756119063,1.606082016,0
0.003996964,0.252607336,3.116148135,18.05015105,12.09031835,0.014565447,0.480584349,0.902346114,0
0.001346845,0.252109592,3.155221448,18.38381546,12.07363581,0.015926428,0.344786071,0.998183856,0
-0.00030763,0.254459858,3.101880074,18.11755503,12.06668374,0.016068725,0.504511427,0.714622253,0
0.000989502,0.243481127,3.147486936,19.55317944,12.06264975,0.016209957,0.810498033,0.873665803,0
-0.000109471,0.242151672,3.235053239,19.87115578,12.05797691,0.011905345,0.658294624,2.923828109,0
0.002875671,0.254662145,3.125642146,18.06730012,12.05286756,0.014467704,0.405956473,1.307661386,0
0.001688749,0.242797855,3.276367809,19.98386481,12.0556336,0.018532667,0.784465728,0.860491693,0
0.002495786,0.243049045,3.222133708,19.5861529,12.06827948,0.016993289,0.348499764,0.811095571,0
0.001358191,0.243646376,3.200003902,19.57910322,12.05325116,0.024908296,-0.24313709,-0.128279085,0
-0.001710015,0.243674649,3.233501649,19.82007568,12.02486719,0.018687148,0.611765825,0.559776916,0
0.004504957,0.254985366,3.053760909,17.78573265,11.99962888,0.019854188,-0.020900378,0.005676896,0
0.001101589,0.241955573,3.248080643,20.07262639,11.97630152,0.015465055,0.709031286,1.481931263,0
-0.000741185,0.242275106,3.26640226,19.84752293,11.96515628,0.012122738,0.893467739,4.43005754,0
0.001438307,0.254400428,3.129592563,17.88563471,11.95597452,0.013831886,0.53612067,2.647116462,0
0.001946496,0.253068605,3.180448504,18.29785624,11.93977721,0.016829306,-0.16499208,5.589483073,0
0.001077595,0.251999255,3.226460648,18.38579421,11.92373156,0.015422232,0.123879348,6.147257214,0
1.89E-05,0.252783096,3.189487824,18.22932648,11.92005294,0.013405842,0.319256323,6.206227422,0
0.002725525,0.263398634,3.065035646,16.70299936,11.92944696,0.013903728,-0.092085675,5.088174405,0
0.001408245,0.27104283,2.973855854,15.48373565,11.92496316,0.017589944,-0.176876798,0.026735258,0
-0.000701608,0.268541381,3.047142032,16.0067138,11.90099079,0.018357409,0.475683503,0.242474527,0
0.003111361,0.267220996,3.118451208,16.37155618,11.8830846,0.0128225,0.314875227,2.899313262,0
0.003082849,0.28233778,2.783740688,14.07378718,11.88862888,0.021563036,0.976626363,0.91558653,0
-0.000356009,0.294534053,2.680828763,12.90583186,11.89966044,0.020570633,0.488735524,0.24491599,0
0.000771293,0.280043055,2.959261538,14.88100215,11.89136184,0.017119826,0.784771212,1.299297685,0
0.002293834,0.258124133,3.23194145,17.9778867,11.88079812,0.011809368,0.665574848,3.164353444,3
0.001835914,0.248852698,3.299357112,19.23093088,11.87123108,0.013453919,0.40530391,1.326217674,3
0.000246153,0.249807686,3.29040934,18.9502661,11.8583483,0.012463157,0.594312118,2.537937823,3
0.000878442,0.250329037,3.311241307,18.88932529,11.84772175,0.012952727,0.288623476,6.2053287,3
0.002742632,0.249753561,3.35278531,19.12120477,11.8314724,0.01734635,0.098963528,1.306756788,3
0.000612913,0.238501747,3.505524746,21.12205665,11.81701568,0.013428836,0.92466124,2.871616674,3
0.002427455,0.238570089,3.443824095,20.70334253,11.80618166,0.013739133,0.557795562,2.334849229,3
0.002157754,0.239561319,3.422117726,20.55608812,11.79080516,0.014162167,0.540990876,1.733911668,3
-0.000713967,0.239608358,3.41681567,20.59919699,11.78237942,0.011750874,-0.886146007,50.039796,3
0.00155809,0.250085168,3.275241261,18.8133629,11.78470078,0.011908323,-1.085510382,48.75454945,3
0.00095192,0.250067942,3.278574615,18.83456521,11.79800017,0.015391403,0.282677373,0.986273677,3
0.000684298,0.250914498,3.302104993,18.8951471,11.86201935,0.061907782,0.451317708,-1.383890412,3
0.001550302,0.252324144,3.262267994,18.63562349,11.92066972,0.032969609,-1.191920139,2.37410882,3
0.001515198,0.252433585,3.216102475,18.34645605,11.92742097,0.014738439,-0.176375253,3.08104329,3
0.002013088,0.252971189,3.142933041,17.91299542,11.93892152,0.017280719,0.625475973,0.374272468,3
0.002342194,0.252657243,3.133743328,18.02591343,11.9566943,0.024814118,1.818524335,5.037454125,3
0.001259001,0.252331506,3.262674385,18.7043121,11.99622661,0.041155229,0.131450202,-1.194708232,3
-0.000145824,0.251533947,3.338783253,19.0410556,12.0148274,0.022492216,0.956658653,0.255035893,3
0.00032137,0.249715683,3.349278007,19.21411248,11.99661647,0.013984136,0.274781189,1.649536226,3
0.001745002,0.24892807,3.35505738,19.24398183,11.98700022,0.013946102,0.691239063,1.910252053,3
0.002307475,0.259668344,3.268455542,17.72733691,11.97775792,0.012774581,0.459633415,2.217330721,3
0.002275648,0.258906109,3.312665305,17.97837438,11.97794206,0.014538467,0.388580701,7.306253905,3
0.004226676,0.245314174,3.562677971,20.34876651,11.98747248,0.016129615,-0.475741311,17.39663636,3
-0.000115186,0.236272426,3.593921438,21.71429902,11.98248471,0.017249099,0.008531139,9.535777459,3
-0.001870462,0.238872085,3.474533632,21.04337831,11.96052764,0.017675977,0.274470587,0.696021544,3
0.003753656,0.247425461,3.442312198,19.70397891,11.94080037,0.014112876,0.460714498,1.497039615,3
0.002582016,0.237465831,3.538076853,21.1872641,11.93066929,0.012060119,0.657295603,3.407683291,3
-0.000363262,0.237411795,3.531746436,21.25473187,11.92158764,0.013621146,0.370898184,2.067266511,3
-0.000721606,0.247257478,3.440139963,19.82670756,11.90567207,0.016149927,0.167568862,0.477713739,3
0.001015921,0.247996171,3.451112238,19.79236063,11.88845776,0.014331331,0.684951221,1.777312667,3
0.002150306,0.247662477,3.468424637,19.76384596,11.87871028,0.011406188,0.582644658,3.912412861,3
0.001411972,0.24789424,3.440934538,19.52853124,11.87090939,0.013389195,0.32157353,2.183078007,3
0.001688971,0.248541614,3.425151795,19.45035056,11.86065489,0.013119056,0.596183071,2.896367028,3
0.002285948,0.247642871,3.466288719,19.6934282,11.85004594,0.013632057,0.635620137,3.635618203,3
0.002303944,0.247435383,3.423559077,19.51246502,11.83909814,0.012870052,0.769929896,3.847146098,3
0.001027712,0.247534494,3.452848689,19.64593931,11.82667215,0.013474173,0.395730051,1.514548952,3
0.000575873,0.247077567,3.497459529,19.89483094,11.81610794,0.011643954,0.628671542,3.087968799,3
0.00183471,0.24825953,3.435958205,19.49310997,11.81034524,0.011590139,0.702020832,3.786492675,3
0.00307574,0.247969261,3.461568927,19.54573817,11.80071656,0.014061186,0.253582159,1.187795539,3
0.00211033,0.249143595,3.41119498,19.19356102,11.78566628,0.014877915,0.530549686,1.436064145,3
-0.000972493,0.238555021,3.529961802,21.09348442,11.76681715,0.016080341,0.300106499,0.560006055,3
-0.000396606,0.237035556,3.607053541,21.47748853,11.74890671,0.013643564,0.501415287,1.516078598,3
0.001111346,0.248912032,3.394124004,19.10282064,11.73861896,0.012126364,0.714612447,3.664486192,3
0.004379379,0.246509415,3.484783784,19.78947754,11.73392111,0.012766757,0.807044262,4.008033585,3
0.001363109,0.23771591,3.566995834,21.27381317,11.73382132,0.013384991,0.604419166,2.132830468,3
-0.001094434,0.239919727,3.476921181,20.67446854,11.72282039,0.017408446,0.454625127,0.062251815,3
0.001777464,0.237345091,3.576816019,21.315417,11.70588155,0.011702507,0.631840603,2.956144973,3
0.000125761,0.238642068,3.485461738,20.87701445,11.69770333,0.012013991,-0.758257825,32.25899529,3
0.001406845,0.250171671,3.370898493,19.00694054,11.68741155,0.014115501,-0.365417496,14.91279025,3
0.001491826,0.249014651,3.442981366,19.36955497,11.67234851,0.015224045,0.514815767,2.28109465,3
0.001215918,0.258915278,3.292193291,17.78512684,11.65520101,0.014817715,-0.304327912,15.73348597,3
0.001435468,0.248289367,3.392675918,19.31037619,11.64010587,0.013525792,-0.644250606,17.18702573,3
0.001547575,0.239181856,3.531196535,20.79126784,11.63198062,0.011817253,0.656943112,2.840869996,3
0.001952826,0.248738124,3.42761382,19.24640681,11.63006439,0.011553718,1.052213145,6.304346164,3
0.001762338,0.257575532,3.375451102,18.15837713,11.62419177,0.012931045,0.770614437,3.72212288,3
0.003321697,0.258830329,3.344651767,17.81424618,11.61414839,0.012082369,0.65811268,2.577340445,3
0.000816147,0.235791119,3.611596476,21.55490634,11.60921277,0.010957318,0.909028523,3.680784804,3
-0.000973291,0.236189718,3.615413656,21.71396066,11.60718782,0.011738996,0.604678074,2.800180111,3
0.001013345,0.248440137,3.481120452,19.62960445,11.60364184,0.01196202,0.588709121,2.518903443,3
0.004155212,0.244490557,3.658969541,20.80730963,11.59755778,0.012088513,0.681894703,3.859114556,3
0.001459449,0.235797586,3.598211308,21.73183666,11.59075933,0.012543387,0.776789425,3.158726116,3
-0.000734364,0.240352698,3.363579347,20.12666445,11.59193895,0.012772828,0.712446156,2.371829619,3
0.002041907,0.248359549,3.427523674,19.57256252,11.58750589,0.014208701,0.457050411,1.564102363,3
0.001302357,0.247185105,3.505465424,20.0725782,11.57075223,0.013879563,0.45826,1.200292217,3
0.000930195,0.236499078,3.590384759,21.68973031,11.55966715,0.011562747,1.083426826,5.501238053,3
0.000929149,0.236510218,3.552584707,21.33460337,11.55326195,0.011580061,0.962158593,6.842898365,3
0.001173915,0.247401476,3.452152998,19.68057147,11.54561195,0.011113075,0.642411421,4.820321466,3
0.000642301,0.23644738,3.602405037,21.88286638,11.53813062,0.011054159,1.045036903,5.492891419,3
0.001768119,0.236429649,3.602781726,21.78419626,11.53524241,0.010325249,1.091163527,5.121747745,3
0.001662728,0.235787989,3.615702735,21.84522987,11.53933999,0.010953508,0.919570493,3.565593019,3
0.000967719,0.236755055,3.596133383,21.51424049,11.53858365,0.011760308,0.768174234,3.940012885,3
0.003838218,0.247684837,3.480854384,19.67931927,11.53017987,0.012044087,0.741451552,4.521422978,3
0.000886701,0.23582709,3.595887614,21.70569423,11.5253249,0.011550456,0.792608922,4.510787685,3
-0.00078923,0.236881203,3.537135762,21.32239252,11.52151075,0.011732537,0.622855353,2.584204323,3
0.002520362,0.247846285,3.445999537,19.62087809,11.5172027,0.011133515,0.799966858,3.037269883,0
0.001228363,0.248944564,3.432133077,19.55843855,11.51954051,0.011836084,0.99434135,4.193559597,0
0.000775072,0.250458851,3.332020518,19.01910963,11.52982041,0.013106425,0.672506554,3.210270683,0
0.002373832,0.261769178,3.075114522,16.70171067,11.54478237,0.014839246,0.526468219,1.113005493,0
0.001521763,0.271359026,2.963857483,15.38388117,11.5474775,0.013758752,0.416117618,2.051333358,0
-0.000315726,0.270664402,2.972792952,15.52604113,11.56415471,0.03490027,0.704336794,-0.904909169,0
0.000342675,0.291562323,2.660166976,12.9197454,11.59572383,0.029471523,-0.95503885,0.289348068,0
0.003152717,0.308952189,2.453339141,11.1020022,11.62110443,0.02734014,0.773303825,0.130246686,0
0.001709054,0.299764096,2.583751166,12.14185959,11.65566237,0.028156514,-0.53715802,-0.627005373,0
0.000853834,0.297750557,2.631934885,12.71678436,11.67350774,0.014028758,0.343557876,2.245937415,0
0.001500785,0.294319464,2.66287855,13.16776217,11.67922434,0.014997974,0.060487771,2.271289574,0
-0.000355552,0.275456892,2.985599829,15.75547596,11.69652454,0.017075792,0.543803285,1.208241862,7
0.00065387,0.267111693,3.173361929,17.09985346,11.72049882,0.01864417,0.022947388,0.201666849,7
0.001582077,0.26867038,3.150277056,16.73762856,11.73909907,0.012963481,0.117488756,3.465056472,7
0.000858771,0.269380964,3.059876628,16.21339425,11.7561294,0.017248729,0.227555003,1.098399599,7
0.002636516,0.270964328,2.975999213,15.66160183,11.77309265,0.014190739,0.26809045,1.033189589,7
0.002021759,0.261220447,3.150207376,17.22466872,11.77505657,0.012234106,0.784713867,3.135423551,7
0.002577693,0.261942992,3.184536209,17.31599436,11.80476946,0.038343656,0.33244646,-1.405341688,7
0.002767927,0.262651049,3.181413882,17.17372971,11.83796855,0.019080323,-0.837550654,2.245863927,7
0.001566408,0.252120735,3.265532778,18.55981366,11.83586186,0.011225459,-0.403987985,27.87012631,7
0.00086654,0.253578703,3.196154133,18.30979399,11.82747416,0.013184774,-0.222302197,13.44292251,7
0.000690713,0.254528309,3.140007211,18.01653246,11.82434703,0.012426414,0.919098561,5.397763386,0
0.002710144,0.251658924,3.2091317,18.25503236,11.84580242,0.027186248,0.696165857,-0.558948051,0
-0.001746362,0.250282945,3.275427324,18.66038514,11.86909899,0.021440326,-0.393982597,0.176680666,0
0.000281551,0.263742913,3.080166065,16.65429029,11.88733989,0.019365725,0.091705292,-0.031310412,0
0.004574197,0.274065531,2.933123433,15.08526196,11.90802122,0.01969134,0.994410956,1.632275156,0
0.000190162,0.264448404,2.982581725,16.07161153,11.94289894,0.03244959,-0.295152759,-1.225241321,0
-0.001364966,0.264865051,3.039162021,16.38101719,11.95840274,0.017400327,-0.06476468,0.317416083,0
0.002208605,0.264524029,3.087623025,16.68508424,11.94227764,0.013326781,0.728600207,2.599836219,0
0.00129005,0.252070631,3.249179569,18.46545356,11.93684534,0.01112508,0.836293941,11.65778488,0
-0.000266248,0.250169529,3.319417861,18.89222746,11.9382819,0.0112093,0.669218705,10.21340954,0
0.002258907,0.251265129,3.286974255,18.69793987,11.93790877,0.011482913,0.687922171,6.273931029,0
0.003644642,0.251373343,3.268900284,18.73842274,11.93496426,0.01135906,0.749596359,6.575528484,0
0.001920992,0.24946851,3.330014098,19.21038883,11.93426018,0.011241825,0.544894955,3.897101148,0
-0.000300908,0.249557775,3.362521242,19.28491753,11.92473183,0.014666882,0.007898974,0.687768528,0
0.000420489,0.239698429,3.462663416,20.79124791,11.90649529,0.01556711,0.187233573,0.234835568,0
0.001163518,0.239302497,3.459295976,20.77147974,11.88465037,0.018147749,0.033709176,-0.064880651,0
0.003926729,0.250096704,3.308402323,18.84193967,11.8755728,0.02635596,1.295308429,1.331162094,0
0.003354911,0.25147733,3.295176864,18.66264034,11.90826171,0.040640477,-0.242115583,-1.325333522,0
0.000124649,0.251263215,3.338932924,18.91970626,11.90184991,0.041933807,-0.147453411,-0.979060576,0
-0.000860707,0.252617235,3.280298721,18.52770767,11.84540612,0.02762327,0.467087606,-0.836744753,0
0.001427516,0.253264495,3.265902169,18.34451049,11.82315358,0.011628831,0.767698987,3.502559519,0
0.001935536,0.250984069,3.343568996,18.8539669,11.82206699,0.011297796,0.856608365,5.088864363,0
0.002732816,0.252338128,3.282600069,18.55068373,11.81777742,0.013208528,0.359481608,2.88016589,0
0.001245948,0.241298475,3.402686311,20.27123606,11.80651011,0.013537002,0.861648876,2.856012185,0
0.000518417,0.250375274,3.334513718,18.67669229,11.80754574,0.014634601,0.706666308,1.635387107,0
0.001171744,0.262775175,3.154914128,16.66059372,11.83068684,0.029805242,1.757145785,3.354529251,0
-0.000537683,0.255956754,3.135547332,17.30130231,11.88363914,0.045590356,-0.182975468,-1.525609104,0
0.001748664,0.265014405,3.071842779,16.15131553,11.90241879,0.024031387,0.328722106,-0.314150241,0
0.001396709,0.262519167,3.144850814,16.66089485,11.88320084,0.012439049,0.4272635,5.746510848,0
0.001168389,0.249920113,3.348129031,18.74471934,11.87251391,0.015572523,0.187025501,0.287126584,0
0.001877485,0.259544932,3.289050282,17.47290975,11.85280059,0.016144891,0.134837604,0.459446878,0
0.001657399,0.259717529,3.298523578,17.51475498,11.83183675,0.016761807,0.374893829,0.504083258,0
0.001099241,0.247479353,3.518168337,19.75312342,11.81617061,0.012181802,0.690295716,3.49466037,0
0.000702824,0.236203249,3.664715664,21.68755474,11.80615605,0.012276261,0.639056227,3.244599029,0
0.003211618,0.237717173,3.604183264,21.04455408,11.79787886,0.011961997,0.704211754,4.178229263,0
0.002593846,0.248357453,3.48860148,19.28948583,11.79993292,0.012669575,0.583947716,2.821163394,0
-0.001153054,0.237130164,3.655052828,21.46605817,11.80530526,0.011094468,1.065781766,6.339724149,4
0.001197928,0.238234331,3.645876686,21.33054438,11.80565044,0.011675681,0.922391355,5.108897606,4
0.001713514,0.248340747,3.566804947,19.75816603,11.79648225,0.014696583,0.461744887,1.243739888,4
0.000146223,0.235880325,3.723271321,21.80341359,11.787163,0.011036118,1.05941378,6.601523817,4
0.001378836,0.23604895,3.721268383,21.94059173,11.77903072,0.01431592,0.303821897,2.268823865,4
0.000527605,0.236933331,3.724311444,21.9240253,11.77018204,0.012555936,0.490899538,1.864371656,4
0.001671916,0.236820516,3.663667673,21.4362814,11.76801987,0.011593174,0.612872906,2.432527689,4
0.002722765,0.236748447,3.662488072,21.49275814,11.76742477,0.010957546,0.962337758,5.085648219,4
0.000753616,0.237770119,3.645239544,21.4321562,11.76499999,0.011777463,0.290553089,8.95738232,4
0.000504488,0.249474744,3.504726377,19.43433227,11.76015282,0.012208947,-1.222452512,34.47304901,4
0.002087788,0.249123567,3.53292782,19.55670037,11.75137836,0.0134019,-0.517599773,18.10224852,4
0.00220272,0.248656073,3.512135258,19.52217134,11.73899155,0.012307109,0.610943155,2.939050705,4
5.50E-05,0.248062264,3.557649333,19.78365362,11.72288094,0.015546579,0.166025746,0.895896498,4
0.000952521,0.236018611,3.75295476,22.06278332,11.70048932,0.016663667,0.18647769,-0.050993627,4
0.002225987,0.235937667,3.747023423,22.06168717,11.68689635,0.011759128,0.7542066,2.910528093,4
0.000848681,0.246928965,3.622046507,20.13281421,11.68567979,0.011746807,0.247910824,11.18267035,4
0.00339607,0.255983045,3.596788956,18.90146811,11.67899633,0.014667015,-0.125442837,4.44534513,4
0.001749619,0.246641172,3.653726314,20.2800512,11.66510898,0.014231464,0.036999781,8.910178369,4
-0.000380395,0.237407186,3.648420065,21.49467917,11.64970169,0.016775747,-0.283698054,3.32479883,4
0.001574432,0.247799613,3.582195512,19.83219965,11.62833317,0.018935876,0.675034173,0.460124683,4
0.001373173,0.246668183,3.641489519,20.15310926,11.60825751,0.013833912,0.073373479,2.038644497,4
0.000113107,0.235728008,3.805621546,22.41045324,11.58352192,0.021836356,-0.038851251,-0.773394764,4
-0.0006163,0.236901785,3.708374567,21.7873383,11.55692913,0.016113402,0.559411896,0.62948871,4
0.001865531,0.247607965,3.559053694,19.67868153,11.54324395,0.012314679,0.628970375,2.00063601,4
0.004122966,0.2471864,3.605138815,20.06875328,11.53965792,0.011377349,0.775248967,3.109777285,4
0.00239721,0.246977384,3.621941954,20.30172017,11.53647881,0.012245498,0.452173169,1.920022435,4
0.001589597,0.24643543,3.601928052,20.16092891,11.52975213,0.011999219,0.426365117,1.921156625,4
0.001678155,0.245484668,3.599617172,20.09212038,11.52422453,0.011601831,0.705592767,2.963412204,4
0.000538788,0.246338203,3.629099599,20.18419243,11.51786308,0.011452942,0.823163216,3.954909368,4
0.000601495,0.248334779,3.623650702,20.17685866,11.51029783,0.012551496,0.23541123,5.347194296,4
0.001679064,0.248614358,3.538540404,19.64801484,11.50482156,0.012850718,-0.993974853,34.6746094,4
0.001429609,0.246382492,3.573036542,19.86027383,11.5055172,0.012057996,-1.205366504,42.21345436,4
0.001123516,0.245964469,3.637979811,20.2924598,11.50603736,0.011868929,0.48674576,3.017125437,4
0.002294351,0.248678899,3.586549054,19.94763768,11.50788296,0.012969384,0.607786901,2.289668796,4
-0.001092309,0.248620313,3.597501907,19.98156916,11.51207482,0.012366838,0.404306593,8.300085038,4
-0.001055145,0.246892608,3.613097002,20.00236056,11.51619573,0.013057591,0.341067816,7.008264324,4
0.002534415,0.247954254,3.616681176,20.114987,11.52334311,0.012477137,0.402122777,2.394539288,4
0.002697732,0.258527525,3.46153824,18.37142729,11.5256316,0.011978448,0.395731224,2.658804123,4
0.002328853,0.258183371,3.399368099,17.84328059,11.51821256,0.013552874,0.410978656,1.191274143,4
0.002023525,0.247607706,3.572733175,19.68810725,11.50392429,0.013762244,0.361097436,0.683549225,4
0.000917718,0.248328047,3.599464523,19.96311114,11.49539114,0.013004879,0.285829635,1.768664222,4
0.001830983,0.258909264,3.43340774,17.83172768,11.49601522,0.019285306,0.52828898,0.274777764,4
0.002841195,0.248326561,3.595157885,19.60416119,11.49897951,0.022280121,0.453497886,-0.348332818,4
-0.000218399,0.238229335,3.74661273,21.70768331,11.49519784,0.018063271,0.937084701,1.261570245,4
-0.002199653,0.257410185,3.507760313,18.30918098,11.50106239,0.017025113,0.3546484,0.045148626,4
0.004131762,0.254364181,3.691784706,19.51549579,11.49694579,0.020597808,0.142978578,-0.535093542,4
0.003181941,0.243655845,3.769228534,20.92719899,11.48757618,0.024277028,0.817052771,0.367097213,4
-0.00319194,0.246283608,3.639101418,20.06502597,11.51311286,0.031364712,-0.449934704,-0.650628175,4
0.000665458,0.247127678,3.742497516,20.67866752,11.51782314,0.020652637,0.279176269,3.30728993,4
0.003487224,0.244929731,3.766465809,20.80358532,11.5052499,0.011504376,-0.702781712,33.17277337,4
0.002814887,0.255780577,3.575772084,18.60993765,11.51465688,0.014754492,0.600994604,0.860637031,4
0.00121754,0.2565977,3.610727728,18.87289063,11.50961952,0.017864297,0.43953473,-0.027230686,4
0.002191275,0.254639383,3.611809349,19.00780492,11.4965713,0.011181322,0.654842703,4.48785553,4
0.00180884,0.255234552,3.549117918,18.57766098,11.50207056,0.013938625,0.565835869,1.563758821,4
-0.00142804,0.23384287,3.913700228,22.89793737,11.51192747,0.014069099,0.380383188,0.673948054,4
0.002548573,0.254083034,3.551064586,18.54664521,11.54356281,0.033766355,0.452634971,-0.895780142,4
0.001025861,0.256704773,3.510246593,18.3613222,11.57514687,0.020045778,-0.210738973,0.604486611,4
0.002104058,0.244820296,3.702923458,20.58327622,11.57678937,0.013071004,0.350254779,3.965949238,4
0.00169933,0.253513237,3.600239816,18.98913858,11.57813628,0.012605384,0.451236518,1.689823941,4
-0.000516331,0.244378992,3.784505058,21.06721722,11.5788881,0.012092364,0.241112108,6.441768846,4
0.002820406,0.254303471,3.603259938,18.97582452,11.57345957,0.011927675,-0.052053159,5.396479135,4
0.003305211,0.252623774,3.70265156,19.60694715,11.56008682,0.016485368,0.117932592,-0.003062965,4
0.001819715,0.253648808,3.602694691,19.00973884,11.54337267,0.013476124,0.108750844,4.252883479,4
-0.00161654,0.246635365,3.57203772,19.72466044,11.53225141,0.013665398,0.092319082,3.448930295,4
0.002099115,0.23427277,3.847132334,22.51064203,11.52405488,0.013158214,0.829660178,2.67373987,4
0.000111806,0.244745313,3.705262794,20.54189723,11.52467635,0.013556888,0.630111723,1.592553799,4
-0.000169785,0.245667974,3.736044269,20.66395728,11.5179015,0.016752272,0.417483402,0.359696076,4
0.002168054,0.255369432,3.575000391,18.67003304,11.50930944,0.012522221,0.602836637,2.469178302,4
0.000593634,0.244552243,3.741541426,20.79943361,11.5026607,0.014571523,0.455516538,0.305462548,4
0.001785004,0.243374756,3.760601569,20.76992242,11.50135307,0.01652737,0.701218174,0.259535334,4
0.001063732,0.243791072,3.721686247,20.54638259,11.50572275,0.017598656,0.3958641,0.027118275,4
0.001042047,0.245010746,3.763549119,20.8025514,11.49488683,0.016559129,0.819831759,1.537508728,4
0.000701268,0.245544466,3.740939991,20.57579674,11.47872162,0.014138084,0.235905516,0.625533659,4
0.002000761,0.244506371,3.697182118,20.41115065,11.46909806,0.012562262,0.512588452,1.580125567,4
0.001233359,0.245212337,3.664656617,20.26866864,11.46250474,0.01569844,0.326016208,0.603898679,4
0.001719099,0.245467544,3.675647571,20.43354273,11.44947215,0.016682535,0.668563174,1.168459273,4
0.002434596,0.255712288,3.592187911,19.01547145,11.43599031,0.014138896,0.382765792,1.078080016,4
0.000620093,0.244350966,3.732194845,20.89508952,11.42545564,0.013487785,0.54334878,1.760645158,4
0.002342148,0.243289616,3.730979964,20.92941543,11.41728685,0.01334031,0.521498087,1.633092245,4
0.002623561,0.243975584,3.782607214,21.18693689,11.40947936,0.013490488,1.012237613,3.122660876,0
0.002005705,0.244306137,3.716458695,20.72480115,11.41006432,0.012983788,0.617180521,1.934471781,0
-0.000644263,0.245424055,3.667918327,20.43207157,11.41550604,0.012525263,0.604982251,1.571616412,0
-0.000455933,0.256086463,3.541067779,18.82212731,11.40944241,0.013032098,0.612043244,1.683055731,0
0.001000547,0.255095259,3.508802552,18.81795803,11.40819435,0.013841568,0.639684187,1.052297776,0
0.000576351,0.258012136,3.316708238,17.76489646,11.46947648,0.060993425,0.216783276,-1.56764305,0
0.001240644,0.271568574,3.063743108,15.59843795,11.52730473,0.023811384,-0.61847507,0.483071933,0
0.003832345,0.270098112,3.108644019,15.83780558,11.51516348,0.019378466,0.404698892,-0.042535276,0
0.003162349,0.260019389,3.288633643,17.53657426,11.50116975,0.011309228,0.619242996,4.520954886,0
0.001464556,0.251138795,3.392970568,18.83354999,11.50809348,0.013397151,0.47980087,1.79749014,0
0.002662138,0.250828016,3.36579585,18.6748505,11.50929124,0.012536079,0.667380759,2.266767046,0
-0.001533031,0.25045958,3.421361302,19.01017098,11.50613065,0.011272334,0.907850605,4.356734766,0
0.000238246,0.251260182,3.452289935,19.07402844,11.50682858,0.011070445,0.960161173,4.883364931,0
0.000815212,0.25120192,3.43274595,19.04254988,11.50277492,0.011391305,0.826403175,4.029916385,0
-0.000750667,0.251392814,3.414122995,19.03346593,11.50001041,0.011034758,0.774531932,3.367793682,0
0.001312238,0.250804262,3.445892292,19.18590946,11.49324537,0.011863455,0.56469276,3.006224542,0
0.001416393,0.252070193,3.394817765,18.77012179,11.48477598,0.011609277,0.697111043,3.793207325,0
0.005939739,0.252637659,3.319006895,18.35884412,11.48653107,0.012577531,0.872777473,4.81522359,0
0.000782115,0.252359496,3.319118454,18.27827567,11.4992472,0.018824152,1.139428071,1.769492958,0
-0.00196378,0.263636383,3.225390419,17.01533958,11.52166781,0.021733911,-0.359024104,-0.217246529,0
0.004757446,0.261521081,3.249437894,17.28311098,11.54269753,0.017842853,1.880115075,5.52770101,0
0.001537779,0.248626731,3.438893777,19.17760463,11.60121803,0.055559928,0.046261526,-1.607168465,0
0.000393893,0.25872871,3.363169486,17.82602247,11.63297097,0.026598298,0.416005847,-0.69956829,0
0.003342819,0.269156845,3.200935333,16.2080695,11.61400424,0.025715042,1.458936915,2.429416353,0
-0.000847026,0.278557222,2.952677736,14.52405789,11.64417523,0.038983908,-0.2914184,-1.343327479,0
-0.000169582,0.294777833,2.763024489,12.64595301,11.66802979,0.013964233,0.554457985,2.757108486,0
0.003025452,0.2995328,2.791036692,12.39804129,11.67132639,0.016586987,0.339612154,2.049980203,0
0.00026239,0.269488475,3.209031547,16.32473225,11.69354946,0.019317295,-0.348266048,1.489576886,0
0.001439359,0.247417019,3.569756886,20.25246362,11.69971313,0.013096889,0.506327425,3.843032364,0
0.001214414,0.255516342,3.454001245,18.88233217,11.69495425,0.010734857,0.429391495,4.670886058,0
-8.78E-05,0.2553544,3.452563483,18.83881906,11.70431524,0.012445252,0.230982769,2.045546292,0
0.000615372,0.267933417,3.244023207,16.85488954,11.76392871,0.064466942,0.850492593,-0.439695281,0
0.001043067,0.271126782,3.164865161,16.34481853,11.87002422,0.065782297,-0.544538454,-1.094951826,0
0.003359011,0.270903301,3.089668855,15.98523549,11.93856054,0.022377702,-0.1242443,-0.472964874,0
0.003019148,0.280499797,2.965433677,14.70215159,11.9812445,0.034544102,0.23178197,-1.253219951,0
-0.00088111,0.271878308,3.121871044,16.09281836,12.03144755,0.036596374,0.009745967,0.049863704,0
-7.92E-05,0.270682645,3.183452554,16.32782534,12.08190438,0.038185768,-0.463381599,-0.718348131,0
0.003480848,0.278284025,3.121370132,15.32251324,12.14362264,0.044982008,0.465940746,-0.771647031,0
0.002205035,0.280641301,2.997235188,14.80540568,12.25332587,0.080955802,-0.22877069,-1.511245922,0
-0.001365771,0.291556217,2.821415576,13.49085534,12.4010031,0.110739807,1.25416884,-0.010341419,0
0.000612311,0.297194709,2.78709235,12.8586495,12.53336841,0.103773154,-0.877672592,-0.892790452,0
0.00102815,0.296281096,2.804488711,12.96619958,12.64155753,0.059677607,0.835846083,0.161090735,0
0.001454636,0.304359613,2.652615264,11.98387207,12.74009917,0.061835181,-0.397193725,-1.322288138,0
0.00205857,0.312719577,2.448183812,10.92054728,12.81976825,0.048513378,1.201956397,1.188860723,0
0.001400037,0.317198731,2.334333835,10.41993986,12.93553935,0.09580887,-0.28467507,-1.450475561,0
0.001407761,0.328371345,2.226162198,9.411371472,13.05460641,0.047687486,0.591599493,-0.623089655,0
0.0004223,0.337889231,2.122054322,8.745289325,13.11897877,0.046919163,-0.716108378,-0.451404598,0
0.002574509,0.331268237,2.114462168,9.159199161,13.18297288,0.040213921,0.199263927,-1.141929103,0
0.001421735,0.341188796,2.100970631,8.635463728,13.2486902,0.043978623,-0.046156746,-0.100370222,0
0.001175962,0.351792973,2.027545924,8.031221689,13.32115974,0.044518923,-0.320449826,-1.046997895,0
0.001657876,0.354297207,1.966926973,7.893152573,13.37997486,0.035216517,0.996399601,0.061410182,0
0.000571341,0.366334394,1.84032434,7.20961216,13.45560303,0.071557977,0.254332289,-1.070546538,0
0.002186456,0.359032433,1.812686513,7.515781467,13.54531097,0.053950772,-0.692088593,-0.363800333,0
0.001222988,0.357002895,1.81461845,7.647429601,13.579636,0.02526481,0.021166183,-0.229487978,0
0.000440558,0.357546021,1.779181991,7.581533435,13.59418929,0.023376122,-0.479512457,-0.03808835,0
0.002354671,0.349258538,1.787575906,7.945849544,13.62526381,0.02393164,-0.008904777,-0.480564377,0
0.00184707,0.339336785,1.87091118,8.501726867,13.65296293,0.022074097,-0.513794734,1.416712855,0
0.001864105,0.331078931,1.966615179,9.063211698,13.67115511,0.021645001,0.236898957,0.895321451,0
-0.000457914,0.324985278,2.010915631,9.390310383,13.69496373,0.028769088,0.0351091,-0.552092511,0
0.002846728,0.328158857,1.859170385,8.755848233,13.71112556,0.032979998,-0.110975569,-0.87252595,0
0.002101096,0.347178185,1.740590183,7.637452064,13.77021702,0.09656503,0.497628615,-1.076786204,0
-0.00058684,0.338699241,1.794133024,8.217025546,13.80985342,0.074486387,-0.02011466,-0.112270297,0
0.001659426,0.32733485,1.817934081,8.818157242,13.79127415,0.021909748,0.106630331,0.253705867,0
-0.000189357,0.334017335,1.825030492,8.464907478,13.79204625,0.019865181,-0.122004629,0.768489509,0
0.002315761,0.327599205,1.845520536,8.810468189,13.85235966,0.067512286,0.252461131,-1.631393553,0
0.002559108,0.321605717,1.912747086,9.227239893,13.91448708,0.032533904,-1.073814304,2.080818228,0
0.000674391,0.32241258,1.99063995,9.423569562,13.93701662,0.041666879,0.281670472,-1.188016385,0
0.000961363,0.312771667,2.0767401,10.17104442,13.96400577,0.033027333,-1.033861367,0.497268739,0
0.002590164,0.31189159,2.075367218,10.24503332,13.97031294,0.019958135,-0.190756947,0.596771319,0
-0.000496203,0.311449124,2.089851599,10.43846798,14.00066054,0.041562337,0.267308461,-0.723143751,0
0.001415366,0.317577261,2.06816248,9.933421316,14.05282582,0.041405052,-0.019262306,-0.608905934,0
0.00525771,0.327342838,1.990070607,9.135425848,14.07253222,0.03197977,0.086905573,-0.63383086,0
0.000177423,0.329296615,1.914308512,8.995845274,14.08785548,0.033191619,0.391623757,0.135875552,0
-0.00145013,0.340219832,1.909875076,8.445262278,14.10963996,0.027046356,0.650523643,0.38989471,0
0.000213573,0.335501327,1.988862933,8.764632813,14.12295685,0.022754986,-0.155034482,0.162766994,0
0.002123284,0.336290274,1.978916916,8.708274502,14.13029545,0.016240539,-0.572771662,1.929016902,0
0.001997825,0.334036403,1.992716649,8.818234378,14.13745428,0.021204489,0.000964551,0.64081381,0
0.001825803,0.313882763,2.132241676,10.3137657,14.17528518,0.057780093,2.136096112,4.733077066,0
0.00148545,0.308557904,2.180500759,10.85458028,14.29103873,0.100796158,-0.327670514,-1.649232986,0
0.001822978,0.309837386,2.213424033,10.85935148,14.37825334,0.025864629,-0.448762599,-0.02146543,0
0.000713294,0.307991059,2.27123038,11.0804716,14.38428001,0.030808443,0.004448905,0.160055801,0
0.000351648,0.308585737,2.235075753,10.85786552,14.41911207,0.036872201,-0.345993623,-1.042025422,0
0.002109892,0.309146432,2.239277691,10.90333071,14.49247911,0.072480892,1.546539836,1.599160253,0
0.000660638,0.309819251,2.232148813,10.89489252,14.58980293,0.078523434,-0.527615971,-1.024537369,0
0.001128067,0.30903306,2.209688335,10.81713555,14.6354096,0.034850021,-0.228482777,-0.217246881,0
0.000736803,0.328663473,2.053629071,9.382326105,14.67935851,0.094606692,1.532181975,1.731775974,0
-0.000523747,0.348065746,1.996128972,8.111710618,14.80946459,0.114975244,-0.211165347,-1.340755698,0
0.002084433,0.346245295,2.046717372,8.14478094,14.89029781,0.057259949,0.281729179,-0.670827257,0
0.003742558,0.34722961,1.910663413,7.838997909,14.84255513,0.074236557,0.253861937,-0.747235387,0
-0.001070291,0.343730407,1.806694517,7.81438483,14.79732372,0.081455602,2.235956944,5.940471082,0
0.002377749,0.339002751,1.803557256,8.1354363,14.93073284,0.168137519,0.341859299,-1.232993236,0
0.003317387,0.342974428,1.840955372,8.080160719,14.994941,0.104085877,1.145281307,-0.0920753,0
-0.000346632,0.34495946,1.912584937,8.103227228,14.96704892,0.047727831,-0.018638313,-0.941603726,0
0.002008353,0.338526139,1.947064818,8.541393455,15.01171085,0.026074052,-0.87433952,1.171003469,0
0.00158105,0.339102488,1.932838688,8.477497912,15.0134576,0.021256283,-0.16432933,0.312736357,0
0.001450679,0.339290549,1.941538128,8.486144115,15.04683931,0.072619305,2.083772773,4.171614286,0
0.00263031,0.344407708,1.888533842,8.103427163,15.1792202,0.112769604,-0.28351439,-1.606717497,0
-0.000377223,0.358535654,1.807173115,7.174137377,15.27189331,0.02692938,-0.22708637,0.563365559,0
-0.000871445,0.348903821,1.931910313,7.905804862,15.26519721,0.032663735,1.702861032,5.961128849,0
0.002668389,0.338413922,2.011371815,8.593997057,15.34500111,0.092036,-0.10039631,-1.750969381,2
0.003282564,0.331022444,2.073093967,9.236401314,15.43697401,0.039468086,1.304535951,1.919434045,2
0.002309372,0.321327369,2.186495676,10.17356595,15.50090348,0.069892412,-0.331404043,-1.454325014,2
0.00108269,0.314846915,2.222738983,10.65002646,15.57782882,0.040532635,0.433511777,-0.377603159,2
0.00229815,0.316835794,2.193199333,10.33100605,15.5846708,0.038775799,0.286992642,-0.597208191,2
0.003254817,0.315750953,2.249002723,10.43470056,15.56856319,0.027085611,0.283021277,-0.145166506,2
-0.001008519,0.308574655,2.324291077,11.42309776,15.58528001,0.034620279,0.27892822,-0.313697002,2
-0.00197731,0.308931178,2.204411465,11.10259343,15.61433432,0.026027347,-0.074940973,-0.412663945,2
-0.000534132,0.307792605,2.212394716,11.12130716,15.65524074,0.050775853,0.905526783,-0.366153201,2
0.002332188,0.307146548,2.238251948,11.43681823,15.75604613,0.094784329,0.317388562,-1.015664174,2
0.005376984,0.306159377,2.220789564,11.32530398,15.83137861,0.061560814,-0.549052041,-0.153508835,2
-0.000514435,0.309967851,2.221341236,11.23029651,15.88736725,0.084249722,0.752875882,-0.579896363,2
0.000427813,0.301316978,2.233324723,11.94440155,15.98103976,0.083924163,-0.647915772,-0.59248858,2
0.005424709,0.297159805,2.361604566,12.30592618,16.0302069,0.052826857,-0.138122368,-1.06018044,2
-0.000460863,0.297735196,2.354835046,12.2979857,16.01590832,0.048481319,0.402658782,-0.781731392,2
-0.001430969,0.301475438,2.158995113,11.63840118,16.02854336,0.042893113,0.224718922,-0.717352528,2
0.004730334,0.309229992,2.168879144,11.12199014,16.08369261,0.060341782,1.00282919,0.032019294,2
0.003052885,0.307670439,2.164930055,11.17877925,16.2039772,0.138931424,0.580686679,-0.665842642,2
-0.001958758,0.297450593,2.228502133,12.09306341,16.29397327,0.116722866,0.249865707,-1.243483263,2
-0.002133323,0.299679936,2.305944962,12.19591412,16.32056133,0.090234337,-0.361282978,-0.818995539,2
0.002944702,0.29869176,2.336247196,12.44912047,16.33869634,0.066871441,-0.314455,-0.933732333,2
0.00353733,0.300575574,2.160867914,11.59773563,16.40628793,0.114262107,-0.113845475,-0.912243608,2
-0.0015415,0.313735047,2.123739676,10.65170193,16.50932519,0.064926353,-0.678692073,1.050920473,2
-0.000924473,0.298055336,2.406341272,12.97962356,16.58107289,0.077678622,0.635502915,-0.11930204,2
0.00184811,0.294122882,2.330819632,12.81513151,16.63850855,0.057959136,0.182251577,-0.841144986,2
0.000148773,0.304781499,2.277224603,11.8057461,16.60748607,0.050674835,0.398745115,-0.994276472,2
0.003323717,0.296602493,2.38586745,13.03937168,16.60642722,0.05439667,0.958754452,0.658177381,2
0.00554905,0.306331853,2.23378362,11.38802302,16.69609146,0.099026181,1.038213831,0.178717323,2
-0.000896772,0.309070951,2.216782787,10.96991007,16.6682451,0.112478007,1.082961035,0.083982873,2
-0.002500331,0.300623781,2.357661286,12.24261346,16.6304894,0.066231082,0.892477799,0.326017471,2
0.001894985,0.294626919,2.629302906,13.49481177,16.6768649,0.051394117,0.462076688,-0.035894137,2
0.001382852,0.28258765,2.795657724,15.23587305,16.66861529,0.066110242,1.005569969,0.536546244,2
0.003864428,0.294987566,2.363831799,12.9165975,16.7240412,0.094844225,-0.164519316,-1.377592178,2
0.000993086,0.297416276,2.303450169,12.31656314,16.80559196,0.052746429,0.491232458,-0.161730583,2
-0.000276228,0.298698103,2.377166014,12.28755952,16.79947346,0.050202675,0.734057218,0.272756142,2
0.004272701,0.297137101,2.373494373,12.49646875,16.7662135,0.048096751,0.335555175,0.21542122,2
0.003618138,0.28666096,2.491741903,13.7541394,16.81651655,0.077596229,-0.31137567,-1.217888226,2
0.000149519,0.298720927,2.421185704,12.58345409,16.91769981,0.057449963,0.563495737,-0.719969584,2
-0.000974978,0.298923746,2.357722107,12.43333479,16.93122728,0.055401091,0.072325593,-0.799458386,2
0.00342691,0.287780749,2.458232475,13.76364309,16.94728001,0.080850369,0.909124684,0.212514634,2
-0.002138809,0.288320386,2.459085928,13.7618373,16.94954365,0.07568534,1.26546033,0.629988234,2
-0.002651603,0.299640003,2.361494577,12.42755082,17.03502764,0.14845176,0.537933013,-1.096257592,2
0.003886858,0.298986507,2.50327712,12.8805517,17.24631059,0.118363948,-1.066287209,0.615333873,2
0.000895105,0.289889196,2.570912678,13.59113068,17.29361834,0.052614376,-0.062942042,-1.043755538,2
0.000524146,0.300519688,2.345851892,12.1010318,17.32586921,0.089573534,0.578081296,-0.560360942,2
0.003947662,0.305069658,2.277810019,11.57594821,17.35213411,0.068040561,1.075038081,0.266422202,2
0.005097774,0.293196309,2.443605374,12.92981665,17.39265284,0.111465895,0.766523968,-0.712252178,2
-0.001705209,0.284050635,2.669991878,14.46410208,17.53042897,0.097237643,-0.632841777,-0.565224322,2
-0.001670837,0.296547976,2.62108617,13.01085341,17.59391594,0.062705315,-0.632134824,0.282824457,2
0.001993404,0.299906612,2.529913567,12.474477,17.62489046,0.056001389,-0.170759985,-0.589759317,2
0.001806885,0.286996664,2.629250723,13.87588448,17.70360358,0.104191618,1.076868014,0.15042535,2
0.000936892,0.274608727,2.778378299,15.525532,17.73232667,0.087898905,1.18941415,0.534257185,2
0.000407181,0.276665533,2.577181125,14.98296325,17.70406293,0.03261448,-0.259419294,-0.407923269,2
-0.000125094,0.285225206,2.53589101,14.16297439,17.70478794,0.039551386,-0.031512358,-0.915398723,2
0.000857404,0.284690397,2.675438108,14.50588741,17.74785974,0.067241366,0.154086874,-1.11287101,2
0.004692941,0.284254935,2.568844048,14.09958257,17.81342278,0.066710565,0.157139347,-0.751226129,2
0.001931632,0.284035006,2.435680127,13.48320588,17.82787318,0.061058166,0.193084396,-0.992669666,2
0.000456966,0.285988753,2.490861276,13.37507215,17.85440074,0.068483829,0.486661366,-0.32498251,2
-0.003784836,0.287197238,2.568770068,13.68784724,17.90424532,0.089452001,1.057039256,1.381896632,2
0.002815508,0.27324479,2.722670203,15.4065609,18.04895052,0.172484941,0.395523895,-0.802239686,2
0.004609111,0.258564673,3.074779652,18.21961185,18.09789543,0.127705509,0.873831587,0.019786383,2
-0.000559701,0.258642498,3.0878222,18.27905122,18.00438053,0.06357164,0.069353529,-1.275302335,2
-0.001113124,0.259036204,3.017819769,17.76250848,18.02259554,0.066557745,-0.015407418,-0.973456844,2
0.002913286,0.273209382,2.788649318,15.48027408,18.11993959,0.077862691,-0.506348709,-0.81604973,2
0.001854911,0.286074232,2.579642738,13.86759274,18.17031027,0.031425809,0.062074907,-0.611653419,2
0.000219158,0.295783824,2.474401273,12.89483803,18.17492431,0.036966841,0.427420363,-0.096625506,2
0.001758368,0.32478633,2.188859175,10.12308064,18.23497919,0.086813145,1.304401625,0.600116486,2
-0.002376866,0.342531572,2.049015,8.72496598,18.32201636,0.087129681,-0.641141016,-0.842167995,2
0.003338497,0.351708906,1.962711333,7.724820547,18.38468203,0.039914141,0.510741962,-0.307492133,2
0.002973607,0.365112041,1.875625278,6.773161836,18.40405039,0.038851619,-0.203362586,-0.238036853,2
0.003294767,0.368655634,1.84388467,6.619775674,18.45948661,0.092267912,0.668998217,-1.001350927,2
0.004232032,0.365039034,1.805908634,6.8682037,18.45373361,0.096295568,0.66946903,-1.063160595,2
-0.001919926,0.361172958,1.83878445,7.418060879,18.40027057,0.029483851,0.400892241,0.55570622,2
-0.000721344,0.352066427,1.906065397,8.074230849,18.45247672,0.056975803,0.384404101,-0.818618667,2
0.002950378,0.351483555,1.903934346,7.936594338,18.56985005,0.084488956,0.204911577,-1.274162805,2
0.000239607,0.352025126,1.940021093,7.968334336,18.65645414,0.05158877,-0.287087239,-0.327952372,2
-5.06E-06,0.345550091,1.957834165,8.446763835,18.72698528,0.068762364,0.019283456,-0.898022071,2
0.003656675,0.336372293,1.95733474,8.859033348,18.78748899,0.034808144,0.041108279,0.336921784,2
0.002150698,0.336886663,1.976960369,8.815398015,18.81299052,0.049814408,0.966595235,0.178393174,2
-0.000666798,0.33789832,2.016958037,8.889235311,18.87383096,0.063671736,-0.398018787,-0.911092053,2
0.001054092,0.337633262,2.007368129,8.775227044,18.9686397,0.073390164,0.790659454,0.034269339,2
-0.000356676,0.329519373,2.145052642,9.657627661,18.9841738,0.07184988,0.484009921,-0.362782199,2
-0.000242615,0.310012491,2.290048537,11.18591483,18.98548181,0.072551692,0.468021415,-0.281028422,2
0.004690443,0.321865659,2.106368454,9.850107104,19.11105058,0.111777951,0.247717301,-1.048863859,2
0.002294737,0.322322828,2.116188647,9.962191737,19.1399856,0.090935995,0.367924005,-0.996538079,2
-0.00077296,0.331753972,2.052627885,9.388425821,19.13279168,0.115702914,0.714070763,-0.747430686,2
0.000864729,0.341139029,1.998818087,8.799746492,19.18016728,0.103481217,-0.01173151,-0.800832401,2
0.001616292,0.330222535,2.027505103,9.325093999,19.20894443,0.071256017,0.08889937,-0.612322104,2
0.002195938,0.309844641,2.202942449,11.04585378,19.27036438,0.063745958,-0.467806082,-0.90881838,2
0.003124682,0.298028215,2.41648117,12.65415777,19.28669183,0.039513146,0.019471305,-0.735260262,2
-0.001589212,0.301228971,2.341713892,12.29602583,19.30121978,0.078208955,2.746618557,9.121452945,2
0.002288903,0.290719059,2.340743358,12.91551603,19.37681492,0.139416583,1.243322911,0.295786908,2
0.001872437,0.306706231,2.110908155,11.06713073,19.4653735,0.165876507,0.189836539,-1.400744901,2
-0.001421435,0.307516027,2.12437365,11.09220728,19.52536245,0.147915659,-0.054454362,-0.68967896,2
0.002608435,0.299510941,2.294327482,11.94400182,19.45817103,0.1259974,1.367205459,0.908730614,2
0.001155742,0.313155637,2.162091953,10.73064346,19.44985335,0.10947971,0.975652492,-0.199468542,2
0.001706425,0.313334603,2.130172579,10.72623634,19.52598713,0.076346425,0.314825212,0.486159194,2
0.000512447,0.32002743,2.09409197,10.18463335,19.52852097,0.031481068,0.552703005,0.207000309,2
0.000634931,0.318203386,2.197600142,10.60252237,19.64413714,0.129365247,0.390728149,-1.37141934,2
0.002996004,0.317086233,2.165909472,10.45020388,19.81800711,0.121964099,0.286758419,-0.308669753,2
0.002068732,0.316789258,2.171404811,10.45539706,19.77728522,0.136111027,0.846170245,-0.623108471,2
0.001372735,0.317855687,2.215101823,10.64927636,19.70269329,0.053163044,0.56211554,-0.205902736,2
0.003972957,0.327164989,2.098459993,9.695885539,19.7218629,0.041264091,0.806118062,0.223026601,2
0.000387333,0.325037517,2.162387062,9.905977302,19.73766332,0.071832534,0.797672239,0.118339847,2
-0.002392162,0.316273847,2.301284228,10.89460178,19.77427025,0.08250806,-0.053942732,-0.979420468,2
0.001493689,0.307579619,2.390603879,11.86880239,19.78254961,0.056227815,0.242766139,-0.55206643,2
0.003002335,0.307471413,2.263315552,11.30738891,19.77395804,0.041825502,-0.414697836,-0.184732007,2
-0.001007387,0.309570545,2.28304669,11.25916969,19.8355344,0.086357377,0.330387294,-0.461182073,2
-0.000232655,0.309021169,2.363490135,11.78387192,19.89473256,0.058887464,0.659207354,-0.285007926,2
0.002381071,0.306795015,2.279093077,11.54369274,19.93413211,0.0891107,0.50392442,-0.920690575,2
0.000979588,0.31791146,2.206788118,10.43947708,19.91565764,0.094619452,0.784526544,-0.816214624,2
0.000556085,0.309357817,2.363529307,11.62544217,19.92030569,0.122554497,1.352280034,0.332446904,2
0.000718892,0.298990443,2.429885272,12.67319457,19.94915177,0.114642056,1.069680264,-0.152346693,2
0.00372105,0.298134953,2.3638688,12.31879376,19.87565842,0.058284636,1.079012803,1.238727409,2
0.002591878,0.290809004,2.458277159,13.0530469,19.85327557,0.037629706,0.04361196,-0.639026692,2
0.000522733,0.299899689,2.432150344,12.51000417,19.87611978,0.069960787,0.850960436,0.481338765,2
0.002757143,0.309652712,2.268987866,11.36133024,19.89541997,0.068161972,0.322882406,0.080525488,2
0.002933827,0.311798375,2.257190663,11.03402045,19.91134949,0.042270519,0.388056144,-0.215642797,2
-0.00061698,0.298894788,2.412934792,12.54671042,19.91265079,0.045221524,0.516500196,-0.547477691,2
-0.001255522,0.296181867,2.435656853,12.8647744,19.91130725,0.03485963,0.377653672,0.063346105,2
0.001842466,0.303727657,2.331462333,11.8860032,19.9467914,0.042189619,0.751841845,-0.057877841,2
0.000268106,0.295474859,2.336605731,12.45162165,19.99384188,0.059059959,0.948820252,0.988175282,2
0.002084917,0.300385791,2.427586048,12.57011947,20.14537757,0.146348809,-0.088585371,-1.476135406,2
0.004925799,0.302297771,2.379769353,12.31077751,20.24971406,0.064900956,-0.465228099,-0.230730443,2
-0.000576004,0.288992939,2.419101262,13.10831359,20.15700956,0.080606338,0.431506821,-1.211141033,2
0.001007015,0.298485793,2.439085854,12.20841155,20.13700545,0.077086485,1.114569009,0.126942879,2
0.003393396,0.298885418,2.47166889,12.27272389,20.152034,0.081295771,0.416827142,-0.696313818,2
-0.00388196,0.286894294,2.687952437,14.12062221,20.13319539,0.055318443,-0.090333047,-0.50584598,2
-0.000893764,0.295419463,2.597163358,13.0332429,20.22147397,0.103694316,0.649823672,-0.76990216,0
0.005095969,0.293711154,2.537372901,12.9207897,20.34759494,0.102704298,-0.120989538,-1.052565528,0
0.002110206,0.282622317,2.689063373,14.5700006,20.33127627,0.09771937,0.541374166,-1.159693667,0
-0.001417773,0.28497254,2.568864708,14.23795348,20.3314767,0.082909256,0.183688804,-0.994719733,0
-0.000109216,0.310967842,2.1331971,11.00192311,20.56629911,0.250740827,1.143191361,-0.078643177,0
0.002564124,0.330234852,1.941049164,8.969876314,20.57068285,0.246130147,1.208478181,-0.007226037,0
0.003684239,0.331975028,1.975305208,8.790028667,20.37682566,0.081886281,-0.145817648,-0.803145771,0
-0.001514701,0.340428156,1.852308087,8.511375097,20.371441,0.095537452,0.362393634,-1.149342767,0
0.000886525,0.316420506,1.930256875,10.62185441,20.40362091,0.064533672,0.11305904,-0.720338486,0
0.002311268,0.284763326,2.255278336,13.86395645,20.41905692,0.035476381,-0.666929693,0.269710966,0
-0.000745259,0.297231428,2.226670719,12.7038123,20.41945828,0.02724774,0.300529689,-0.47416447,0
0.007054589,0.288008032,2.306513468,13.73647662,20.46661851,0.085530845,1.210240051,0.106674625,0
-0.000288646,0.278181205,2.425088004,14.60122029,20.52281598,0.074345837,0.163430054,-0.844954307,0
-0.00112073,0.278395003,2.448107502,14.39498328,20.51242523,0.0552145,-0.066028347,-1.161773022,0
0.002780195,0.280060727,2.392177918,14.30314992,20.5113139,0.05548344,0.420413425,-0.380864795,0
-0.000915691,0.279209361,2.388619697,14.77014812,20.53606262,0.044857394,0.51721703,-0.669681557,0
0.002985221,0.276084309,2.408364509,14.93937112,20.58320656,0.050212758,0.337633232,0.62560643,0
-0.00064064,0.275749526,2.438594076,14.79121279,20.66736352,0.062416887,0.265820552,-0.704737004,0
-5.12E-05,0.276333031,2.46955506,14.83750839,20.74909695,0.049893817,0.222536102,-0.920529213,0
0.003482888,0.278076196,2.434183953,14.49146966,20.79838475,0.046077418,0.422709666,-0.419170142,0
0.000119888,0.26564365,2.545537947,15.91975415,20.84752263,0.052810154,-0.313245784,-1.151979733,0
0.005509402,0.27595019,2.435364477,14.45455017,20.88883776,0.037490999,-0.224248242,0.058630089,0
0.004637185,0.29098907,2.13122803,12.19078243,20.92950434,0.048170915,0.095815956,-0.448921093,0
-0.002904681,0.293190926,2.135707558,12.11860199,21.01941681,0.071271086,0.225615881,-1.028026311,0
-0.002251628,0.279326233,2.418603482,14.17230669,21.1442773,0.075797723,-0.331060112,-1.159343896,0
0.00242325,0.279154908,2.436933479,14.14444696,21.23585576,0.042982637,0.77518,-0.0019726,0
0.003781703,0.289704288,2.417358304,13.19154506,21.28408029,0.048447061,0.247691866,-0.544916438,0
0.000891037,0.279071247,2.528127423,14.43574222,21.32801383,0.041596345,-0.183511914,-0.940181171,0
-0.00130768,0.26758139,2.584447409,15.73245431,21.3912068,0.060433955,1.07812406,1.352517811,0
0.002657926,0.277190807,2.490571701,14.57843816,21.46355803,0.059295659,0.522214748,-0.667965658,0
0.003948297,0.288531154,2.405987168,13.2761583,21.53018641,0.077628045,0.90229908,-0.228943786,0
-0.000929326,0.276815255,2.528352078,14.74482198,21.55923598,0.062563986,0.850841598,-0.087218387,0
0.002198992,0.277536167,2.467396399,14.50785167,21.55912601,0.046456525,0.558189633,-0.420168461,0
0.002484212,0.278576303,2.454716147,14.2804647,21.55521262,0.045802235,0.83318472,-0.075974597,0
-0.001801294,0.266581362,2.627316871,16.04807243,21.5508412,0.035757454,1.627726898,2.707387413,0
0.000147576,0.276990148,2.571060612,14.89451556,21.62835524,0.086154619,0.291127816,-0.962246863,0
0.001336624,0.288844771,2.359266061,13.02090234,21.79859379,0.12160353,0.361488396,-1.063559033,0
0.002158173,0.276725921,2.457102355,14.12592184,21.93108907,0.086395709,-0.002572787,-0.789988793,0
0.001915283,0.282546171,2.473581421,13.58099898,21.88638055,0.098724162,0.571090483,-0.702107248,0
0.001984628,0.302519067,2.252662394,11.50449714,21.77368769,0.047503816,0.566165106,-0.573006176,0
0.001860672,0.301010551,2.330533769,11.96530931,21.79325997,0.079439931,0.743671045,-0.900650316,0
0.000217196,0.296133583,2.427144029,12.54235866,21.82798157,0.059727429,0.406244424,-0.186458051,0
-0.002005816,0.285319945,2.525392112,13.75545934,21.82159811,0.049279443,2.717197554,8.814934526,0
0.003004898,0.276719624,2.609779625,14.84311636,21.9398589,0.130804403,0.407050479,-1.086581107,0
0.002424094,0.276882429,2.605976443,14.78291547,22.00747544,0.090630218,0.67606944,-0.973311703,0
2.93E-05,0.275749271,2.626156072,14.84587505,21.98881487,0.072429043,1.004901106,-0.22244078,6
0.002340114,0.27522575,2.648884356,14.98564348,21.95846018,0.069498266,1.117240278,0.720238366,6
0.003971688,0.282264169,2.647354953,14.2397953,21.8783783,0.039287489,0.200997926,-0.99827413,6
0.000883157,0.274487068,2.629307309,14.94268683,21.83732589,0.026646254,-0.393260292,-0.243582363,6
-0.002002108,0.269758091,2.589774147,15.57837364,21.84122178,0.03315261,0.145934502,-0.234288397,6
0.002829143,0.278467211,2.584972508,14.53018525,21.89935777,0.058244017,0.354113926,-0.664774737,6
0.002197972,0.277110625,2.629377908,14.67018314,21.92424137,0.04363035,0.36571745,-0.436834322,6
0.001530127,0.287974698,2.54835166,13.48936174,22.02138814,0.170219344,1.095565563,-0.318951776,6
-0.000520275,0.287122424,2.567640268,13.58824991,22.09335698,0.133976724,0.972194674,-0.292686004,6
0.000898021,0.275715577,2.643312252,14.79884963,21.98522568,0.07452335,0.566144755,-0.390530091,0
0.001036083,0.27769958,2.565822976,14.37957785,21.90762286,0.029825055,0.01428033,-0.404309847,0
0.001391896,0.280064246,2.548105591,14.1730825,21.8716641,0.035377159,-0.081812385,-0.355646255,0
0.001731635,0.302526393,2.236567439,11.71162841,21.92101201,0.101258665,0.584100188,-1.192823484,0
-7.86E-05,0.321407967,2.072428077,9.989525612,21.9311294,0.106059202,0.030171957,-1.169659808,0
0.001785769,0.305342136,2.312129167,11.50746864,21.7911305,0.103171721,0.220615945,-0.872534863,0
0.002254054,0.29150139,2.557606755,13.25144318,21.70126228,0.072952864,-0.313138781,-1.283025874,0
0.001335728,0.281450696,2.72798553,14.70069185,21.67093048,0.071427367,0.330497075,-1.16904068,0
0.002573724,0.259866822,3.018652751,17.83706557,21.59889962,0.069525224,0.233935715,-0.933671928,0
-0.000107659,0.262819126,3.00572348,17.46841098,21.48430595,0.071593686,0.474093332,-0.768092656,0
0.000500813,0.26254741,2.957053896,17.19074858,21.39044119,0.045384345,-0.42875696,-0.585595074,0
0.00286169,0.263843082,2.944675712,17.03352499,21.36471078,0.03832702,-0.14048749,-1.159424948,0
0.002092444,0.276064801,2.833065177,15.43678617,21.33810212,0.04667995,0.114015082,-0.974429449,0
0.0015192,0.262663462,3.009081765,17.14243697,21.27583166,0.050520492,-0.253718171,-0.834558764,0
-0.000686868,0.254142993,3.064213005,18.3977303,21.33430879,0.118698321,0.310912306,-1.381538732,0
0.00154182,0.256010854,3.022477197,17.90090284,21.37026405,0.096042426,0.096354385,-1.095859087,0
0.002443301,0.266806445,2.95595336,16.23207339,21.30477453,0.046547447,0.868365394,0.295890758,0
0.002300766,0.266065778,3.013854324,16.65934024,21.27679852,0.036522596,0.68273901,-0.019431066,0
0.000706754,0.253036958,3.188773614,18.59248035,21.25943734,0.04023701,0.046850828,-0.280686493,0
0.000941489,0.25335982,3.157181396,18.21808438,21.21791469,0.059631832,0.009304786,-0.74425623,0
0.002513077,0.265621919,2.939898196,16.27281476,21.09870153,0.090640079,0.023268474,-1.314621494,0
-0.00039267,0.265911269,2.877330742,15.99785307,20.9671269,0.061536454,0.336744261,-0.913947614,0
-0.000593353,0.263812173,2.877866628,16.45986597,20.84606863,0.079488442,-0.305499908,-1.344686255,0
0.000263685,0.2839969,2.649994545,13.89833877,20.73178749,0.058869937,0.620271138,-0.359132943,0
0.00136889,0.260927221,2.982073399,17.10487675,20.62595367,0.068608404,-0.113118362,-1.364629593,0
0.001479021,0.25017953,3.177409691,19.00442757,20.55659637,0.031088524,0.451032823,0.386579083,0
0.000778094,0.264061491,2.923666422,16.44624438,20.585312,0.048744477,0.375529414,-0.715337848,0
0.002077175,0.254012315,3.081426187,18.21411802,20.6076749,0.035535484,0.395470781,-0.589203122,0
0.002667932,0.264622274,3.07095708,17.00591094,20.53928975,0.06082183,-0.049811049,-1.311326172,0
0.001021382,0.264639388,3.071242456,17.01148851,20.4569737,0.042803693,0.408177916,-0.562896413,0
0.00248478,0.253949966,3.135466487,18.30713654,20.4370927,0.059439884,0.710109401,-0.258946232,0
0.000825891,0.254109468,3.111198664,18.16619408,20.35129384,0.112621952,0.43383105,-0.95282036,0
-0.000162048,0.26766514,2.930681565,16.30787412,20.20620662,0.06048972,0.569358518,-0.83737063,0
0.002855419,0.278366426,2.745292416,14.5859269,20.11442844,0.05255513,-0.633541486,-0.738836686,0
0.001307196,0.275779212,2.766265442,14.79634646,20.02578795,0.0594933,0.417851701,-0.873727376,0
-0.00045934,0.264130812,2.944958605,16.68278907,19.92711127,0.063511918,-0.41622573,-0.897575036,0
0.002097996,0.264242122,2.968232174,16.68952705,19.80603065,0.080674534,0.267353748,-1.127973085,0
0.004578925,0.27330252,2.93134889,15.59817656,19.7087144,0.047181284,-0.217591829,-0.69735374,0
-0.000775223,0.250849146,3.202553085,18.89691588,19.65663937,0.047853201,0.352979541,-0.432158609,0
-0.0005279,0.254732475,3.069223369,17.96426354,19.60024692,0.052548278,-0.220146097,-0.724645649,0
0.001468833,0.266002334,3.024981571,16.7550767,19.51161515,0.067457662,0.506195493,-1.011637344,0
0.000971564,0.251796379,3.277299586,19.15311395,19.40748324,0.059491598,-0.736868143,-0.312676829,0
0.001867094,0.26319719,3.099342972,17.18946799,19.28464508,0.089807373,-0.057472645,-1.206333198,0
0.00086618,0.274947276,2.956503177,15.66708189,19.13199408,0.092028224,-0.061240841,-1.055643085,0
0.002625798,0.263713308,3.039451275,17.04379724,18.9898492,0.078827853,0.308046431,-1.078124965,0
0.002820661,0.251720691,3.237474306,18.97409435,18.87467439,0.05869079,0.164703432,-1.080040085,0
0.002421956,0.26737937,3.05516496,16.55965886,18.83234896,0.031545062,-0.204814546,-0.444628126,0
0.00034601,0.271424158,2.918254563,15.75531964,18.77511177,0.073844956,-0.074814017,-1.377065979,0
-0.00048262,0.265574773,2.989881389,16.62573847,18.65828127,0.062489754,0.134154961,-0.846274456,0
0.001622713,0.259858233,3.103891034,17.4270944,18.54642726,0.071022427,-0.23657128,-1.180381805,0
0.000898603,0.248599508,3.243349901,19.14623172,18.41704543,0.083143197,-0.04563349,-1.045966998,0
0.000405409,0.260137463,3.123826407,17.52916156,18.27802075,0.083002161,0.046391538,-1.079482589,0
0.002587064,0.259256953,3.169723313,17.77326728,18.1336829,0.087236993,-0.023677526,-1.19740607,0
0.001815726,0.24787393,3.3694053,19.79743857,18.00195105,0.067087239,0.479899884,-1.025204192,0
0.000457783,0.248195447,3.38606573,19.87195062,17.89422237,0.059582999,-0.344325984,-1.094883374,0
0.00108488,0.248891134,3.356811875,19.74194708,17.82488343,0.045376176,-0.304998749,-0.335349125,0
0.000916051,0.249793976,3.332413687,19.4869858,17.75066229,0.068711095,0.093625268,-0.998897434,0
0.000725994,0.248478869,3.373780085,19.70904619,17.63452737,0.070898483,-0.106713821,-1.217120366,0
0.000381304,0.249173369,3.307178432,19.47390874,17.51193815,0.072886643,0.040707491,-1.172334192,0
0.001923732,0.261238119,3.118819569,17.37503087,17.38493298,0.078435643,-0.224091726,-1.009801307,0
0.002056131,0.261657536,3.113980819,17.23959788,17.24672683,0.086543011,0.149202615,-1.089139982,0
0.000597892,0.248628966,3.276547614,19.46758863,17.13745542,0.048951971,0.454785454,-0.596525551,0
0.001252808,0.246390827,3.396795114,20.12145738,17.04110315,0.069017843,-0.276271918,-1.329119763,0
0.001452706,0.259203254,3.24416469,17.92205887,16.91792995,0.074346033,0.052004882,-1.040824975,0
0.002656514,0.259734494,3.18878201,17.71322851,16.79401392,0.073105329,-0.000738222,-1.031418334,0
0.001729039,0.251768075,3.20898577,18.90266108,16.67351619,0.068660112,0.242259794,-1.139415446,0
0.000588684,0.264706452,2.977507276,16.7565114,16.60624597,0.036864485,-0.321475457,-0.624624174,0
0.002949469,0.273829176,2.88688185,15.46906929,16.53563298,0.073215469,0.173079061,-1.212564544,0
0.001313494,0.274267285,2.836029731,15.1815908,16.42108961,0.061456798,0.012337618,-1.006907257,0
-0.000762,0.287016575,2.584352619,13.41735848,16.33273915,0.047263745,0.15082867,-0.736736148,0
0.000580157,0.296512535,2.560278042,12.72888857,16.25367497,0.049835615,0.036201601,-1.148948796,0
0.001695576,0.283015764,2.842677007,14.62598983,16.16099456,0.058323871,-0.225479855,-1.193894539,0
0.001005857,0.27234254,3.014136433,16.11499499,16.06033342,0.06096424,0.021239667,-0.867726955,0
0.001491401,0.262162768,3.117253829,17.45781569,15.96894313,0.050271337,0.154584734,-1.034166862,0
0.002234521,0.250581475,3.25629313,19.10047233,15.88606115,0.049189422,-0.033038539,-1.142156074,0
0.000196551,0.250958678,3.272359813,19.14621605,15.7934251,0.058531369,-0.141795899,-1.274022924,0
0.001946365,0.263241092,3.153317308,17.47850155,15.69166854,0.060754,0.058816241,-0.984631991,0
0.001340319,0.252810305,3.266286371,19.00195492,15.59820093,0.052739762,0.020927824,-0.855773083,0
0.000783737,0.241330431,3.39506126,20.726769,15.50959527,0.054221447,0.145716334,-1.154251558,0
0.001478982,0.253955736,3.209239962,18.52358312,15.42362377,0.04741468,-0.094124162,-0.993125412,0
0.000394311,0.264660202,3.141522051,17.2573407,15.34260401,0.048226649,0.160426028,-1.107537004,0
0.002542563,0.26422297,3.146950165,17.37948586,15.26713671,0.041317867,-0.135668028,-0.927544331,0
0.002442836,0.252421485,3.270590254,19.14734639,15.20233563,0.041207074,-0.11602412,-0.891591878,0
0.000181111,0.263684949,3.182435531,17.61694821,15.13218215,0.047184651,0.23314788,-0.94280888,0
-0.000294649,0.264833517,3.126600624,17.44485512,15.06327035,0.036307846,0.084316882,-0.848255481,0
0.004558398,0.261577085,3.206309811,17.88702494,15.00506646,0.035019577,-0.042640592,-0.726790453,0
0.001576453,0.263801395,3.092837491,17.2366631,14.95141727,0.031374598,0.05170898,-0.905287018,0
-0.002327905,0.254648464,3.163561723,18.57236975,14.89948932,0.033106892,-0.133186189,-0.735143838,0
0.001436201,0.263961758,3.143445853,17.38579493,14.84653871,0.031923687,0.179687685,-0.698387778,0
0.001141434,0.275201809,2.999015467,15.87605212,14.80030392,0.025627605,0.016722014,-0.530820938,0
0.001042086,0.274954071,2.959369612,15.7391504,14.76642674,0.021034305,-0.283080471,0.331306753,0
0.001169004,0.275823983,2.912045331,15.50808545,14.72589896,0.032840404,-0.204400613,-0.976767716,0
0.000674704,0.274963207,2.970313786,15.94759224,14.68129708,0.025851086,0.252054922,-0.210772746,0
0.001860456,0.273791281,3.030896836,16.16841997,14.66025461,0.018041494,-0.058769858,0.710885132,0
0.001761717,0.263071342,3.154617842,17.56025481,14.63056395,0.032977078,-0.06270063,-0.857043561,0
0.001218933,0.263543414,3.154087082,17.56380229,14.58531532,0.027538224,0.076906372,-0.167581607,0
0.00149178,0.275077351,3.037849364,15.94269744,14.53682246,0.035913004,-0.124546294,-0.865378484,0
0.00146487,0.276342973,2.987980107,15.6303402,14.48302716,0.031140459,0.129607701,-0.747277813,0
7.86E-05,0.279270672,2.939827328,15.3975265,14.43440317,0.031233598,-0.136913253,-0.74321149,0
0.002325858,0.279294919,2.927615916,15.36485885,14.38015649,0.037247672,-0.063123423,-0.888635114,0
0.003436765,0.277733674,2.936135968,15.36843483,14.32240437,0.034854327,0.286112209,-0.727903634,0
0.000119758,0.267099655,3.023262758,16.60226661,14.27821187,0.024103318,-0.042608863,0.025635654,0
0.001422697,0.267112929,3.031456875,16.60107507,14.23949601,0.028792403,-0.057519187,-0.736611558,0
0.001940186,0.278163589,2.95899092,15.39688823,14.19114854,0.032270982,-0.115229308,-0.874465641,0
0.002447911,0.274951152,3.080214016,16.1757062,14.13961612,0.032524066,0.050035692,-0.796676875,0
0.000665608,0.263484473,3.223628298,17.78075311,14.09392749,0.026494895,0.274756562,-0.400964579,0
0.000305283,0.264921704,3.151441606,17.32304817,14.05299786,0.027482015,-0.366906188,-0.096253936,0
0.001067126,0.264045016,3.21709518,17.64090305,14.00359955,0.035008398,-0.017932668,-0.855783218,0
-0.000188154,0.264540922,3.214095761,17.50745753,13.9532995,0.028035624,0.305302833,-0.631239534,0
0.001955887,0.276299965,3.022808874,15.71896624,13.91924825,0.019000438,0.088175901,0.724428518,0
0.002744849,0.275659501,3.01024304,15.7610422,13.88866267,0.024578281,-0.173810155,-0.561058464,0
0.003466409,0.273332104,3.103628048,16.20534419,13.85278184,0.02468738,0.139321859,-0.162792628,0
-0.000961454,0.277079891,2.993729365,15.66571612,13.8122315,0.028890727,-0.165583205,0.044009445,0
-0.002159925,0.265342268,3.125892021,17.38295445,13.77401428,0.022242159,0.187876344,1.062793734,0
0.003087466,0.260599519,3.293965314,18.2385187,13.74199611,0.023192575,-0.27837375,-0.150446017,0
0.002397949,0.273749036,3.104513122,16.20860854,13.70448429,0.027157584,-0.005976886,-0.529542322,0
0.000329629,0.263328977,3.209209858,17.70833155,13.66856095,0.021404654,0.269366337,-0.388806486,0
0.000579267,0.263415579,3.167406017,17.62212492,13.63890136,0.019604637,-0.05115299,-0.034715812,0
0.001614271,0.274141593,3.043137004,16.0115386,13.60630651,0.023674001,-0.145372307,-0.459301577,0
0.002808838,0.284101114,2.94159083,14.79644032,13.57931595,0.021126253,0.160933098,-0.02470819,0
0.000732631,0.284475372,2.835745113,14.59556837,13.58565875,0.024959051,-0.006440725,-0.708087785,0
0.000321998,0.283501831,2.702845631,14.2797539,13.58323206,0.023618539,0.20308108,-0.433842179,0
0.000552318,0.305413342,2.251974493,11.50123086,13.64798148,0.098246364,0.436349262,-1.541318146,0
0.002588608,0.317004983,2.096439725,10.43545782,13.7119375,0.071078055,-0.56250989,-0.699139483,0
0.002609129,0.31286611,2.33519985,11.11212161,13.62924369,0.079163152,0.677345761,-0.88149595,0
-0.000340929,0.308813464,2.527873223,11.79104908,13.54866486,0.023778849,0.282685292,0.315010601,0
0.003666157,0.296329461,2.754711981,13.25852366,13.51666238,0.021823759,-0.221936815,-0.126897233,0
0.001728692,0.279584323,2.85186587,15.02674921,13.4850387,0.022608935,-0.086317949,-0.244417523,0
-0.001853054,0.263024479,2.954192894,17.11550547,13.45495006,0.020677847,0.056877305,-0.273969662,0
0.001094657,0.262278728,3.098841584,17.48891287,13.43040701,0.017039506,0.053838762,0.394132992,4
0.003484582,0.26341811,3.104875828,17.2512656,13.41388746,0.014624042,0.111595518,1.893108642,4
0.002823395,0.252984294,3.272287311,18.88646758,13.39877641,0.01629238,0.061053754,1.543373535,4
0.002749446,0.250997673,3.413742719,19.65660803,13.38037398,0.016232738,0.142192274,0.9299529,4
-0.000306257,0.242203171,3.420549398,20.88750196,13.36989839,0.01268067,0.294856047,2.32301286,4
-0.001995876,0.245174428,3.279684641,19.89410657,13.36010203,0.016619184,-0.018911408,0.514363325,4
0.000747737,0.255291315,3.225269617,18.44274331,13.33910675,0.01939939,0.112046056,1.115249205,4
0.000565678,0.255073518,3.266764892,18.57151643,13.30743877,0.025029753,-0.146128333,-0.393581022,4
0.00273895,0.254743872,3.273764042,18.56005381,13.27498518,0.020025674,0.336956367,-0.152165238,4
0.003015577,0.254655481,3.265021077,18.41834754,13.25990443,0.01348739,0.534196106,3.552607437,4
0.000452702,0.254115396,3.313999686,18.69710062,13.24577277,0.019989951,-0.305422792,0.719095082,4
0.000975403,0.245211977,3.416276282,20.2007207,13.21340278,0.026354722,0.149975049,-0.45161482,4
0.001430413,0.243130962,3.431853464,20.41030475,13.1835883,0.018012174,0.068404968,0.948650619,4
0.001174085,0.253358022,3.246285775,18.57924757,13.16022181,0.020641583,0.176666927,-0.02993314,4
0.002184723,0.255681186,3.230733403,18.16808858,13.13253452,0.019833702,0.303947229,0.284204395,4
0.000190168,0.24376921,3.441282761,20.49788755,13.10975783,0.015967121,0.244395286,0.606069358,4
-5.02E-05,0.256399827,3.253547892,18.25622176,13.09370782,0.01543504,0.214805445,2.005773599,4
0.001517899,0.256283017,3.226951153,18.07672762,13.07332916,0.019210906,0.088563977,-0.239215312,4
0.000679943,0.243433408,3.388152409,20.23408115,13.05055596,0.016659367,0.171807371,0.478037363,4
0.00289357,0.254524068,3.283621164,18.49789272,13.03196526,0.016180753,0.239830133,0.456750724,4
0.00316369,0.254837821,3.305598487,18.50685251,13.02055931,0.013565193,0.213321648,1.757123784,4
-0.000154619,0.243586206,3.450044791,20.33327078,13.01542642,0.013396618,-0.52178489,13.46477459,4
-0.000509661,0.24358723,3.457556431,20.24742319,13.00315078,0.017508205,-0.474420088,3.421645397,4
0.003470542,0.256460573,3.26549911,18.09066154,12.98487216,0.017315279,0.080254205,6.129750256,4
0.000772548,0.256955664,3.236049473,18.01293339,12.96814744,0.015633322,-0.392444049,7.298557758,4
-0.000438819,0.244216005,3.400616382,20.05527401,12.95141999,0.015613413,0.443195105,0.737086261,4
0.001276657,0.25615719,3.240831801,18.02994968,12.93796114,0.014689122,-0.088777577,1.338234568,4
0.000540619,0.255885669,3.256523634,18.08010464,12.91717649,0.021667172,0.271253084,-0.671110312,4
0.002551215,0.243634041,3.394830028,19.96601459,12.89410095,0.015181497,0.231386554,1.311619214,4
0.003633486,0.255627864,3.229570197,17.88883933,12.88208912,0.014542154,0.408690103,1.421738932,4
0.001116034,0.256659528,3.279008644,17.98130563,12.86328229,0.020543297,-0.120242451,-0.02001251,4
0.000417029,0.256402587,3.333466798,18.34973182,12.83716382,0.0196335,0.530665865,0.35224513,4
0.000851048,0.244333079,3.492913286,20.37549135,12.81382784,0.017740398,-0.041489806,0.46779841,4
-0.000359698,0.245658971,3.435710355,19.77866385,12.78863602,0.020408724,0.129670781,-0.565040958,4
0.004117486,0.257170667,3.278559057,17.84018376,12.76441127,0.017337571,0.140273095,0.78794473,4
0.001511209,0.259006842,3.215711323,17.47675145,12.74043061,0.021084038,-0.114549713,-0.401472272,4
-0.001514335,0.260110555,3.14113653,17.16360159,12.72140165,0.015993344,0.636444265,1.348886118,4
0.000549166,0.269090707,3.077057171,16.03595569,12.71270523,0.014947272,-0.273969516,3.049953363,4
0.003430487,0.267708194,3.135851906,16.37049239,12.70701027,0.015467196,-0.020369371,2.620443453,4
0.001646269,0.256290528,3.296667964,18.11533796,12.6989248,0.014781293,0.200550709,4.49217207,4
-0.001269935,0.26727328,3.180190956,16.5452722,12.68782708,0.013798089,-0.178743462,3.402562129,4
0.004025051,0.266852162,3.182221308,16.54866831,12.67579531,0.01514911,0.116334,1.810298146,4
0.00169536,0.256128471,3.339714988,18.15978354,12.65892089,0.01658864,-0.016744451,1.41657893,4
-0.001395793,0.256505539,3.363412949,18.17816049,12.64676094,0.014036088,-0.018057002,2.207957052,4
0.002385753,0.256336172,3.370138172,18.29902976,12.63779291,0.015217089,0.370606001,1.405556546,4
0.002425369,0.247879335,3.433963124,19.44417529,12.62406687,0.015286921,0.090581494,1.026141065,4
-0.000343794,0.257752975,3.229111271,17.44260785,12.60357214,0.019878081,0.02664947,-0.152437575,4
0.003064205,0.26583689,3.171677475,16.53825216,12.58146063,0.016222633,0.464490888,0.291666471,4
0.002955185,0.256756839,3.333415209,18.14006363,12.57427096,0.012236902,0.499680357,2.224243947,4
-7.21E-05,0.267456661,3.172823362,16.34736585,12.56706238,0.015317362,-0.003451141,0.855099036,4
-0.000393808,0.25540698,3.351411605,18.36559905,12.54601544,0.018240653,0.149481612,-0.041719625,4
-0.000645015,0.244908744,3.487622813,20.2538205,12.52600615,0.015480525,0.292819234,1.788031596,4
0.001383597,0.267265774,3.170134506,16.52980743,12.50664411,0.017583389,-0.018295034,0.721978857,4
0.003720978,0.265767224,3.234209574,16.96202591,12.48672943,0.016072505,-0.11188112,0.728817217,4
0.002434852,0.265229257,3.268387671,17.09210234,12.46815442,0.017144798,0.278169268,0.613424832,4
0.002063501,0.265232478,3.218139067,16.87666107,12.452745,0.014926705,-0.152092624,0.473242719,4
0.000881797,0.25436476,3.363502637,18.65030199,12.43865847,0.016612973,0.469860331,0.433770084,4
-0.000344474,0.265500622,3.258404927,17.00967664,12.42368496,0.013969839,0.301121998,2.393345859,4
0.000803428,0.255068936,3.374656315,18.57499563,12.41656625,0.012360621,0.527537479,2.543531356,4
0.001064091,0.257548998,3.333927923,18.06696804,12.41302583,0.012165756,0.29906295,2.565606398,4
0.002370549,0.265268007,3.24320559,17.0092145,12.40636967,0.013191728,0.309869092,1.358581466,4
0.000898139,0.262104336,3.347464498,17.90372032,12.40565731,0.014273122,0.472390446,1.746446067,4
0.000345324,0.264401286,3.314367603,17.39267728,12.40115471,0.016013809,0.379804184,0.958255219,4
0.001611917,0.252993109,3.450810474,19.16005709,12.38927509,0.012875319,0.520640071,2.563078038,4
0.000687842,0.265170991,3.252904861,17.05622277,12.3825058,0.012561297,0.580015589,4.67578667,4
0.000874381,0.253860281,3.394347472,18.8470446,12.37316044,0.013528112,0.393526919,3.940783163,4
0.003737575,0.264069775,3.257372254,17.21728488,12.36584963,0.011738001,0.041833639,4.689724209,4
0.00208873,0.274479761,3.171412825,15.91116666,12.35709479,0.014626577,0.052004455,0.303198055,4
-0.00085524,0.240842936,3.697834898,21.65061636,12.34907128,0.012222699,0.65005099,2.672806126,4
-0.000925677,0.25393978,3.409159639,18.58574131,12.34638296,0.012188682,0.330678135,2.855521478,4
0.002503418,0.264975803,3.278056074,17.07598921,12.34048734,0.012953072,0.498161287,2.375254092,4
0.003187696,0.253399289,3.446565437,18.93895593,12.3356963,0.012683143,0.272572933,5.294528236,4
0.000307467,0.254122214,3.392907728,18.68923149,12.32276301,0.017408624,-0.037684869,0.489443597,4
0.000524931,0.266416214,3.27811942,17.18219581,12.30668226,0.013857086,0.322421581,1.617918607,4
0.002998803,0.269924438,3.261286871,16.51469047,12.29352967,0.015437657,0.127357883,1.074690446,4
0.001372493,0.253237372,3.411285718,18.86064542,12.27783797,0.014267597,0.20460565,1.157974124,4
-0.000174493,0.26008644,3.280906735,17.71676097,12.26387956,0.014095089,0.166399705,1.450022146,4
0.003389642,0.264526,3.269413974,17.19370763,12.24799587,0.015558511,0.102034241,1.513701302,4
0.003189514,0.263924316,3.284229092,17.37091059,12.236669,0.012827257,0.313352664,4.447185359,4
-0.000920589,0.263913022,3.284003927,17.33771488,12.23321413,0.012660464,0.318630341,2.755003934,0
-0.001090105,0.253237365,3.45864742,19.21209524,12.23116956,0.012949744,0.47975099,3.609079817,0
0.001793583,0.274099551,3.200683059,16.01467736,12.24144505,0.024839822,0.831984436,0.128276255,0
0.001025763,0.275387956,3.109677914,15.70933548,12.26890864,0.027387174,-0.691858035,-0.221725131,0
0.000395017,0.277409921,2.91137288,15.04274096,12.32829061,0.077152495,1.137742428,-0.462996156,0
0.002498853,0.305605335,2.524298829,11.56081767,12.42537133,0.084451168,-1.000932395,-0.668184625,0
0.003069011,0.305019809,2.527462554,11.70341897,12.45518259,0.032877054,-0.094878445,-0.605068545,0
0.001591533,0.285873446,2.826518722,14.16730809,12.40769806,0.030313752,0.595504668,-0.312357421,0
0.002331148,0.276522562,2.977112195,15.37176721,12.38021289,0.012958096,0.193149163,2.762808836,0
-0.000360201,0.267204914,3.082955335,16.65407187,12.38118771,0.017081496,0.866969032,1.314120607,0
-0.000243151,0.268077312,3.004458297,16.12033169,12.4045123,0.026678349,0.121470439,-0.558320324,0
0.003623683,0.279983858,2.819034633,14.46509494,12.45339601,0.038044629,0.194422425,-1.169200951,0
0.000663417,0.280444205,2.855253444,14.86147264,12.51418904,0.037382398,-0.391687832,-0.63708254,0
-0.000297671,0.280377577,2.847314853,14.87571684,12.57258208,0.038215558,0.432372154,-0.74374239,0
0.001018328,0.270133483,2.958553772,16.14339693,12.61157788,0.026557621,-0.849427876,0.151783255,0
0.002594742,0.269713986,3.016078085,16.27047668,12.62689743,0.030190509,1.288697418,1.242085006,0
0.002053462,0.26924518,3.047140166,16.42861794,12.65832552,0.040322906,-0.456431971,-1.193604811,0
0.001949622,0.260444862,3.139673951,17.68540654,12.68525352,0.013469608,0.563629491,3.059275598,0
0.001403144,0.261669568,3.121291913,17.39536648,12.69007323,0.014979193,0.446442098,1.105851527,0
0.000335076,0.260536339,3.135908476,17.52959603,12.69115753,0.015358727,0.231436214,0.953455093,0
0.000365315,0.271654298,2.972232679,15.93058176,12.68689254,0.014156374,0.237780197,1.653545965,0
0.001592959,0.272092948,2.911944902,15.67100901,12.69036418,0.014757438,0.409965844,2.353209137,0
0.001885836,0.273517757,2.77573173,15.0246483,12.7171039,0.02869163,0.397942855,-0.750551627,0
0.000561532,0.273973374,2.792655517,15.18677018,12.74399038,0.017527988,-0.147651629,0.190852798,0
-0.00113101,0.262267641,2.903786505,16.41213999,12.74514394,0.013377899,0.265646373,3.168911836,0
0.000902435,0.263007057,2.891871113,16.34415265,12.74440264,0.013684466,0.20565108,3.487686293,0
0.001508998,0.261294455,3.055529705,17.41713245,12.7374927,0.015692986,0.281290533,1.909683847,0
0.000902331,0.269243256,2.947059193,15.86983661,12.76813333,0.045640172,0.295130205,-1.471605178,0
0.002981415,0.287881759,2.752305004,13.6020161,12.82820756,0.031919648,-0.930469512,1.411401489,0
0.001791857,0.296707207,2.598841428,12.69684829,12.87124601,0.047147215,1.296129508,1.037509978,0
0.001671106,0.286068337,2.622964415,13.73765791,12.9362539,0.05811425,-0.679053805,-1.075145833,0
0.002764853,0.293508676,2.649979924,13.23998088,13.00468047,0.035387716,0.368947877,-1.186710407,0
0.0021955,0.311193183,2.539868481,11.62949718,13.01737322,0.02945003,-0.140897491,-0.663167896,0
-0.000752492,0.300972954,2.663016756,12.74582139,12.99423964,0.020671494,0.191129351,0.34907535,0
-2.76E-05,0.266219618,3.155007193,17.29252308,12.97358475,0.017719753,0.434474407,0.500779368,0
0.001379124,0.256259818,3.261331273,18.71012333,12.98459102,0.037771583,1.217636876,0.251420175,0
0.001649734,0.268909796,3.057689624,16.85543108,13.01905103,0.033596829,-0.433325284,-0.608201671,0
