mean_ecg,std_ecg,skew_ecg,kurt_ecg,mean_eda,std_eda,skew_eda,kurt_eda,Label
0.002283495,0.302576583,0.633979068,7.301513283,2.177602768,0.118577251,-1.04186874,-0.613610761,0
0.016562929,0.263988193,0.87818779,11.20975424,2.227545711,0.025012224,0.184801887,-0.573140404,0
0.00196361,0.258986081,0.841541221,11.1887923,2.19254085,0.021505296,0.121732242,1.282104372,0
-0.000431508,0.258448204,1.007892874,11.90032504,2.166106742,0.01729702,0.002815506,5.924453212,0
-0.001706791,0.25966727,1.101037363,12.38384684,2.150484576,0.013074145,0.427316522,9.294688776,0
-0.001177819,0.254347253,1.097653642,13.19806119,2.149384962,0.013365673,1.137813618,2.133204481,0
0.001745865,0.255884412,0.991797431,12.31727946,2.162797219,0.016176432,0.304489113,0.922440654,0
0.008092202,0.252925396,0.811282338,9.830961788,2.17163778,0.015942951,0.949130344,2.04297366,0
0.001471743,0.250630391,0.678044947,7.967194419,2.184746661,0.021320198,-0.028367864,-0.589865028,0
-0.003533759,0.263524771,0.812406012,9.650390211,2.192487826,0.014465081,0.560086158,1.06964397,0
0.003243092,0.267254941,0.961650064,10.9003075,2.176106099,0.016481535,0.656711565,0.45207571,0
0.000801852,0.245015697,1.035122382,12.11607266,2.161644254,0.012366065,1.115912297,2.354434519,0
0.001840962,0.244186311,1.230117659,11.91182321,2.164736557,0.013752502,0.649981753,1.988488201,0
0.00297515,0.247790497,1.569744856,12.87238116,2.165712411,0.013525017,0.633125251,2.222478313,0
0.001462359,0.233615276,1.642358268,14.47250228,2.153056226,0.013185825,0.872232752,1.678889118,0
0.000565024,0.246240424,1.314083623,12.10723338,2.141358621,0.013000055,0.987545437,2.274374303,1
0.001509692,0.242117886,1.284811404,13.16894687,2.12934167,0.013376129,1.054379298,2.209089675,1
0.002467085,0.228015245,1.286739698,14.60814499,2.118711526,0.012257461,0.980872152,2.296786108,1
0.0014136,0.224781956,1.440785117,15.49019513,2.107020787,0.014586741,-0.20189085,15.62730462,1
0.002284345,0.220184853,1.660322304,17.11638046,2.093397849,0.013580814,-0.003595819,17.70648673,1
0.000983715,0.219135218,1.761068194,17.15330195,2.0821458,0.012869598,0.117286153,19.10114132,1
0.002004802,0.22374927,1.440904831,14.98859669,2.073004205,0.012261722,0.187050562,21.20564083,1
0.003630465,0.221217817,1.394706719,14.97202933,2.062559891,0.013569572,0.622974009,1.60390818,1
0.000762759,0.217664833,1.583611804,16.40126349,2.04913232,0.013762195,0.945283404,1.78926419,1
-0.000837106,0.21911473,1.522199688,16.34770786,2.038325827,0.0118337,1.264598965,3.057579404,1
0.000445548,0.216318921,1.586749272,16.67106896,2.031224115,0.011728885,1.235134477,2.868782906,1
0.003190757,0.214988555,1.582859778,16.27947008,2.022895377,0.012694745,1.025799645,2.319204753,1
0.002239184,0.224136578,1.451948712,15.04609411,2.021357019,0.012420745,1.026237821,2.436447345,1
0.001603631,0.228072785,1.398912498,14.67123551,2.026205335,0.012146741,1.160531555,3.021543363,1
0.00079458,0.227816722,1.424538513,14.24742605,2.022111784,0.013002395,1.128885016,2.514464424,1
0.000909354,0.221377757,1.520963626,15.17432992,2.014504514,0.011740641,1.37390292,3.575300835,1
0.00287335,0.22346502,1.507403219,14.71711497,2.01062415,0.011367562,1.36998711,3.60208759,1
0.000631701,0.231496723,1.476782536,13.39391361,2.003978838,0.012382022,1.20768753,3.42651396,1
0.00162272,0.220799132,1.662445964,15.32095587,1.994602803,0.012264095,1.356475285,4.376921971,1
0.002118413,0.215269605,1.762586908,16.83137256,1.985333579,0.012621859,1.006029807,2.400891571,1
0.002241728,0.222837396,1.710871019,15.70917401,1.973619407,0.013679089,0.890053938,2.259727086,1
0.002977079,0.223006192,1.778736178,15.79585063,1.96234981,0.012763104,1.224340112,4.088364857,1
0.001503898,0.218433319,1.952907213,16.31977805,1.953382819,0.012520248,1.223502319,2.524778925,1
0.000929123,0.210512708,1.992774404,17.567631,1.944785309,0.012427565,1.26394233,2.946259826,1
0.00069072,0.211066475,1.927199167,18.26178583,1.93663063,0.012784813,-1.520706113,71.40401333,1
0.002392149,0.227691196,1.683168357,15.43886268,1.930447769,0.012082954,-1.735606913,83.1883084,1
0.001597092,0.225101628,1.671119582,15.955105,1.925233732,0.011986107,1.331596658,3.269806716,1
0.001770623,0.222481218,1.751266196,16.03793128,1.918368094,0.012787354,-1.476060264,61.74678664,1
0.001555801,0.221564799,1.817946289,16.12906073,1.913141687,0.012050042,-1.798144851,72.69179459,1
0.001796951,0.230987652,1.823674569,15.53321461,1.909578596,0.012162651,-0.738805808,51.07073137,1
0.001704941,0.231063361,2.033316146,16.89061448,1.903511974,0.012896826,-0.4989128,37.55284943,1
-8.17E-05,0.213387242,2.234847293,19.98542391,1.89453501,0.012696721,1.108611323,2.423698803,1
0.00203183,0.217278127,1.883388798,16.61762717,1.887041255,0.011644318,1.398856427,3.675752925,1
0.001957064,0.211431914,2.125191614,18.15575272,1.88246242,0.011640687,1.439717838,3.750275205,1
0.002484872,0.204075088,2.497837393,21.49624188,1.876653344,0.011932491,1.270661893,3.108863651,1
0.000959911,0.217317949,2.082443514,17.85398216,1.869801876,0.011793707,1.283236181,3.058558445,1
0.000584773,0.217331673,2.0080537,17.78207467,1.863913018,0.01153769,1.323792936,3.275109992,1
0.002311288,0.210106191,2.007888127,18.64091967,1.858501816,0.011591158,1.265957041,2.935916873,1
0.001992514,0.210792397,1.965888171,18.2756612,1.853661564,0.011741075,1.431504806,3.38301091,1
0.001322172,0.206977126,2.049100981,18.8859777,1.849169213,0.011826122,1.461121335,3.643744655,1
0.000753826,0.211239147,1.902789631,17.00636911,1.845170266,0.011853897,1.601251754,5.941379795,1
0.001785148,0.212805618,1.85572961,16.81034421,1.841719001,0.011877542,1.628249371,6.384902024,1
0.002682109,0.215409473,1.822651966,16.50841639,1.83666311,0.011971486,1.357660139,3.974946466,1
0.003383475,0.21539702,1.954483968,16.9914362,1.828679875,0.012917912,-1.672868166,73.59907685,1
0.000165403,0.206870223,2.065969602,18.40122567,1.82286693,0.012070752,-1.933128935,89.70861644,1
-0.000448968,0.206530658,2.088304391,18.58488096,1.819534029,0.011733268,1.398110832,3.418583221,1
0.002445432,0.213350903,2.012835455,17.39597709,1.815144839,0.011769109,1.433197341,3.673264387,1
0.003492253,0.213249302,1.905619476,16.49325481,1.810340009,0.012042363,0.076148056,25.7256078,1
0.000930947,0.211396363,1.880918062,16.51429568,1.805598123,0.011868896,0.032076145,24.75037193,1
-0.000475034,0.290333206,1.197219564,6.627054782,1.807484382,0.017070251,1.398309389,2.705091627,1
0.002811127,0.300642517,1.029303721,5.857949346,1.838399669,0.031750236,-0.185866269,-1.194548368,1
0.001298159,0.243505471,1.381837635,12.55624536,1.858483778,0.014249296,0.474729957,5.354974061,1
0.000366231,0.234062296,1.779776392,15.50933746,1.846118164,0.013479839,0.674905744,7.215847273,1
0.00121633,0.229272619,1.863100397,16.17898637,1.832918603,0.013895344,0.715608576,2.169244615,1
0.001202624,0.223347937,1.826668128,16.0167123,1.82023735,0.012657276,1.172874916,3.00309241,1
0.001547398,0.2206768,1.939132855,16.4290421,1.81140055,0.012196114,1.36112857,3.745718583,1
0.002311903,0.219546395,1.951676769,16.87981556,1.804221453,0.011614062,1.392760403,3.548466903,1
0.001523509,0.209041236,2.055336127,18.63389848,1.798141643,0.011474618,1.382182733,3.968297224,1
0.000750033,0.208184613,2.151571077,19.30832897,1.791534424,0.012094022,1.231301519,2.95379795,1
0.001280594,0.206789586,2.105677796,18.9583554,1.785137503,0.011763706,1.424550616,3.391365432,1
0.000180686,0.211044592,2.021049335,17.53453632,1.779646083,0.011781238,1.511461977,4.293228065,1
0.004149405,0.209599549,1.947607663,17.15382046,1.773576736,0.011872539,1.465303604,4.39339883,1
0.004366627,0.203717193,2.015914382,18.3416051,1.768033164,0.011624606,1.369646195,3.47777016,1
0.000453971,0.203393941,2.134026921,18.91109943,1.763421195,0.011671786,1.384656152,3.394633639,1
0.000851081,0.203875793,2.143824314,18.95283588,1.758269555,0.011767113,1.449969623,3.583719616,1
0.000910623,0.204977866,2.142561957,18.95233544,1.753031104,0.012193021,-1.534925679,80.61372278,1
0.001848509,0.205533258,2.171648278,19.03121749,1.747820609,0.012478095,-1.178628782,69.85737099,1
0.002082772,0.215047399,1.928737125,16.52788012,1.743563189,0.011573092,1.610101206,4.893549067,1
0.001025286,0.222106447,1.879063042,15.79248165,1.739188984,0.011820652,1.474278245,4.011041298,1
0.001744112,0.224791757,1.876508475,15.64829951,1.735007858,0.011667862,1.612076035,4.992268267,1
0.000720585,0.229327752,1.767408081,14.9033993,1.732786288,0.011678675,1.66659199,5.251910381,1
0.001859547,0.21972429,1.983529037,17.2950202,1.729403687,0.01160642,1.587087684,4.474017466,1
0.00198194,0.207644436,2.131661475,19.20007611,1.724972371,0.011596296,1.477741738,3.572655519,1
0.001739267,0.207531556,2.089140448,19.0279536,1.720113155,0.01168515,1.509551942,3.790317613,1
0.001131762,0.207702614,1.997586082,18.73012005,1.716358566,0.011306383,1.65013068,4.435140365,1
0.00198436,0.215813944,1.839335545,16.65432016,1.713560867,0.011365152,1.607855975,4.91480615,1
0.003099845,0.217527134,1.944764204,16.98916787,1.710133198,0.011366252,1.5711885,4.781618565,1
-0.000121693,0.207016769,2.080229692,19.1705717,1.707492992,0.011590649,0.793520623,13.87698003,1
0.000634264,0.205339268,2.086064931,19.07743918,1.704089137,0.012253784,-0.541069653,30.15322656,1
0.002012296,0.211948327,1.959460352,17.0222297,1.699916131,0.011885731,0.024391697,23.35343197,1
0.002177366,0.217235288,1.89720129,16.33689611,1.696317836,0.011565662,1.619523566,4.969876721,1
0.001487778,0.215936743,1.948633326,17.48828841,1.692997033,0.011622297,1.639885922,5.555918202,1
0.002580499,0.221958812,1.865169323,15.45526264,1.69313033,0.012580612,-0.234636726,32.33758507,1
0.002031058,0.228879004,1.974438163,14.28144995,1.698584475,0.013910373,-0.168315651,23.30000258,1
0.001434958,0.226200802,2.154314448,15.47128062,1.696462032,0.013849158,0.71219714,7.110180281,1
0.001655535,0.224394408,2.125599855,15.50103059,1.689705712,0.011670225,0.355570639,22.39976761,1
-0.000437262,0.212374098,2.334727806,17.43446966,1.688065338,0.011504238,0.889855925,13.93310366,1
0.003303635,0.215925758,2.303973633,16.5611106,1.686156082,0.011424551,1.468008816,4.111080185,1
0.002824605,0.234342027,2.103104728,14.9066672,1.681592723,0.011946247,0.90320383,8.930679742,1
-0.000739962,0.225536124,2.271628556,17.5915576,1.676052638,0.011660984,0.959189942,9.098996374,1
0.001639173,0.220747714,2.326910801,17.88636814,1.670917674,0.011858215,1.292051795,3.843119429,1
0.002999333,0.222360816,2.31661695,17.39016544,1.666126306,0.011671667,1.305496766,3.564026095,1
0.001091629,0.217419313,2.40339219,18.82180198,1.663007191,0.01172469,1.377162847,3.543718657,1
0.002521735,0.220987017,2.55847195,19.07182125,1.660201427,0.011543792,1.350757693,3.389818547,1
0.001770578,0.22244314,2.464958816,18.57397637,1.658244106,0.011307169,1.4832882,3.695406767,1
0.001572752,0.217838265,2.33136963,18.85724752,1.656870924,0.011178812,1.605980209,3.787099899,1
0.002068817,0.21546151,2.442015122,19.39847046,1.655361448,0.011440921,1.199925483,8.033197682,1
-0.000165259,0.216209494,2.454028107,19.29476708,1.653682436,0.011543554,1.260016763,8.362711547,1
0.001159038,0.216561947,2.443101725,19.10277655,1.651701736,0.011306377,1.607807589,4.650137016,1
0.00153668,0.216710873,2.432914228,18.84505855,1.649920109,0.011269322,1.573182358,3.977065567,1
0.002027056,0.217016491,2.44428075,18.86614418,1.64760279,0.011379914,1.569630229,3.694764939,1
0.000685298,0.234750752,2.040270533,14.72796976,1.64808633,0.01178082,1.453930949,3.526525756,1
0.002728801,0.235983257,1.927255643,13.65202769,1.649950409,0.011826595,1.484922418,3.883094515,1
0.006752178,0.221591369,2.289045607,16.75366233,1.650451279,0.011791499,1.539054581,4.431500448,1
-0.000189429,0.21242722,2.557172375,19.08024484,1.654511152,0.012060627,1.249489285,3.296420218,1
-0.001440909,0.201251628,2.618771575,20.67534968,1.655043847,0.01165954,1.313378329,3.445136005,1
0.000525683,0.218302531,2.095419368,15.80879448,1.651745333,0.011783783,-0.833180161,56.86912378,1
0.001058938,0.218324469,2.254091173,16.61851322,1.650342287,0.012281835,-1.884965392,70.71492035,1
0.003581837,0.212671794,2.50269895,18.74730865,1.64972665,0.011903453,0.140982675,30.33718086,1
0.003307768,0.217971025,2.293208303,16.66392078,1.650108773,0.01151831,1.689970289,4.883120871,1
0.001348631,0.203101712,2.46907112,19.12943782,1.64999564,0.012024969,-1.492611693,82.25695518,1
0.000601194,0.198365132,2.473896586,19.63304983,1.650192152,0.011938906,-1.607614067,84.25671912,1
0.001263369,0.200147684,2.352840493,18.43781879,1.650560379,0.011283776,1.526477285,3.805903344,1
0.002293723,0.207207123,2.26790425,17.49238774,1.648944855,0.01138547,1.496062512,3.878309839,1
0.003617576,0.213374228,2.520703863,18.17299998,1.646464375,0.011318133,1.618895915,4.220524649,1
0.000784424,0.205076631,2.636222905,19.72871219,1.644249071,0.011930988,-1.522373937,80.44478748,1
-0.000314765,0.206937244,2.488143477,18.52100733,1.642926734,0.011739173,-1.61076637,84.43641153,1
0.001895756,0.206179099,2.617537888,19.09044944,1.641604178,0.011126121,1.536190362,4.104244015,1
0.003462832,0.205530492,2.601485061,19.21534946,1.640559115,0.011299547,1.584257034,4.042984909,1
0.000402786,0.203189493,2.591102826,19.34889651,1.641024944,0.011604054,1.75694314,4.633913994,1
0.001476523,0.232719892,2.464501911,13.50043673,1.639944621,0.011513209,1.779654479,4.757736454,1
0.002296574,0.2578157,1.778256771,9.281497594,1.642306628,0.014592402,1.386200854,2.292968445,1
0.00025727,0.227468889,1.607456266,12.69522304,1.647321974,0.015123275,0.997397486,1.55687454,1
0.0008806,0.219490764,2.340314575,17.17759601,1.646046284,0.012877992,1.472561125,3.961123117,1
0.00153991,0.212147641,2.692052208,19.31288292,1.640527671,0.011989701,1.663395756,6.449061479,1
0.002764526,0.200116117,2.898172779,21.85499645,1.635985347,0.011434724,1.617853157,5.53314104,1
-0.000312358,0.216365214,1.987142687,14.78404925,1.658676093,0.031634726,0.601317098,-0.930685245,1
-0.000218216,0.220209559,1.837289184,13.83958044,1.686107581,0.021875333,-0.326351492,0.486799605,1
0.003573558,0.233306503,2.068862819,14.45413497,1.679894148,0.016483431,0.952541613,0.876618104,1
0.002386466,0.238758237,1.94007046,13.64735937,1.670272773,0.011145176,1.532456705,3.823207508,1
0.000699888,0.237565742,1.887948328,13.00082799,1.66987648,0.011486495,0.258212647,22.74457341,1
0.002185671,0.236069663,1.88830664,12.78291603,1.67149571,0.011536681,0.211337793,22.96891162,1
0.003419606,0.230078706,2.089922039,14.53747416,1.673351015,0.011068705,1.484082777,3.83012758,1
0.003728125,0.231785652,2.149548625,14.51534219,1.674372918,0.011140962,1.527603181,3.967820916,1
0.001911072,0.23480733,2.247285995,14.33369797,1.674727304,0.011244006,1.496341927,3.87763854,1
-0.001304038,0.238018438,2.25875195,14.13502773,1.673241643,0.011253138,1.353413502,3.746637251,1
0.000667079,0.233694198,2.312942488,14.96543798,1.670775604,0.011249323,1.305553791,3.319474211,1
0.003197205,0.220847971,2.494260136,16.89305651,1.668427713,0.011382431,1.463211458,3.389972602,1
0.002249209,0.219807978,2.503293584,17.01894518,1.66573895,0.011502538,1.346839278,4.886597082,1
0.000250017,0.220958563,2.478198804,17.0224786,1.663026537,0.011203553,1.310708027,4.765443143,1
-2.87E-05,0.224551823,2.205994032,15.50946488,1.662054062,0.0112688,1.510877512,3.426659773,1
0.002455412,0.224583086,2.176332942,15.28173907,1.660979571,0.011483233,1.507673836,3.633958787,1
0.002248843,0.216628708,2.193890984,15.51319082,1.659464645,0.011439342,1.573660119,3.854432716,1
0.000358566,0.218854389,2.229287223,15.4152135,1.656870433,0.01165881,1.461487335,3.88195774,1
0.001328705,0.215027552,2.544327347,17.68570159,1.653313228,0.011501322,1.553510069,4.335081551,1
0.002952765,0.214933988,2.382825576,16.69034142,1.651203156,0.011225537,1.620053031,4.260598289,1
0.002252622,0.212829692,2.260436045,16.24719371,1.650191389,0.01096325,1.459374485,3.532748543,1
0.001934071,0.218633215,2.144737142,15.1796691,1.652375848,0.011356097,1.396800815,3.358149416,1
0.001388992,0.225881692,2.02936367,13.9164029,1.652695738,0.011392022,1.444894401,3.562064852,1
0.000741518,0.213350987,2.191973354,15.66231314,1.649975368,0.010888917,1.475196997,4.004710947,1
0.003584414,0.21733968,2.065644192,14.7620162,1.65109024,0.011025565,1.529399017,4.184173039,1
0.001715999,0.21877147,2.154934819,15.19386004,1.652125222,0.010924817,1.558374831,3.963344194,1
-0.000219798,0.212417664,2.278924292,16.27599097,1.649596187,0.011067425,1.371567726,3.57992667,1
0.001513014,0.21162122,2.214118046,16.19083889,1.646243177,0.011202384,1.531550826,4.416445602,1
0.002073885,0.213146179,2.351289622,16.9096608,1.644494847,0.011035645,1.63934318,4.9957247,1
0.002519845,0.213520909,2.379904754,16.69338007,1.643442372,0.010924894,1.567807603,4.373215002,1
0.002985652,0.210814706,2.425588273,16.71543151,1.640634755,0.011158122,1.545762336,3.856231238,1
-0.004827059,0.223228195,1.889940066,13.48845012,1.646471133,0.015397777,0.964151667,0.76857751,1
0.001365725,0.253510044,1.304654385,8.459498085,1.662285451,0.015638532,0.318299704,0.877903724,1
0.006581981,0.261626918,1.446947073,9.011042236,1.672422791,0.011717148,1.412837384,3.986186241,1
0.000686129,0.251672419,1.79190084,11.53560683,1.671683448,0.011900895,1.430493156,4.598004069,1
0.001796879,0.251231336,1.799488954,11.10826248,1.66625388,0.011843031,1.571523547,5.822166761,1
-0.000405225,0.241975305,1.947980186,12.20009559,1.6620915,0.012162587,-1.160859128,69.72468209,1
0.001836796,0.236094012,2.1734258,13.94806559,1.661003821,0.012235053,-1.066652147,66.61139848,1
0.002323962,0.236309014,2.144726039,14.39358383,1.661311667,0.011493737,1.509663386,3.68133952,1
0.002448264,0.235115696,2.03883862,14.01247081,1.660125787,0.011472381,1.463464593,3.815526096,1
0.003524905,0.240082237,1.691522399,12.95768595,1.658268084,0.011589244,1.551279445,4.403900547,1
0.000435987,0.237322583,1.58459144,13.76830994,1.657370976,0.011400727,1.560250846,4.361938875,1
0.000783835,0.230294723,1.757867735,15.03740892,1.657006019,0.011352591,1.562901761,4.266277397,1
0.002794203,0.223691446,1.806034242,15.43471021,1.656158175,0.011252176,1.4163192,3.800960711,1
0.0023261,0.222328683,1.805299077,15.45222098,1.655006518,0.011140637,1.427443233,3.625273612,1
0.002754214,0.2290397,1.835814488,15.1635907,1.65233405,0.011012348,1.432207625,3.458424217,1
0.001345989,0.229175075,1.918352462,15.67651282,1.648418536,0.011180907,1.365697705,3.41711952,1
0.001292228,0.229858563,1.84753276,15.28658086,1.643840626,0.011703685,1.302745818,5.006754341,1
0.000794325,0.225699258,1.744197937,14.25291585,1.642021561,0.011720524,-0.394767276,41.96777549,1
0.000822366,0.224485864,1.912047401,14.66238315,1.644178227,0.011736511,-0.286581446,41.75290772,1
0.000789629,0.223074969,2.025294233,15.57973509,1.645454625,0.011371314,1.618072525,4.24129026,1
0.001126903,0.220440448,2.027124752,14.92560856,1.644717026,0.011148218,1.621622261,4.073328389,1
0.00168134,0.219157259,2.04929262,14.55160541,1.643665041,0.011044879,1.580566003,3.807113286,1
0.001495985,0.214736387,2.0696391,15.25235888,1.645805958,0.011517925,1.354421354,3.496955907,1
0.002365631,0.214300436,2.10421566,15.61036359,1.646347809,0.011265773,1.420121655,3.766585173,1
0.001597151,0.215554384,2.133489185,15.57184498,1.644112451,0.010945119,1.53041432,4.112689196,1
0.001292385,0.222545678,2.132002356,15.08872717,1.643994304,0.010985664,1.504536317,4.066906855,1
0.002335124,0.222596965,2.050045174,14.64211856,1.643110003,0.011208025,1.121466581,8.242958154,1
0.001373396,0.216660078,2.026958007,15.03789961,1.641884286,0.011387508,-0.005648126,27.99198709,1
0.000222833,0.214005503,2.090848744,15.37015521,1.640789631,0.01128381,0.283158718,24.45356262,1
-0.001134423,0.22379197,1.858226949,13.04180015,1.647420829,0.019286558,1.263429205,1.198198311,1
0.003872216,0.226194417,1.900294751,13.66497362,1.668958064,0.022875433,-0.224353669,-0.489654607,1
0.004196058,0.214864191,2.171194861,16.52634094,1.6785626,0.012560918,1.290188407,3.05356901,1
-0.000550742,0.214858884,2.140184562,16.11851867,1.672315925,0.011365399,1.494987214,4.049514573,1
0.001861738,0.214521227,2.207159671,16.52418491,1.669568471,0.010961691,1.509818912,3.855366989,1
0.003909956,0.214187836,1.965998585,14.73485037,1.668880408,0.011131461,1.723468274,6.499621685,1
-0.000281865,0.215793349,1.766073764,13.51030309,1.681834848,0.018563636,0.568234151,-0.106199714,1
-0.000143901,0.214421104,1.961261648,15.79949555,1.69272183,0.013680573,0.567388286,1.42035196,1
0.004946156,0.223801428,2.086186887,14.9305504,1.697458158,0.015238995,0.809729427,0.913220277,1
0.001050411,0.22285055,2.35825678,16.21082401,1.710174942,0.015241898,0.277284982,1.384430628,1
0.001296786,0.207392676,2.734996746,20.20978019,1.713125937,0.012291264,1.296466159,3.681135583,1
0.002624333,0.218793545,1.953751877,14.3980435,1.707959638,0.011726729,1.453941572,4.236301147,1
-0.000939305,0.236313776,1.518092293,10.97011052,1.713990729,0.015896401,0.841261721,0.634307807,1
-0.001419074,0.229706304,1.611649457,11.95664697,1.726188714,0.014524356,0.385549973,1.890081344,1
0.002918773,0.218461409,1.666420751,12.97587863,1.731720625,0.011421423,1.522282143,5.047824029,1
0.003935466,0.206004288,1.935391197,14.90251225,1.734292875,0.011789517,-0.280738603,37.42498852,1
-0.000466755,0.208185299,2.065209857,15.21546811,1.735988235,0.011931727,-0.388445097,36.04216074,1
0.001835103,0.215681065,1.957433836,14.02996185,1.736711121,0.011516026,1.163367999,4.427533513,1
0.005303676,0.208966253,1.948692864,14.71577893,1.735606166,0.011551531,1.281489621,4.727407241,1
0.00104994,0.205682886,1.926872074,14.93620924,1.732498605,0.011493737,1.57083493,4.015494887,1
0.000146707,0.203610493,2.006878716,15.41852393,1.729552569,0.011361734,1.556023174,5.153415811,1
0.002180858,0.204391718,2.076335941,15.50335904,1.727136176,0.011341152,1.472528974,5.015083511,1
0.0017293,0.205561682,2.069649732,15.26773534,1.724863379,0.01123756,1.53875996,4.068018537,1
0.003536708,0.213586736,1.867440825,13.71853908,1.722447968,0.011202871,1.530955375,3.900453926,1
0.001023396,0.207293005,2.05959322,15.37956266,1.719092669,0.011462588,1.58943345,4.575995563,1
0.001403968,0.205034044,2.172899575,16.03678065,1.715153067,0.011458232,1.687893795,5.019760303,1
0.001852563,0.204503526,2.179571709,15.98525701,1.712429156,0.011280154,1.575102079,4.306181617,1
-0.00075582,0.201415032,2.266595598,16.60166115,1.709684699,0.011168869,1.426446307,3.772990715,1
0.001722277,0.208056129,2.002749408,13.99484113,1.707871573,0.01073806,1.483735738,4.013627772,1
0.002388218,0.203809626,2.187389671,15.44309916,1.706588691,0.011126839,1.210343902,7.969194982,1
0.002243768,0.201333216,2.162132451,15.7699864,1.703925596,0.011315977,1.352286371,7.794960096,1
9.35E-05,0.201057856,2.084351147,15.15067041,1.701592527,0.01107565,1.637938867,4.539254059,1
-0.000653065,0.202184483,1.914982156,13.87753774,1.701759284,0.011299413,1.429144389,3.234127529,1
0.004674598,0.204562339,1.942959509,14.12715406,1.7071155,0.012280264,1.142654201,2.443462964,1
0.011709176,0.215279981,1.706597956,12.01722771,1.710160664,0.01136373,1.352904929,3.156883078,1
-0.001916454,0.238009891,1.593871608,11.29162363,1.722853742,0.018029665,0.445219434,0.039349986,1
-0.005862887,0.249123532,1.84137633,13.00279766,1.731259591,0.01294007,1.208524002,3.114122785,1
0.002612241,0.247589612,1.59752334,12.26329698,1.724282346,0.012409302,1.333832343,3.491067787,1
0.001737213,0.244232457,1.61452542,12.7890634,1.733813259,0.016683366,0.277262534,1.162315134,1
0.003983786,0.23700744,1.845371651,14.10364533,1.744167655,0.011520268,1.176231731,9.777218173,1
-0.006782691,0.233276531,1.883040759,14.33915386,1.773459135,0.037137194,0.477237912,-1.292647801,1
-0.002582971,0.238301376,1.692464905,12.66589965,1.825759234,0.031718355,-0.857769643,0.533339969,1
0.009868515,0.241436713,1.501541406,11.55822773,1.839306913,0.015954301,-0.227324203,20.06895919,1
0.00439973,0.239103124,1.532075764,12.17158875,1.828971754,0.01172098,-0.928525648,59.51992189,1
0.001546535,0.236615809,1.63153544,12.90185094,1.826091112,0.010924947,1.447594554,4.66138702,1
0.000512532,0.237473149,1.701803343,13.20925479,1.824711445,0.010849973,1.500552914,4.808186805,1
0.002438821,0.230903186,1.759234376,13.9398112,1.827288491,0.011259924,1.326685946,3.509530788,1
0.001878767,0.231711309,1.809281076,13.55153007,1.833880888,0.011470064,1.184500591,3.108832017,1
-0.000506771,0.226982345,1.949705554,14.39752318,1.838830621,0.010774755,1.620425712,4.52121314,1
0.001195489,0.220606845,2.074343529,15.72503275,1.840938895,0.010878862,1.276371988,6.990854425,1
0.001385572,0.228029834,2.033707795,14.67170808,1.842609406,0.01095844,1.271649833,6.835360387,0
-0.01060711,0.235784605,1.796162014,12.89575339,1.863752038,0.038978832,1.497467539,1.357906854,0
-0.000164703,0.240903801,1.679579902,11.19660871,1.938406754,0.063811648,-0.479692278,-1.317288979,0
0.013487176,0.238536151,1.894226337,12.31555767,1.983463069,0.018423668,0.038172185,0.431760612,0
0.00716954,0.245626047,1.94027235,12.56397853,1.97594332,0.01483476,0.383460846,1.40577321,0
-0.005329422,0.247994564,1.614647525,10.74270122,1.988918522,0.024671388,0.85479536,4.138734284,0
-0.004131082,0.24735387,1.690934836,11.4702974,2.029628481,0.037285336,-0.522141086,0.118866843,0
0.009516259,0.246366122,1.742358519,12.08808261,2.051658957,0.015406802,0.735876728,1.028376079,0
-0.00396545,0.25292845,1.102726032,9.195199901,2.053129196,0.025257316,2.035459043,4.315040251,0
-0.00590833,0.258312131,1.101325749,8.633870479,2.099422509,0.045362669,-0.14994386,-1.454266197,5
0.011056405,0.253814237,1.21105771,8.788266779,2.13965416,0.016085572,-0.028686516,3.749405454,5
0.007212158,0.252251928,1.237146047,8.790994401,2.161488778,0.024473286,0.18692971,-0.046389906,5
-0.000685612,0.256441239,1.262696026,8.931251542,2.202070127,0.026592738,-0.191541212,-0.51648691,5
0.000989685,0.260346518,1.133239376,7.865157724,2.235970851,0.021316736,0.594680572,0.243317137,5
-0.008117144,0.265659062,1.123099106,7.195658332,2.264974649,0.038937491,1.479944849,1.412207223,5
0.003668348,0.266512129,1.119421078,7.333040878,2.298770523,0.038706459,0.033564919,-0.931778098,5
0.013443061,0.254090054,1.156280432,7.860925711,2.325754438,0.022019976,0.542705241,-0.04361034,5
0.00173378,0.253965001,1.239146686,8.362333167,2.348202406,0.024910386,0.258746797,0.205232732,5
0.002264335,0.262623071,1.185011155,7.995168407,2.375664902,0.022830111,-0.232104075,-0.676082967,5
0.002193348,0.256548113,1.209157657,8.051798835,2.403306253,0.021453266,0.712419449,-0.12934578,5
-0.000407142,0.250062399,1.308662354,8.871310982,2.411165564,0.017380676,0.69094179,0.653419858,5
0.002564451,0.253488824,1.206812621,8.682250431,2.415098899,0.015204254,0.907732137,0.93455106,0
-0.002833014,0.252930004,1.102725414,7.900922655,2.43494715,0.018595853,0.776766268,0.993372421,0
0.001910542,0.243701592,1.312568822,8.817479512,2.464456504,0.025810779,0.421178427,-0.757551072,0
0.004847103,0.241278017,1.587292999,10.01155978,2.473733194,0.018984908,0.759086778,0.041527767,0
-0.007995667,0.25013803,1.371863207,8.922212864,2.51187112,0.075081033,1.454363413,0.624672336,0
0.006343604,0.245742301,1.294373463,8.993068351,2.574051884,0.062472797,0.160451014,-0.890234345,0
0.008308986,0.239113071,1.135400514,7.871641024,2.568453271,0.029793703,1.149894687,1.177634803,0
-0.000875689,0.238066224,1.410417998,9.568754824,2.535094288,0.018353295,0.31642026,-0.029606985,0
0.001630698,0.235594508,1.663106264,11.35106425,2.512945502,0.01474751,0.652578845,0.353809127,0
-0.000825636,0.236150464,1.423136105,9.457827399,2.503556824,0.010655194,1.506550874,3.909278678,0
0.00280069,0.239908673,1.588092787,9.978152342,2.499115862,0.011476497,1.187158223,3.707141852,0
0.002027958,0.241084789,1.492257833,9.858595846,2.488949803,0.013058246,-0.593542863,30.49006146,0
0.003492763,0.237729973,1.382822666,9.675802961,2.478210722,0.012613283,-0.40139317,29.80713465,0
0.001623308,0.236059653,1.493587155,9.961311711,2.465725381,0.013810632,0.489630654,0.846476641,0
-0.001728215,0.232568065,1.496623068,10.16151789,2.456337956,0.012013355,0.875120066,1.627186463,0
0.000603254,0.238727986,1.436531411,9.615581136,2.452534703,0.01151549,1.169536011,2.446850403,0
-0.00586668,0.243514751,1.339856857,9.011305368,2.453944124,0.030482393,2.446384303,6.15193093,0
0.001659746,0.237987386,1.357302442,9.330281648,2.527125931,0.076759446,-0.173928568,-1.704202965,0
0.013687448,0.242916376,1.389993643,9.225861139,2.57557651,0.027710082,0.293921057,-0.488367516,0
0.00202121,0.241210572,1.376686362,9.209826818,2.537284034,0.022783209,0.228923381,0.59155846,0
-0.003557053,0.232227075,1.473595423,10.14510596,2.50761043,0.018241326,0.149896744,1.585292052,0
6.60E-05,0.245125752,1.401668275,9.555477883,2.485704313,0.014989077,0.704583224,0.626853529,0
0.00351745,0.258342466,1.358200932,8.762618109,2.474615479,0.012984184,0.49740101,1.553553367,0
0.002539052,0.25662381,1.427643541,8.881522456,2.478940419,0.015450354,0.276892642,0.762026151,0
0.000650168,0.244715462,1.468538772,9.564028007,2.467617253,0.021925808,0.07758735,0.000251473,0
0.00226181,0.237896197,1.385972345,9.67667125,2.438329642,0.016963988,0.446056066,0.82188833,0
-0.000593798,0.248052553,1.420053764,9.468696316,2.446589552,0.028364767,0.586579752,-1.077093871,0
0.000940168,0.25856928,1.477623304,10.07911003,2.456858281,0.024685332,0.120525538,-1.008046134,0
0.004904316,0.269622215,1.433963799,9.808201652,2.433011736,0.020965633,0.262918759,6.84391138,0
-0.00012771,0.263650096,1.499138395,9.633921854,2.42091326,0.017380077,0.506875741,14.2773777,0
-0.000502311,0.247431924,1.546794759,10.72952166,2.438157218,0.023745696,0.007454489,-0.824537209,0
0.005975117,0.2476537,1.457560513,10.40466868,2.463766425,0.018041613,0.578750984,0.947115241,0
0.000405304,0.251796374,1.443273549,9.02703547,2.49072222,0.025024906,0.373906804,-0.908563857,0
-0.003303759,0.247762058,1.504612879,10.20231231,2.517832402,0.029575265,0.874382354,1.026288657,0
0.003586193,0.251342527,1.520212535,11.58529052,2.546114077,0.0314621,-0.183817925,-0.74204938,0
0.003743886,0.245072511,1.465403415,13.24358596,2.545919473,0.023392872,0.344136698,-0.301957643,0
0.002839403,0.23035755,1.433366761,16.08989433,2.530963843,0.012607267,0.579339281,2.228790104,0
0.002890523,0.236273274,1.44020952,15.79745863,2.524594498,0.01618632,0.063375626,0.876774877,0
-0.001231659,0.239101319,1.302249342,14.71322439,2.50592308,0.017108278,0.442278757,0.415424031,0
0.000596976,0.246462904,1.278404168,13.46411075,2.507252502,0.017205339,0.357904026,0.38928141,0
0.00300669,0.252194351,1.135632401,12.44416057,2.532362311,0.020998363,0.503745132,0.04444073,0
0.000943353,0.246466107,1.174291053,13.01923042,2.533709717,0.021005624,0.328734217,0.044571959,0
-0.000687064,0.25029647,1.204328219,12.5690831,2.522710582,0.014734555,0.457940916,1.673741097,0
0.003793566,0.252644657,1.05382314,11.748449,2.522171293,0.013270665,0.633398412,2.933045179,0
0.001974976,0.246491387,1.099837678,12.18717387,2.513671003,0.014569701,0.515274337,1.128702101,0
-0.001467021,0.247135982,1.180927867,12.12586214,2.523188455,0.021150176,0.321135635,-0.243332447,0
0.003493574,0.255120865,1.114680752,11.3176597,2.534608895,0.01465087,0.771566246,1.070384024,0
0.003822399,0.262844032,1.150017882,11.18067322,2.529192189,0.012354173,0.91420326,2.08978767,0
-0.002999425,0.269441241,1.283139159,10.51409806,2.54141486,0.020298448,0.898141266,1.213178205,0
8.68E-05,0.265284715,1.121157788,9.596207004,2.621902575,0.069552682,0.062391078,-1.743311679,0
0.005825285,0.249946917,1.052319325,11.09775697,2.695111956,0.025439241,0.094244567,0.131373502,0
0.000912173,0.233289446,1.481580866,14.68360098,2.695275334,0.021695128,0.829096625,0.174055038,0
0.027958492,0.256838839,1.990324357,10.27257712,2.684454019,0.013089504,0.734579646,1.549547802,0
-0.002629839,0.366331839,-0.39757771,4.142793548,2.719318608,0.07559054,1.576419696,0.859370433,0
-0.019655287,0.35750295,-0.7283879,4.100219366,2.801536833,0.079830016,-0.533709548,-1.24979784,0
0.009006683,0.258364004,0.715124579,7.389253298,2.80151498,0.048772774,0.296293517,-1.027970793,0
-0.001296655,0.243618105,0.86089275,7.605765,2.75309857,0.013758341,-0.663131839,28.59272276,0
0.002816162,0.248436591,1.037659066,8.037261502,2.756975828,0.015048071,0.630166137,0.393504705,0
-0.002265034,0.258001925,1.148310669,7.868539591,2.759899085,0.013516107,0.316704062,8.186520334,0
0.003509256,0.263419687,1.202526731,7.273362246,2.771142088,0.020824354,0.046012855,0.637648664,0
0.008734876,0.273607942,1.074768146,6.499245668,2.783709444,0.012813541,0.492450922,1.403551659,0
-0.002297902,0.26766943,0.998768388,6.258246238,2.769763075,0.01581795,0.224295395,0.311894366,0
-0.001468087,0.26479537,1.07713698,6.524485823,2.769002587,0.01927418,0.837338178,0.398010127,0
0.006293132,0.265647494,1.067843954,6.510451329,2.765773828,0.01982934,1.06288362,0.63879673,0
0.001798285,0.257992941,1.023458071,6.369915092,2.750458745,0.012070354,0.635045743,2.129683035,0
-0.001750142,0.259418604,1.068091282,6.761923251,2.743349675,0.013167463,0.731537944,1.564217489,0
0.001575459,0.261898483,1.075437239,7.215278476,2.738563211,0.016539542,0.360690407,0.216071475,0
0.005337197,0.268034301,0.869073032,6.369298006,2.734370259,0.016170367,0.587134142,0.430590347,0
0.002601726,0.277778434,0.728133335,6.930887613,2.725325884,0.016465884,-0.096852934,0.442669996,0
-0.001551217,0.275623399,0.601294268,8.204114076,2.708987318,0.017501442,0.800035752,0.229661968,0
-0.000691426,0.241874692,0.859036004,11.40353894,2.705161558,0.012823901,0.546219819,4.928535505,0
0.002603707,0.219278589,1.710894087,16.05175479,2.716896112,0.012736371,0.2522792,6.280661881,0
0.002451069,0.22511477,1.192039005,13.95665309,2.710653687,0.016050454,0.332122882,0.03562251,0
6.91E-05,0.229896528,0.745368507,12.32801112,2.693249784,0.012038064,0.874364507,2.438005571,0
-6.96E-05,0.242535686,0.748112074,11.17706746,2.684506389,0.011945124,-1.294248308,54.08762777,0
0.002127411,0.25562261,0.853346418,9.91942903,2.724501583,0.046682211,0.112505373,-1.313685306,0
0.004091289,0.241408111,1.008453017,11.09342232,2.750706918,0.024834757,0.136449308,-0.940779139,0
0.001470612,0.232226304,0.876884052,11.86869935,2.722078487,0.017463959,0.442640127,0.009479626,0
0.001211661,0.234447479,0.822845024,11.26676187,2.716444669,0.013488199,0.728613669,2.034386482,0
0.002864875,0.243268815,0.934251313,10.95047373,2.720820999,0.013460789,0.664313716,1.718632368,0
0.001888275,0.246790426,0.782957499,10.30079893,2.707824053,0.018055658,0.345505575,-0.126588017,0
0.001437064,0.245200742,0.63091211,9.888916724,2.690358189,0.013336353,0.91716999,1.360394663,0
0.000927455,0.247097001,0.739291594,10.94467653,2.67936821,0.012550645,0.480244763,1.708094278,0
-0.002117484,0.244205242,0.775707357,11.70578202,2.672605842,0.012336789,0.781985412,1.7116735,0
0.002650321,0.239080976,0.946432739,11.97204028,2.672999246,0.012475208,0.925371176,1.593599568,0
0.005052357,0.22576589,1.223560203,13.74107618,2.668877738,0.013360349,0.906156966,1.410276283,0
0.000645244,0.235740002,1.067545818,12.22778079,2.66631873,0.013184889,0.785519074,1.485231683,0
0.002104451,0.237325126,1.203219456,12.50748013,2.699324363,0.034308724,0.209005311,-1.220129044,0
0.00278629,0.236106301,1.269220081,13.70835212,2.721409171,0.019521364,0.134464502,-0.124450064,0
-0.002011505,0.250715773,0.930606299,10.54010442,2.709694617,0.015688768,0.374400714,0.454486503,0
0.000616111,0.247319922,1.018363715,10.21081997,2.708839144,0.015211519,0.167485666,0.471324092,0
0.001928094,0.231568579,1.22045668,12.04415756,2.752874538,0.077174572,1.083856522,-0.500801037,0
-0.000943202,0.249112495,1.218449396,10.88034801,2.819085748,0.070757064,-0.900685986,-0.53245917,0
0.003719775,0.253651338,0.856531396,9.132065165,2.831961714,0.021658166,-0.077124486,-0.50881362,0
0.001717013,0.2503529,0.400171674,8.017311052,2.797995976,0.027076356,0.352859369,-0.541315405,0
-0.002983723,0.249754232,0.469247658,8.95124086,2.780303519,0.034272978,1.859012304,3.124040182,0
-9.48E-05,0.266679302,0.714664161,8.189281728,2.7997509,0.0430659,0.506161175,-0.948729075,0
0.004249329,0.278899293,0.977966067,7.631572026,2.817518343,0.027246851,0.024347563,-0.066989835,0
0.003497426,0.257997036,1.296541901,9.623311149,2.808046613,0.020273703,0.54576045,3.262616904,0
0.003937441,0.26166862,1.209020705,9.579971713,2.812586594,0.025764695,0.69728896,0.555087306,0
0.002876508,0.266267618,1.250686576,9.206512256,2.81732254,0.024332816,0.528981736,-0.311151783,0
-0.00030899,0.25629456,1.469371723,10.54663661,2.798294612,0.016276692,0.556729266,0.832295701,0
-0.000506437,0.248945057,1.46045405,10.8730596,2.782790593,0.014479775,0.203635713,1.428936186,2
0.003330767,0.244285176,1.586705408,11.22082196,2.780551529,0.015868969,0.785985096,1.027505276,2
0.003879299,0.239005065,1.688690919,11.64473546,2.780089624,0.014524466,1.158864437,1.836040992,2
-0.000126395,0.236502262,1.636307721,11.4253324,2.776836995,0.01039218,1.151106839,4.319634525,2
0.003035189,0.246174847,1.486138197,10.31620157,2.781761605,0.010550126,1.144779933,5.290463156,2
0.000203057,0.253361213,1.581005001,10.2430116,2.788966751,0.015070745,1.609653329,3.493332495,2
0.000517312,0.247990353,1.779868376,11.60574376,2.805925424,0.019989586,0.226931418,-0.397621228,2
0.003332794,0.241601853,1.675809024,11.33531994,2.819981548,0.012579691,0.637293377,2.324657914,2
0.000640169,0.246375965,1.529645296,10.28706845,2.827337102,0.013640745,0.619588387,1.380067677,2
0.001945842,0.244120243,1.419131767,10.25655491,2.826337051,0.013795223,0.549988059,3.363165562,2
0.001014529,0.231694194,1.531169144,11.60862987,2.823731995,0.01174619,0.687729807,6.431688607,2
-0.00037944,0.230674277,1.580793607,11.57412814,2.854927771,0.035755972,0.447366572,-1.223796598,2
0.002719064,0.232565574,1.417692896,10.69984302,2.885662896,0.023797687,-1.258198587,2.454583707,2
-0.001034794,0.232635387,1.377159864,10.65137432,2.889011274,0.013547457,0.671419214,2.144146452,2
0.003823229,0.232172524,1.537702915,11.23169567,2.929772949,0.044663038,0.176922797,-1.381621062,2
0.006883216,0.232766097,1.602215486,11.84476213,2.960060501,0.020164408,0.736776918,0.478687683,2
-0.001458631,0.227645061,1.264852212,10.60658872,2.940522003,0.01482015,0.451709051,0.464773492,2
-0.000374124,0.216420657,1.092721514,9.606929011,2.924089977,0.013832503,0.374499288,1.2422152,2
0.002524096,0.212885983,1.25614807,10.95138992,2.942247936,0.042460726,1.089527406,-0.020580644,2
0.000478703,0.223123427,1.463197345,12.04602977,2.984732655,0.038469839,-0.752382145,-0.17100166,2
0.001192115,0.222366149,1.492650532,12.23657433,2.992178672,0.020193742,-0.226694504,1.781957893,2
0.001134698,0.214793568,1.217898842,11.15390853,2.988776343,0.021489921,1.05329871,1.882854851,2
-0.002536684,0.219355093,1.462117206,12.3457171,3.043127768,0.053448333,0.086270453,-1.489420328,2
0.003421999,0.214999814,1.499235256,12.29577062,3.093231474,0.023886347,0.460276416,-0.446171475,2
0.004467388,0.206250103,1.057126653,9.481994823,3.099736513,0.022603159,0.37903866,-0.627818871,2
0.001451202,0.2048389,1.311361482,11.56195545,3.095889064,0.018363019,0.763308781,0.431189712,2
0.002771739,0.217999696,1.686392921,13.33651048,3.087246268,0.012734092,0.595519955,1.252193629,2
1.62E-05,0.219997999,1.775350893,13.51223057,3.087799018,0.012905807,0.53716086,1.301371518,2
0.001345851,0.212911216,1.555475147,12.33011174,3.0847229,0.012326791,0.128961364,13.18952734,2
0.004492617,0.221816433,1.638397725,12.58963564,3.092289407,0.026019066,0.888442791,0.543334207,2
0.001350821,0.217726851,1.596079877,13.02585532,3.095686395,0.02516393,0.747699277,-0.236769279,2
-0.00178654,0.200373238,0.951884429,9.664722895,3.082112067,0.015192142,0.141423961,0.60465366,2
-0.003577031,0.20125897,0.933694512,9.27700244,3.076320594,0.023348433,1.362461922,2.283390519,2
0.003958773,0.204625892,1.237845442,11.63797495,3.100478036,0.035370096,0.150309655,-0.968435466,2
0.003975658,0.193588329,0.866549836,10.48501833,3.112387412,0.023060322,0.65603088,0.22190005,2
0.00136734,0.184002696,0.657470343,9.856116151,3.108815547,0.017612262,0.009911207,-0.114789782,2
0.003255635,0.19097826,1.268151819,12.91343653,3.13152771,0.022890883,0.734945874,0.377040622,2
0.001586576,0.20408521,1.474135801,13.11177722,3.147714996,0.019922866,-0.132237864,5.949025754,2
0.000980811,0.214389696,1.476157303,12.44003822,3.130880683,0.024545753,0.13837197,1.283169771,2
0.001424286,0.224850725,1.43801375,11.43329003,3.109792818,0.013060764,0.663352733,0.982430791,2
0.003208361,0.239331119,1.598653453,11.97628282,3.104062435,0.012265196,0.9140837,1.361508179,2
0.002257167,0.229982617,1.50325598,12.09317762,3.10432069,0.013128162,0.895023399,1.422451993,2
0.002596913,0.211300101,1.495661674,12.77064568,3.115471867,0.018322754,0.423716485,-0.312526081,2
-0.000349424,0.211550932,1.520472291,12.72287622,3.121163559,0.015157952,0.373483507,0.474211866,2
-0.001264487,0.207781046,1.555913362,12.48960992,3.132344437,0.023533103,1.57655032,1.886679267,2
0.00235078,0.211017165,1.589321768,12.61154088,3.162304688,0.029096027,0.160462851,-0.93664478,2
0.002809773,0.205280458,0.898214765,9.642427156,3.197064754,0.030448509,0.435040837,-0.78813705,2
0.003661213,0.19109063,0.938290336,10.63108564,3.210804531,0.022223794,0.402134093,-0.292174231,2
0.000289189,0.188474988,1.471783876,13.64365364,3.216558892,0.022021124,0.513013975,0.501201445,2
-0.001623753,0.209313558,1.467139168,13.00505531,3.233343669,0.021031156,-0.767352111,1.753318152,2
0.000998383,0.222397175,1.401631722,11.8273005,3.230657632,0.016734155,-0.075750208,2.060052037,2
0.002747524,0.217627476,1.157362737,10.31903393,3.222354126,0.0162762,0.401141184,1.79814007,2
0.002117739,0.20208169,0.542661646,8.502529308,3.216484342,0.015955767,1.044768693,0.711649744,2
0.002467739,0.195920066,0.43157692,8.124897797,3.224780491,0.022213439,0.942392847,0.207984987,2
0.003622127,0.192810096,0.43420867,9.026375945,3.247433145,0.018190696,0.134572618,-0.351117699,2
0.000783999,0.178650765,-0.632525909,7.398170985,3.272994123,0.024696292,0.272444709,-0.777962264,2
0.000881104,0.175116781,-0.19335538,9.086091298,3.289941951,0.015626684,-0.124712251,1.734938491,2
-0.004888635,0.185992089,0.692306811,10.30781745,3.307635335,0.042272624,2.028393457,3.411312973,2
-0.001713318,0.215026538,1.529041354,12.88094778,3.360825566,0.053595571,-0.104293384,-1.177908166,2
0.005021288,0.220055837,1.828492131,13.71505255,3.38648153,0.026344947,0.580840427,-0.423172596,2
0.001985563,0.211524925,1.648166513,12.54231005,3.376561301,0.019439466,0.456183415,-0.350765137,2
0.003953136,0.217212178,2.067646591,14.90242909,3.370634351,0.015426189,0.258905278,-0.225686061,2
0.004962132,0.214871957,2.160993098,15.34273491,3.366591317,0.011948627,0.633968788,1.424865248,2
-0.000467959,0.218662579,1.990478013,13.87641482,3.374509593,0.014496865,0.653803193,0.48116217,2
0.001210504,0.222592598,2.00112782,14.12111964,3.377574539,0.014346883,0.425889971,0.332302137,2
0.000911833,0.210348746,2.034913458,15.03099581,3.364210892,0.014308142,0.672976544,0.495521126,2
-0.000727589,0.19817164,1.805089147,14.39803081,3.359452057,0.011155298,0.97592249,2.293884014,2
-0.000403486,0.202814782,1.667683282,13.18462573,3.367222159,0.013025184,0.489888885,5.328070545,2
0.000430429,0.225194623,1.692908108,12.61950297,3.413697433,0.045965301,0.150428602,-1.426934352,2
0.006632217,0.232423185,1.599281034,12.08803727,3.437130574,0.027428862,0.212356644,-0.78618862,2
0.001580606,0.233505942,1.589557222,12.16562295,3.412838146,0.016364486,1.146374697,1.493624339,2
0.003328831,0.229469336,1.413750035,11.52258996,3.424275153,0.022265373,0.509357557,-0.526275298,2
0.001784036,0.221520297,1.567643543,12.48051018,3.440258081,0.015584408,-1.257809787,33.58308104,2
-0.000134419,0.224429548,1.794519956,13.1626659,3.440612575,0.012616292,-2.431890673,78.74826573,2
-0.000353492,0.216349857,1.653779703,12.57234095,3.442695182,0.015139125,0.33015673,0.233903899,2
-0.004586714,0.211020921,1.737291895,13.38505939,3.458673859,0.024578314,0.706028631,1.246711396,2
0.003247539,0.213582251,1.821433181,13.49449043,3.501958411,0.036449287,0.308898909,-0.830210017,2
0.002546153,0.219925521,2.02126089,14.60704341,3.518347604,0.028939069,0.529997095,-0.523155184,2
0.002237961,0.220329476,2.014918982,14.44856502,3.525739724,0.029795079,-0.118868251,-1.049429307,2
0.005442804,0.22087056,2.090670048,14.59615291,3.532489831,0.021928882,0.016100459,-0.697315273,2
0.001299558,0.22273443,2.1244268,14.37286103,3.512720272,0.018009145,1.23018358,1.309711871,2
0.00178758,0.212573155,2.030077917,14.51980303,3.530915342,0.028549152,0.22496502,-1.193002298,2
0.003190207,0.215380689,2.378880521,16.36559821,3.546466773,0.016262553,0.40256164,4.152527591,2
0.002123866,0.21722348,2.356882146,16.32076337,3.545681545,0.013618733,-0.061338344,8.414859663,2
8.38E-06,0.212075555,2.295564318,16.94980919,3.54509152,0.01419735,0.253896127,0.439578264,2
0.003564488,0.211632267,2.211564953,16.15048183,3.569560732,0.044937879,0.638405769,-1.092644012,2
0.004025266,0.209617555,2.15367667,16.08414293,3.596377237,0.030319068,-0.087510244,0.293278127,2
0.000459621,0.210716552,2.117534218,15.66536463,3.590747888,0.012282792,0.499667481,1.401512249,2
0.000611278,0.209856624,2.017433842,15.0877327,3.597270094,0.013026924,0.287722705,1.488913915,2
0.000346612,0.215999602,1.926178987,14.24654734,3.588745063,0.017253638,0.258058355,-0.242190277,2
0.000740583,0.222999834,1.814766463,13.25318726,3.583978162,0.019191224,1.240369722,1.280863551,2
-0.002326257,0.213423323,1.715585014,13.1353967,3.600137983,0.020589661,0.26140295,-0.460691568,2
0.001882501,0.20923258,1.843096496,13.92626678,3.628493609,0.025722623,-0.088947102,-1.043006606,2
0.003276633,0.213193467,1.985535734,14.74387769,3.639552471,0.015627319,0.42070638,0.033734375,2
0.001624185,0.215775011,2.038674586,15.09787687,3.65620673,0.032470856,0.584984003,-0.836631808,2
0.002463573,0.214081146,2.189334367,15.97399894,3.667416491,0.025069167,0.656796798,-0.354007042,2
-0.002546552,0.213951932,1.914781471,13.53600596,3.66423269,0.022281343,0.383067882,-0.48981285,2
0.000760175,0.212109237,1.944672454,14.26540329,3.696314076,0.034405813,0.509101688,-0.159313265,2
0.004324009,0.214626212,2.094406268,15.68528908,3.697108405,0.032178006,0.933276947,-0.210161639,2
0.000645394,0.213237301,1.985758474,14.86036052,3.688165719,0.020873946,0.704485263,-0.219910918,2
0.002733712,0.207772695,1.985179329,15.26622831,3.697714506,0.018001416,0.406744755,-0.326394222,2
0.004288487,0.213438315,1.940312203,14.55127124,3.67940227,0.022223266,0.350940583,-0.237288169,2
0.00018597,0.211614651,2.075102812,15.52329704,3.6721538,0.021896678,0.909964656,0.70032614,2
0.001789836,0.207084857,1.752165842,13.4815177,3.755401829,0.083285399,0.285702561,-1.46664213,2
0.002696195,0.20404038,1.762834897,13.77171483,3.789222172,0.054680378,0.50081654,-1.096571138,2
0.0022925,0.214814239,2.085169675,15.65036903,3.727261789,0.028241757,0.117135342,-0.578326292,2
-0.00125356,0.211935979,1.798084551,14.38512365,3.68860005,0.020459402,0.395191144,-0.865476233,2
-0.003700058,0.202318343,1.668660083,14.3626027,3.714002991,0.046289228,0.402855659,-1.338164138,2
0.004969201,0.215278233,1.847067998,14.12051139,3.756327547,0.024392678,-0.270601468,0.129162007,2
0.004863366,0.213656254,1.985718246,14.73149083,3.752553667,0.017529041,0.436042769,0.827425728,2
-0.002679716,0.206822609,2.137038993,16.4961228,3.741664505,0.012765174,0.622588367,3.146801867,2
0.0025976,0.210156957,1.890978508,14.37592647,3.755530657,0.028895341,1.181334813,0.877661265,2
-0.000559178,0.210448928,1.680439266,12.54749655,3.786570413,0.030934747,0.78215415,0.869643734,2
0.001457853,0.222172078,2.085331224,14.90153433,3.834871129,0.04528636,-0.007185966,-1.327857852,2
0.006174911,0.21592728,2.016865461,15.22712242,3.840004294,0.037544146,0.160462787,0.550490331,2
-0.000395854,0.200081392,1.988685012,15.42485792,3.804941831,0.018402083,-0.826964705,20.05264822,2
-0.002894335,0.210647053,2.120982469,15.86766578,3.81012061,0.025620333,0.212760082,-0.825947889,2
0.002962306,0.213402161,1.794253642,14.42896162,3.820657349,0.025093039,0.056769523,-0.671852288,2
0.004805505,0.208073888,1.772544109,14.34361367,3.856716973,0.047494512,0.384289485,-1.126765183,2
-0.001522483,0.20375766,1.207605364,10.62835764,3.872041212,0.04180319,-0.12812307,-0.875409194,2
0.00313782,0.216938864,1.471773805,12.05496669,3.861818205,0.035667067,-0.086330894,-0.019957986,2
0.001800797,0.22809449,1.810504038,13.48421034,3.853466252,0.034122376,0.458796388,0.555711353,2
0.001528041,0.219640941,1.496979453,11.85002916,3.826876995,0.01892068,1.013566143,0.645596405,2
0.005402782,0.21070686,1.438703627,11.67888746,3.830427987,0.020600838,0.48625372,-0.599492453,2
0.001163616,0.201545631,1.747094622,14.25060145,3.840494156,0.017922424,0.066649643,-0.06384294,2
0.00065967,0.194437352,1.954911073,16.35423296,3.838928768,0.014606365,0.785776863,0.617078432,2
0.002033563,0.198474615,1.911462335,15.92710754,3.857419096,0.030402786,1.340982551,0.877771593,2
0.000360822,0.205905629,2.01873975,15.07968032,3.885435704,0.028701139,-0.077032565,-0.620730425,2
0.001327534,0.205109737,2.338028916,17.05722118,3.903760583,0.015128627,-0.781746118,7.68188821,2
0.002611718,0.200206391,2.548880924,19.39686643,3.899827848,0.014303606,0.19728135,-0.023784246,0
0.000292838,0.195113008,2.22746742,17.0486885,3.966979708,0.116683395,0.945565221,-0.856743552,0
-0.007620869,0.199033086,2.212049119,16.03684728,4.058769335,0.091184126,-0.686689168,-0.336619463,0
0.001987257,0.227849144,1.343182074,10.08525601,4.077952031,0.043135604,0.321792772,-0.875862101,0
0.01206888,0.254071507,0.920753454,7.907958659,4.064238903,0.043357524,0.983920198,-0.247159336,0
0.004429262,0.256068621,0.909451353,8.946728084,4.04325398,0.023388471,1.29768488,1.941549279,0
0.000445293,0.25558157,0.841696386,8.853993283,4.028846904,0.025251383,0.079446104,-0.323016994,0
-0.00765475,0.260234065,1.022313652,8.706047695,4.006774412,0.023065735,0.630577595,-0.223527982,0
-0.003285716,0.266072143,0.920300684,7.434981028,4.011075429,0.022042125,0.272710163,-0.421811672,0
0.007302128,0.253938448,1.035784577,8.323496165,4.025224686,0.019738496,0.418990183,-0.36303074,0
0.002509866,0.24074244,1.141924782,9.196220652,4.00865266,0.02909217,0.139163245,-0.787028875,0
0.003070031,0.244663051,1.183584365,8.772979137,3.995365197,0.026241016,0.282562491,-1.223423423,0
0.002568819,0.241109486,1.391721814,9.502281994,4.010059139,0.024513652,-0.626964951,-0.623846183,0
0.00302878,0.239277972,1.470638331,9.949382944,4.015508597,0.013452375,0.135609987,1.420681959,0
0.002941602,0.243435599,1.493890072,10.32946067,4.014713015,0.01194945,0.419599359,0.790504123,0
-0.002072427,0.246083574,1.495489971,10.12914487,4.024538204,0.013512511,0.519880726,0.607934341,0
0.001375606,0.242143268,1.457343097,10.05331323,4.036834826,0.014510004,-0.110254657,1.876704799,0
0.00418946,0.239101343,1.391976087,9.726435027,4.044995499,0.011123662,0.369729276,6.948493996,0
0.000812138,0.239910362,1.459047403,9.645136198,4.049373681,0.011559076,0.495574573,0.757131449,0
0.00029102,0.240047577,1.447500614,9.67282787,4.047742135,0.015085102,-0.914492533,11.3550391,0
-0.004750691,0.24592615,1.402838704,9.303017566,4.029421779,0.019358562,0.210544895,2.458704719,0
0.001579435,0.238359682,1.413079857,9.609878,4.023587254,0.017340131,0.603287913,-0.084278143,0
0.009973297,0.237169601,1.306301908,9.143326051,4.010529872,0.025439201,0.55927453,-0.859119295,0
0.000149375,0.24313425,1.325193851,8.90241858,4.001717595,0.017699357,-0.252214179,11.53291084,0
0.000315321,0.240579967,1.326867987,8.936256188,4.00425099,0.019065328,-0.915343673,12.41392214,0
-0.001466407,0.242692126,1.373301563,9.357629816,3.983855275,0.019597249,0.343698371,1.919539028,0
0.020640924,0.240038591,1.180901755,8.347715814,3.999297987,0.03087805,0.060669141,-1.232388225,0
0.004561478,0.245620733,0.921973579,6.67779834,4.000649425,0.031235365,-0.274297762,-0.745698568,0
-0.029188941,0.235864994,0.972624264,7.722187278,3.948735428,0.031343657,0.328280281,-1.173158065,0
0.008295391,0.226749004,1.158363301,9.213966125,3.917658724,0.013008875,0.634481712,1.348670321,0
0.012170092,0.223379035,1.615574179,11.23051188,3.898631777,0.018209016,0.239825313,-0.426434254,0
-0.005980251,0.21971054,1.636287297,11.39325863,3.869172559,0.018927681,-0.081965385,-0.634875102,0
0.001107016,0.221631292,1.53774045,10.95065543,3.839326314,0.018558074,0.32191549,-0.756306974,0
-0.003120693,0.233489392,1.516766732,10.87293007,3.863088008,0.052355616,0.634673065,-1.316098564,0
-0.000653163,0.240712028,1.397860725,10.15536518,3.920230811,0.042049048,-1.293370881,1.065605236,0
0.006686462,0.240697562,1.261845152,9.338267629,3.919389997,0.026914121,0.463658408,-0.470516975,0
0.003640594,0.241311784,1.290524576,9.350037267,3.88396056,0.021611439,0.377390475,0.575149547,0
0.001268856,0.239727681,1.466685717,10.63352037,3.87519068,0.014755452,0.138436483,3.782426247,0
0.001534195,0.240136696,1.488507946,10.66469506,3.86988836,0.020728421,-0.309850597,-0.276334755,0
0.003012687,0.239986989,1.486641544,10.41836203,3.839092037,0.024141293,0.528471642,-0.550276575,0
0.00108885,0.239800422,1.479483573,10.591251,3.800752749,0.023629137,-0.065672193,-1.119401436,0
0.001245621,0.241507366,1.487047137,10.30850277,3.77218459,0.01485344,0.616976745,0.387108901,0
0.002104032,0.242898677,1.366398543,9.889527419,3.773176466,0.016046738,0.495260259,0.05093589,0
-0.001694079,0.238292308,1.227681199,9.627537459,3.799899673,0.059200224,1.727804565,1.773664147,0
-0.000113748,0.254432097,1.292697183,9.348357583,3.860507965,0.072426974,-0.422854447,-1.337808339,0
0.002570173,0.256523905,1.353532908,10.48636368,3.87940058,0.031737631,0.381498733,0.086030653,0
-0.000364256,0.256793025,1.147665303,9.829588832,3.868108041,0.028622627,1.004459044,1.151462323,0
0.003562598,0.267464552,0.881003067,7.208300737,3.884394836,0.024622668,0.444175531,-0.376502835,0
0.004853603,0.256905537,1.217861457,8.829166261,3.898702185,0.03206414,0.867704052,-0.372309617,0
-0.001134443,0.252021705,1.522508508,10.74705016,3.902300862,0.032715574,0.554547425,-0.796220958,0
0.002250994,0.244521007,1.147051873,9.318235195,3.872724206,0.028650357,0.287869237,-0.540158592,0
0.003072019,0.247449454,0.808300837,7.551628683,3.827008765,0.028086626,-0.020016692,2.515340159,0
6.06E-05,0.252050886,0.87017401,7.337748381,3.793158231,0.019115724,-0.951029268,10.88243162,6
0.003209675,0.250897745,0.988092872,7.477622216,3.773781368,0.017736082,0.759979392,0.070789296,6
0.001988408,0.249743133,1.202713436,7.965795962,3.756798444,0.013198422,0.25571727,0.668716236,6
0.000386117,0.249382276,1.318063357,8.484619424,3.746376365,0.012652162,0.256745638,0.693211509,6
0.002376343,0.256090053,1.050929912,7.094430454,3.735401154,0.015121465,0.408630414,0.22300557,6
0.0016618,0.251759548,0.985775477,6.972007472,3.712017822,0.019975317,-0.100830811,-0.683099781,6
0.000351229,0.251689258,1.02008701,7.596858089,3.685996791,0.016730129,0.634239971,0.232801826,6
0.001623799,0.254854735,1.022082356,7.317241924,3.66707949,0.013077965,0.487626283,2.865730898,6
0.000768206,0.246125599,1.219912138,8.388532097,3.65225187,0.013687627,-0.092650884,1.029015735,6
0.003371488,0.253941875,1.037654695,7.505131767,3.635417993,0.0153195,0.576738175,-0.198215317,6
0.003151265,0.256090484,1.044020685,7.172550094,3.61646456,0.014719485,-0.17982579,0.202312976,6
-0.000597238,0.244946715,1.0478075,7.753483485,3.604180091,0.014863938,0.163579829,0.093942557,6
0.001503433,0.245316609,0.753287794,6.46541221,3.587572261,0.018675617,0.566291228,-0.243115511,0
-0.002233704,0.248824549,0.811190225,6.426531057,3.611936079,0.065359477,1.572292456,0.987190784,0
4.47E-05,0.245277322,0.859598363,6.894879175,3.683123398,0.064578152,-0.463959748,-1.11740213,0
0.004639265,0.245347625,0.935463485,7.924712401,3.700335911,0.025779482,0.507065531,0.255775211,0
0.004730347,0.240778579,0.892558565,8.01181357,3.676983697,0.022961123,-0.642290169,7.566891751,0
0.001357276,0.239033933,1.238376974,8.069167632,3.676408386,0.020950322,-0.940156414,11.58063422,0
8.46E-05,0.246648806,1.767955671,10.79811636,3.690433884,0.02003693,0.592805945,-0.359594415,0
0.002728749,0.234312455,1.474523472,11.04724713,3.677614103,0.027202859,0.667494127,-0.714980314,0
0.004100307,0.226062882,1.062462066,8.78208836,3.636185891,0.025498582,-0.335169,-0.911169632,0
0.003351974,0.231588601,1.370785153,10.03536729,3.59872818,0.022671882,0.35470214,-0.494037563,0
0.000915468,0.23754765,1.602659537,10.7332935,3.564751434,0.021668285,0.162110572,-0.808700223,0
-0.001030969,0.237955217,1.814775425,12.01836004,3.531379046,0.020254618,0.02770206,-0.640405621,0
-0.002241773,0.237193369,1.797917117,12.02409542,3.501589639,0.018905695,0.18527696,-0.311660481,0
0.001462221,0.247699194,1.764572487,11.56279795,3.472757176,0.019562845,0.030503055,-0.481717732,0
0.000424399,0.240465872,1.588675222,11.70090973,3.443810708,0.018298967,0.388183336,-0.457962058,0
0.000737176,0.230893513,1.190741062,10.28478084,3.424085454,0.011721592,0.489962339,1.587747349,0
0.004429818,0.232007408,1.610643402,12.82087913,3.407692773,0.014785905,0.315781072,0.186319682,0
0.001414987,0.242151618,1.599999375,10.87584746,3.39426978,0.010048643,0.78092098,3.436704038,0
-0.000713477,0.234435536,1.68901034,11.15995769,3.386254011,0.013011591,0.099851719,0.724474652,0
0.002122107,0.223203988,2.179197021,14.994275,3.366040693,0.020164152,0.181999524,-0.323966848,0
-2.96E-05,0.232421203,1.905380507,12.82733759,3.339739227,0.016196259,0.657650847,0.562027671,0
0.002817967,0.236330344,1.639159014,12.04146245,3.320323018,0.01271584,0.251650905,0.764189326,0
0.003114035,0.236185586,1.753589767,13.60348117,3.303284073,0.014503665,0.12776328,0.19443345,0
-0.000189521,0.233137795,1.894209585,14.15780503,3.281470326,0.017279651,0.257111389,-0.356230706,0
0.001012318,0.227070157,1.849099851,13.52562611,3.25508303,0.018113991,0.045591802,-0.17083424,0
0.001023612,0.2216284,1.864154215,14.03472957,3.227831868,0.018576922,0.122597295,-0.379558483,0
0.001935314,0.238250367,1.709067732,12.27998725,3.209329387,0.012082909,0.92177685,1.583926939,0
0.00082096,0.255955174,1.550474926,10.37318651,3.218315724,0.025115189,1.431135567,1.165321269,0
0.00146587,0.256406214,1.502501211,10.14777513,3.258713368,0.034475012,-0.424843856,-1.129455403,0
0.004335996,0.242614955,1.553648123,11.10772955,3.275067248,0.016891121,-0.91910713,21.02385019,0
0.002813677,0.228822389,1.634750684,12.70695377,3.252211652,0.017886174,-0.433104099,11.48918848,0
0.000322678,0.224605588,1.762087066,13.77165214,3.230445971,0.014133854,0.551006183,1.588214991,0
5.63E-05,0.214601307,2.060031757,15.62627318,3.21251891,0.013680147,0.316359562,2.73723436,0
0.000625076,0.214307337,2.20005045,16.25199038,3.192467608,0.016010037,-1.332218169,34.11728617,0
0.001732936,0.224901467,1.980596266,13.71326166,3.174123328,0.013501673,-1.725161253,56.08196119,0
0.00228532,0.2224252,1.896732602,12.61684246,3.163730621,0.010996533,0.885215629,4.396247328,0
0.005054345,0.223047641,1.77295546,11.92571924,3.149379403,0.015511989,0.111385285,0.045298651,0
0.000373646,0.219865159,1.895072509,13.41047371,3.134850584,0.011314162,0.747565219,2.168846617,0
-0.001861555,0.212245608,2.272873915,16.08597792,3.120104,0.01545654,0.106259166,0.904621801,0
0.002103986,0.213334987,2.274542935,15.70931092,3.100680433,0.01309366,0.512527378,1.627833293,0
0.003168516,0.214242923,2.12558119,14.99743274,3.086976787,0.012509054,-3.102781874,103.3095332,0
0.001848679,0.206322377,2.239978363,16.48317896,3.070986121,0.01581206,-1.167699496,33.77283803,0
-0.000247532,0.204686965,2.140979511,15.85666921,3.054748426,0.011931042,0.89739748,3.05720085,0
0.003269597,0.205103137,2.132111599,15.8583356,3.042521558,0.011870238,0.620576211,2.244864719,0
0.002490149,0.203205079,2.260833235,16.94919912,3.032625471,0.011308301,0.895890723,3.130538185,0
-0.000696344,0.203361875,2.13584675,15.95422122,3.039166478,0.014881738,0.399258696,0.380413654,0
0.000282859,0.202796153,2.218893434,16.25859052,3.040141569,0.014120795,0.233448058,2.209152468,0
0.004445075,0.211723827,2.02249638,14.44743383,3.022983715,0.013369013,0.280685059,1.482443345,0
0.002084381,0.214914188,1.931003013,14.06190049,3.008367811,0.011979642,0.632263446,0.884834078,0
-0.000648167,0.210282627,1.92007041,14.57426183,2.995654406,0.011467894,0.755132591,1.763786478,0
0.002363159,0.209142607,1.778634219,13.22776119,2.987672206,0.009831638,1.126052175,4.415558375,0
-0.001761743,0.234202482,1.578163055,10.45222061,3.013254166,0.033359721,0.463399516,-1.267687157,0
0.001209497,0.251848678,1.529927904,10.06928399,3.035157776,0.020284193,-0.082091304,0.133507138,0
0.004384971,0.241955014,1.755077026,12.2171297,3.017099054,0.017048853,0.216678057,-0.35877176,0
0.002541432,0.241890529,1.724739716,11.59347521,2.994994627,0.014674272,0.438799395,0.252525191,0
0.003387255,0.240497056,1.805138669,11.85902928,2.981069347,0.011333426,0.935485591,2.193198753,0
-0.000538899,0.238309275,1.968383017,12.4147118,2.98400601,0.016194405,0.772602902,0.259164696,0
-0.000910995,0.239020284,2.079157501,12.90419253,2.989358847,0.01504423,-0.51686354,18.12675613,0
0.001345734,0.240107137,2.015419799,12.53785434,2.982497624,0.01225271,-2.806798936,80.6198068,0
0.001738083,0.238052702,1.984015194,12.69757844,2.970445033,0.012848107,-0.903396613,30.65598571,0
0.002978845,0.234532455,2.020708141,13.41294386,2.957773427,0.011546834,0.852699387,2.083938068,0
0.000755859,0.234023853,1.976120086,13.09358622,2.946779524,0.01162582,0.873600364,2.469628456,0
0.000597578,0.237607314,1.933332006,12.17278748,2.935521317,0.011564475,0.830788188,1.734033367,0
0.002004998,0.241119174,1.913728521,11.63663104,2.931070055,0.010341928,1.445773471,5.870475141,0
-3.43E-05,0.244971721,1.978661734,12.07295384,2.926767622,0.011970452,1.033401041,3.509957671,0
0.003193438,0.244412835,1.833119601,11.47243067,2.917375674,0.01084925,1.092671742,3.5032413,0
0.00493963,0.238101408,1.902308759,12.12154666,2.908823994,0.011479097,-1.147592766,48.15021536,0
0.002044052,0.234922216,2.091259265,13.17243805,2.898095594,0.01255904,-0.791633401,28.47774376,0
0.00116389,0.23814165,1.792449934,11.39242611,2.892287554,0.010733077,0.845705083,3.684232351,0
0.001488739,0.243295583,1.586541173,10.87200904,2.892956979,0.010768509,-2.15261799,91.59049454,0
-0.002190229,0.23969464,1.71392167,12.10186793,2.887702451,0.011885819,-1.355187703,57.53416847,0
0.000972682,0.229976373,1.85219189,13.44966212,2.87663111,0.011080222,0.783957159,1.690096597,0
0.002887939,0.222174912,2.017326145,15.53100976,2.865893773,0.01107874,1.014087671,3.265682996,0
0.000885563,0.226070971,1.903214493,14.37836485,2.85762182,0.009864593,1.320172982,5.339422075,0
0.001919612,0.229927008,1.917888439,14.06382035,2.852491706,0.009746567,1.393853471,5.313347447,0
0.001566219,0.231435177,1.912602035,14.02674943,2.846364485,0.010230781,0.915992126,3.804717546,0
0.000990496,0.234589134,1.452608086,11.10466725,2.835072708,0.014142124,-0.252207318,1.607661175,0
0.000550258,0.225754404,1.368775408,11.70530459,2.825921903,0.01225398,0.515707567,2.97939397,0
0.002060368,0.218621242,1.547037499,13.52220011,2.82499357,0.009715088,1.308616237,4.744706299,0
0.000627483,0.223600001,1.567397119,12.59098667,2.824062402,0.009781685,1.303851973,4.358484848,0
0.001157488,0.2110733,1.829562132,14.86983087,2.818258721,0.010415789,1.120483142,3.567811624,0
0.00352463,0.214993186,1.621063076,13.71150996,2.814660045,0.01187895,1.301533787,2.807898629,0
0.001521162,0.225813307,1.734243117,13.39976752,2.824169268,0.01625305,0.436009236,-0.061562418,0
-0.000587854,0.230404986,1.729354203,12.49747929,2.825900323,0.01365131,0.854338459,1.044244187,0
0.001459167,0.230897057,1.577526652,12.13706366,2.816845976,0.009776093,1.217321881,3.960070476,0
0.00199054,0.217385886,1.916727778,15.77799191,2.814208821,0.009732506,1.301580305,5.173043171,0
0.000508,0.21649961,1.951456372,15.57886339,2.811492266,0.00996415,1.522268344,6.354987292,0
0.00125303,0.218255317,1.982939061,15.11544891,2.808096041,0.009850222,1.479030743,6.651912248,0
0.002668357,0.218837428,2.051873021,15.46124402,2.803527887,0.010676824,-2.253865038,98.9851395,0
0.002489489,0.220689308,2.117230302,15.80504918,2.799933297,0.010014569,-2.76673646,120.6096391,0
0.002376375,0.222686951,2.206419699,16.08650389,2.799291011,0.009455939,1.36324087,5.087100807,0
0.000510132,0.220833721,2.310719192,17.04197105,2.797541755,0.010000921,1.356443993,5.202257069,0
0.001565172,0.217269132,2.165821874,16.69224911,2.790098245,0.011433816,1.009085184,3.036096632,0
0.003937964,0.219342344,2.040466449,15.94936295,2.780427497,0.010358138,1.262914324,5.040454745,0
0.000248114,0.220493391,2.107193877,16.06103813,2.7741636,0.009889388,1.385198065,5.897094317,0
0.000272592,0.220728903,2.043867348,15.97102472,2.76798014,0.010684659,1.200498578,4.744040987,0
0.002435407,0.220817803,1.997503588,16.1381949,2.761979948,0.010045974,1.490918465,5.913645244,0
0.002132858,0.219188165,2.050488197,16.28699632,2.756667982,0.009990842,1.136272368,4.685362436,0
0.001537916,0.220466467,2.101507221,16.43327724,2.751213183,0.010150602,0.753997762,11.96825567,0
0.00135515,0.21962296,2.090949408,16.31002435,2.746593094,0.010161246,0.871765107,10.78387378,0
-0.000558361,0.219457054,2.041776751,15.66687631,2.744669124,0.009936828,1.165672842,3.976036183,0
0.002358778,0.223278814,2.17790442,15.93522702,2.746481705,0.010167438,0.670035383,8.609083865,0
0.001493735,0.215498223,2.505695192,18.66955831,2.748064586,0.00985886,0.808004569,10.0901669,0
-0.001544246,0.218232575,2.272791358,17.8301622,2.746594674,0.009887873,1.117477681,5.718137806,0
0.00233829,0.21704119,2.033525911,17.11525434,2.743360519,0.009711284,1.119040115,5.853530811,0
0.001886228,0.215422374,2.046146285,16.89386422,2.740299388,0.009813734,1.017589563,3.415216533,0
0.001190251,0.226941151,1.801982534,14.32549425,2.735411944,0.010494201,1.165496584,3.522179194,0
0.003232792,0.219542215,1.744055293,14.89875696,2.731388909,0.009883319,1.607544237,6.297765575,0
0.003145687,0.21256356,1.84531568,16.36561388,2.728552083,0.010167563,1.259472942,5.503699406,0
0.000556876,0.210634738,1.843887423,16.29700646,2.725566101,0.009889085,1.660939579,10.01023482,0
0.001096828,0.214356724,1.897140991,15.92953313,2.723539298,0.009948058,1.903607297,10.89709829,0
0.000635866,0.216535191,2.020030789,16.59577442,2.720334625,0.010067439,1.61120119,8.07989137,0
0.002762133,0.213911557,1.899397141,16.4111717,2.716852079,0.010403354,-1.531420722,74.4836969,0
0.003293145,0.215942278,1.831603401,15.57681,2.714365714,0.010129452,-1.735489605,77.96813125,0
-0.00054466,0.21665995,2.157528821,17.0301538,2.711814008,0.009859555,1.461700271,5.880838506,0
0.000236991,0.214224035,2.145721277,17.27980837,2.708099856,0.010038997,1.391326906,5.048124492,0
0.001543599,0.212306033,2.007772702,16.69853714,2.703476661,0.00988627,1.176266381,3.583905703,0
0.001573249,0.211522203,2.05020482,17.17555935,2.699439131,0.009660668,1.358090622,5.495635726,0
0.00108934,0.211654124,2.024128652,16.89091689,2.696918433,0.009681641,1.542016016,7.018710564,0
0.000618805,0.218896874,1.946420493,15.36905979,2.695265906,0.009516494,1.431866287,5.727474961,0
0.003647167,0.220806641,1.837418562,14.87258458,2.694939859,0.009552924,1.489086607,5.138450661,0
0.002422073,0.214347426,1.817814187,15.96794067,2.692624337,0.010074303,1.074189525,7.61511734,0
-0.001030557,0.211876456,1.836397849,16.17715761,2.689482825,0.009700623,1.217241515,9.506261746,0
0.00120709,0.212213761,1.966180111,16.20431856,2.687423815,0.009808203,1.469890664,6.377716435,0
0.00219552,0.229813418,1.817971757,13.3668778,2.710692378,0.033799354,0.679381216,-0.976823073,0
0.002444275,0.242497232,1.291670911,9.204656609,2.769683238,0.049501288,0.404962353,-0.00374632,0
-0.006954221,0.256682481,1.196420541,7.69560992,2.852993829,0.058457334,-0.333444351,-1.419191173,0
0.00222122,0.260925952,1.457925737,9.382403333,2.900257874,0.016262079,-0.073061331,0.928083655,0
0.010410507,0.237128047,1.538502638,12.0569333,2.892363467,0.01182844,0.81928223,2.405430336,0
0.001360369,0.223352341,1.513542985,13.32246389,2.881102644,0.011219122,0.906615849,3.578472702,0
0.000956791,0.215782162,1.953445813,16.54762734,2.873359408,0.010272668,1.372959441,5.408192579,0
-0.000117815,0.223260961,1.84732451,14.73260064,2.874735641,0.014401908,2.031602936,10.31282391,0
-0.002095963,0.259250951,0.944910381,7.225662604,2.879584449,0.015715334,1.292650898,5.493319374,0
-0.000332761,0.259245508,0.903564762,7.222911501,2.877525166,0.014571949,0.702714449,1.631347557,0
0.005804044,0.237402459,1.264501411,11.74787215,2.867487281,0.014247001,1.038590503,2.318208105,4
0.003294165,0.224855794,1.250704418,12.77492897,2.862385668,0.010134542,1.267493422,3.736590738,4
0.002312472,0.221108556,1.401969228,12.62722223,2.861784199,0.009874325,1.260031949,4.328712898,4
0.00154163,0.225813817,1.466932994,13.51252548,2.85718095,0.009931104,-0.086892007,27.18054751,4
0.001561465,0.224486297,1.419333701,14.27896235,2.853843907,0.009837946,-0.029341758,26.13993902,4
0.002325492,0.226248257,1.477138892,13.9190502,2.851913289,0.009342623,1.515033203,5.93822489,4
-0.000439427,0.209303147,1.833474146,17.35717702,2.848185839,0.009985301,1.367371318,5.636653189,4
0.000617216,0.213487101,1.784813023,16.63322859,2.843298994,0.009627434,1.309584843,7.897454201,4
0.001844441,0.214844059,1.682285708,15.4425306,2.839131492,0.009504462,1.063773242,6.126643832,4
0.00165819,0.207956024,1.753936684,17.18104485,2.834471621,0.009907151,0.824317559,11.35864435,4
0.001062293,0.212568544,1.657976127,16.09328846,2.829801723,0.01005036,0.993246296,10.17638975,4
0.001738685,0.215173188,1.682194611,15.57689697,2.824114064,0.010340367,1.222305156,4.099741669,4
0.0019511,0.220014945,1.855045728,15.94702752,2.817007773,0.010716287,1.118094716,3.82645953,4
0.000646526,0.212825853,1.870625664,16.22007616,2.809158107,0.010464091,1.192752234,5.096883712,4
0.002961077,0.217080553,1.87914473,16.28832749,2.800006648,0.011446678,0.609325096,2.863071254,4
0.002100056,0.208478876,2.15471379,18.68515298,2.788007191,0.012664256,0.156236882,12.11566238,4
1.96E-05,0.203958078,2.09296024,18.94543896,2.779540416,0.009902478,-0.055521885,27.82300015,4
0.001393459,0.214846928,1.89109704,16.49327317,2.775270462,0.009771872,1.209636714,4.889348806,4
0.001386959,0.209413995,2.094361343,17.01309113,2.769038119,0.009985033,1.177126491,5.230463326,4
0.000992628,0.21520439,2.111706229,17.23679478,2.763709423,0.010335854,-0.981184565,56.12140975,4
0.001855238,0.207298295,2.050188905,18.73179808,2.756867654,0.011332118,-0.627708191,34.51770163,4
0.001710388,0.202377891,1.950203547,18.27863618,2.750970187,0.009614561,1.472373347,6.96560643,4
0.001582921,0.213587399,2.0630834,17.01562468,2.747494289,0.010345417,-0.048925024,32.8897731,4
0.001333498,0.209080738,2.107619857,17.75205498,2.74172396,0.010451731,-0.01299651,27.97897925,4
0.000770403,0.202996448,1.909940851,18.44364088,2.736330196,0.009765852,1.282071202,4.468408739,4
0.002855765,0.20662722,1.949562989,18.11804208,2.731510707,0.009823827,1.197932206,3.480291986,4
0.001522685,0.202963031,2.119473463,18.62650014,2.7264037,0.009923935,1.32249505,4.651280763,4
0.000598408,0.20204193,2.15280329,19.15557873,2.721293477,0.009887032,1.417904433,6.278485404,4
0.001663938,0.215663461,1.928894967,16.7872339,2.718895176,0.009400955,1.285409391,5.588198653,4
0.00244468,0.212816523,1.938986437,16.91612407,2.7173869,0.009667143,1.084828673,4.392070161,4
0.00132673,0.210997998,1.944994451,17.51319384,2.712535313,0.010119096,1.182654566,4.201766504,4
0.000598173,0.209681903,1.907595639,17.26070933,2.70786874,0.009590224,1.477370353,4.82741623,4
0.001781263,0.207715388,1.932269656,17.20927574,2.704933384,0.009337957,1.365523367,4.916201215,4
0.002172239,0.219364152,1.908301956,15.20830943,2.70470047,0.009539423,1.374080457,6.06043575,4
0.002026762,0.209968447,2.105313901,17.07912154,2.700763811,0.011235887,0.800929098,3.164568494,4
0.002817836,0.208014424,2.061276409,17.73974538,2.695077133,0.009819476,1.29310211,4.67195814,4
0.001858874,0.211184652,1.967523463,16.40443993,2.693573979,0.009552826,1.633506455,5.998466314,4
7.27E-05,0.198677097,2.201464977,19.32497653,2.693136215,0.009554977,1.335817521,5.330240704,4
0.001432794,0.200827507,2.337251269,19.5507255,2.692409079,0.009470933,1.053512121,4.385210925,4
0.001944175,0.206156907,2.178657364,17.8037337,2.69038135,0.009537542,1.360526533,4.883175201,4
0.002029822,0.210451628,1.988999958,16.95591276,2.687538365,0.009806567,1.503341912,5.701681763,4
0.001260596,0.211090695,2.068671728,17.34459394,2.685024425,0.009589481,1.439691507,6.123963474,4
-0.00075635,0.215099555,2.051973664,15.3784967,2.687154279,0.009974834,1.058864964,5.089115289,4
0.00284935,0.22001845,2.372016297,15.70723488,2.690269143,0.009801549,1.119700907,6.17995481,4
0.002512403,0.207298903,2.747277604,20.60789942,2.685071237,0.011336369,0.924185952,3.403404982,4
0.000910453,0.213929316,2.095531043,16.73238466,2.679489136,0.009723475,1.563459862,6.935153564,4
0.001360513,0.216642648,2.119188279,16.29181814,2.678517096,0.009896139,1.494594848,5.992647809,4
0.00174338,0.19995617,2.66700115,21.52425029,2.674865287,0.009859994,1.378633246,4.72690102,4
0.002341795,0.205201857,2.312767691,19.06827868,2.672273418,0.009164453,1.398254668,4.925431542,4
0.000728976,0.210032544,2.078463175,17.95392407,2.672314617,0.009834509,0.282954149,19.80966695,4
0.001525896,0.208425637,2.10988954,17.94671926,2.67033359,0.010317756,0.292135466,17.27018599,4
0.001992443,0.206313057,2.085970879,17.54792583,2.668034254,0.009840375,0.190549855,25.79335255,4
0.001830492,0.210876636,2.100975062,17.45378307,2.668310819,0.009724934,0.312801553,24.95221577,4
0.00096443,0.210244335,2.073926139,17.38136193,2.668193872,0.009226184,1.570000467,4.734045422,4
0.001017824,0.206879357,2.076562327,17.39745709,2.666968482,0.009130416,1.348180474,3.915025882,4
0.000749719,0.219406862,1.962912067,15.91805198,2.665516608,0.009290521,1.26995533,4.19722762,4
0.001430132,0.216236523,1.937776028,16.37100868,2.66303591,0.009794705,-0.19125976,28.9440802,4
0.001489883,0.20364669,1.943658698,17.164684,2.662397276,0.009855566,0.122773392,29.34219721,4
0.001041569,0.208420727,1.960545941,16.31100655,2.661288234,0.009618111,1.566464566,5.82135884,4
0.001035919,0.218283988,2.07273365,16.52118036,2.657376644,0.009842655,1.271156705,5.071992794,4
0.002565608,0.214295252,2.26836223,17.79929669,2.654067666,0.009929511,1.282634659,6.010697245,4
0.004276494,0.205512024,2.577178208,19.27408526,2.652556883,0.009543722,1.576423254,7.007607927,4
0.001846776,0.209713829,2.649640782,19.33263094,2.651693889,0.009605089,1.417791131,7.093311627,4
-0.001235171,0.208257292,2.775332971,20.6066323,2.649969591,0.00961175,1.131934633,5.845902249,4
0.001454106,0.205782682,2.69974172,20.20247353,2.648211942,0.009781427,1.214385934,6.488268792,4
0.002919826,0.209491804,2.540521871,18.78802304,2.646677944,0.009796807,1.130515244,6.538897908,4
0.001054897,0.210022648,2.622000338,19.50186624,2.644573212,0.009719095,1.194831213,5.113118651,4
0.002200104,0.207036914,2.681347163,20.42931981,2.641611808,0.009605621,1.404672882,4.887527351,4
0.002759223,0.205124282,2.640797373,19.76497057,2.63926724,0.009429916,1.226425137,4.494906817,4
0.000831887,0.207354226,2.659548396,19.41199687,2.63711041,0.009671353,1.181248685,4.488481776,4
-0.00077946,0.201097705,2.749521707,21.18992981,2.634638323,0.009506826,1.273515591,4.898382974,4
0.000219001,0.198410133,2.713750835,21.27190527,2.632727487,0.009509968,1.330826613,6.201021554,4
0.001496351,0.20662003,2.636065929,19.43648694,2.631635066,0.009532465,1.52447957,5.950586434,4
0.0017787,0.209577273,2.64967175,19.00460156,2.629969406,0.009460713,1.593647616,5.613430896,4
0.004058193,0.210467758,2.614942743,19.04256417,2.628377097,0.009595998,1.539280026,5.782735147,4
0.002478803,0.204690073,2.512057426,18.94343792,2.628757095,0.009957671,1.486277827,6.092820772,4
0.001422664,0.203970746,2.434957348,18.58136336,2.628994097,0.00996558,1.004476403,12.40580112,4
0.000525702,0.199070676,2.680909959,20.84771314,2.627687236,0.009589749,0.764773192,12.58736745,4
0.000108967,0.207409969,2.311744048,17.55900499,2.626447787,0.009525535,1.414976604,7.05131271,4
0.001403183,0.210088675,2.21242145,17.47533102,2.623797171,0.009886901,1.484401508,6.620958801,4
0.001624087,0.19869883,2.660407677,21.68632534,2.620589883,0.009662431,1.788653095,8.872748607,0
0.002458819,0.202417899,2.634965416,19.90426711,2.620727158,0.009587532,1.724828141,8.389209385,0
-0.001287951,0.209859007,2.410399615,17.02266132,2.645998219,0.042761263,1.229370441,-0.059318342,0
0.000632381,0.225525642,1.86918941,14.68766091,2.717716708,0.059925626,-0.655257628,-1.075325707,0
0.002025964,0.245295131,1.37516821,11.70480645,2.809532384,0.056473757,0.488864089,-1.203120276,0
0.005100043,0.254886625,1.316947114,10.12044949,2.859615707,0.034750656,-1.244508629,1.659583786,0
0.00276539,0.250761004,1.388282182,10.05095643,2.851639775,0.018285137,0.297101914,0.816311337,0
7.55E-05,0.24449483,1.344646693,9.166468115,2.832635825,0.011245894,0.771306599,4.1764768,0
0.003129102,0.2428972,1.33367188,8.664100165,2.829715184,0.010985062,1.291493279,3.251375657,0
0.0006948,0.243909289,1.37065168,8.747722294,2.834359033,0.011270098,0.881282429,2.152567413,0
0.002803816,0.241997841,1.399895973,8.856344609,2.834470749,0.010156225,1.141912564,3.27542189,0
-0.000571217,0.242189656,1.47135279,9.320811156,2.82953077,0.01007941,1.201002921,3.022614625,0
-0.001666901,0.236502693,1.466260083,9.686801029,2.823888779,0.010053575,1.149896602,2.661353233,0
0.002635221,0.23706631,1.348755243,9.129438932,2.819543512,0.009739332,1.388942522,4.420441327,0
0.00187738,0.247385007,1.257193987,8.368448029,2.850752367,0.043710932,1.03774162,-0.158969089,0
-0.000431259,0.240830293,1.204253374,8.451323544,2.894393049,0.031819719,-0.280614748,-0.584998745,0
0.00053404,0.231032934,1.229715927,9.193887333,2.902345548,0.013068088,0.977840359,1.735242268,0
0.000444665,0.244187366,1.213409595,8.589131979,2.92270922,0.034885705,0.865134427,-0.668622427,0
0.000875414,0.254679916,1.268089105,8.424164752,2.953814479,0.029253488,-0.283041571,-0.374880581,0
-0.002708993,0.262740195,1.284579147,7.891761003,2.991377422,0.037216457,0.437232932,-0.579293586,0
-0.005566347,0.269483405,1.25965357,7.143196903,3.034088734,0.033069404,0.898854822,-0.026285004,0
0.004436848,0.262255649,1.378925171,8.59352376,3.049391719,0.031528917,0.64488604,-0.410031838,0
0.011059387,0.261935524,1.324107047,10.58096589,3.046198654,0.021750475,1.441464548,2.057225999,0
0.005349845,0.265019338,1.069996645,10.65268439,3.052545275,0.02507766,0.928454426,-0.248483929,0
-0.003552436,0.265772808,1.161481233,11.2551257,3.097487041,0.053346549,0.70328696,-0.545120229,0
-0.001645687,0.263734408,1.305834327,12.11565593,3.124004364,0.03837262,0.677566341,-0.259518106,0
0.005529497,0.258000593,1.331209206,11.99855156,3.127316884,0.01650079,0.416944832,-0.06918098,0
0.004469238,0.247333146,1.403959247,12.60435803,3.134407643,0.0130568,0.518660521,0.937469323,0
0.000887231,0.241665378,1.287630478,12.13873363,3.14221186,0.017240864,0.315556516,-0.296006329,0
0.00213601,0.240351004,1.256345715,11.89684955,3.153948375,0.012511729,0.004121339,1.826079711,0
0.001639572,0.243445108,1.217084511,12.24317227,3.158600126,0.010028426,0.984326621,3.122200906,3
0.000953012,0.243541817,1.16400823,12.35082871,3.15705452,0.010880902,0.869995072,2.337493652,3
0.002011427,0.229637456,1.265000809,14.1371156,3.152454104,0.009333496,1.347808654,4.799564757,3
0.00148148,0.230209782,1.280857491,14.11702242,3.161175864,0.01404105,0.74736612,0.674781598,3
0.002548181,0.237262101,1.246703432,13.32361769,3.166959926,0.0122823,0.629110288,1.669332552,3
0.002342272,0.244016124,1.195581978,12.14148446,3.170191574,0.016160779,0.698843202,0.431195258,3
0.001670471,0.243533349,1.222942538,12.44677137,3.179381507,0.015222398,-0.028939666,0.601563687,3
0.001303064,0.23321655,1.314552631,14.29742973,3.17473684,0.012534202,0.650253318,0.904123718,3
0.000306146,0.220840771,1.329088858,15.19613964,3.162984085,0.010020766,0.932428692,3.000648803,3
0.001344792,0.22105444,1.290740794,15.16067099,3.1708992,0.017237062,0.502789661,-0.538412457,3
0.001504859,0.221925274,1.292485427,15.04346008,3.184743718,0.013373638,-1.858578312,39.55169072,3
0.000252679,0.221822736,1.294294241,14.83588143,3.191293171,0.015904114,0.867150646,26.26876805,3
-0.001426222,0.233125752,1.247028134,13.77277971,3.244476427,0.054119091,0.215553469,-1.412870137,3
0.002046655,0.231915476,1.197534429,13.65248119,3.279669407,0.026488259,0.357575523,2.942513841,3
0.004872685,0.228945664,1.206461637,13.83063271,3.258763668,0.018468139,-0.187962711,9.285014476,3
0.001822593,0.228420267,1.201207211,13.83553674,3.244813265,0.016912704,0.729997038,0.069725119,3
0.002701041,0.226836661,1.194597185,13.89225264,3.239303262,0.014789699,0.794984767,0.355292591,3
0.002073506,0.229184083,1.286870252,14.2186126,3.243190547,0.013342922,0.470649531,0.702719504,3
0.00032101,0.232382429,1.304427256,14.03439493,3.249742235,0.010661195,0.582730741,2.058570098,3
0.001632372,0.22973586,1.32737037,14.56057743,3.245337786,0.01323958,0.228972581,0.26183337,3
0.001350606,0.234219871,1.349461746,13.92256317,3.235041155,0.012653433,0.477528246,0.752859107,3
0.00060657,0.22730063,1.416813309,14.99478204,3.219300951,0.018234277,0.378709744,0.733955188,3
0.001422435,0.218323758,1.407019216,16.26013024,3.205345862,0.011333889,0.33611258,6.94543346,3
0.002221946,0.229980281,1.355554743,14.9803966,3.200477655,0.012653967,-1.012982865,40.27093802,3
0.001639951,0.227825539,1.353836598,15.54456215,3.186299242,0.014647603,-0.942861799,21.61273768,3
0.001688246,0.225648769,1.326768526,15.52262332,3.167819541,0.013878882,-0.225550978,9.749957701,3
0.000598114,0.228071723,1.339893832,14.9790767,3.15370418,0.01111106,-0.015966348,15.88743901,3
0.00099096,0.231030358,1.327111061,14.89236565,3.14473381,0.010715724,0.555824772,4.478811487,3
0.00295614,0.231524305,1.344560156,15.04245765,3.131165205,0.014252302,0.466543606,0.504376873,3
0.000895255,0.228220473,1.379481782,15.41010512,3.116149085,0.011982737,0.724024433,3.710665024,3
-0.000546007,0.229827165,1.428127457,15.56324939,3.119231415,0.020495538,0.648023046,-0.226606644,3
0.000666864,0.229609925,1.428397902,15.47093135,3.128373119,0.01953826,-0.028833754,-0.345383477,3
0.000443122,0.230434831,1.400829888,15.45613147,3.148976353,0.038615867,1.344249438,0.496044044,3
0.003373038,0.230399921,1.406277306,15.48246935,3.190111705,0.03898639,-0.634499023,-1.043126077,3
0.00396524,0.227833959,1.387898519,15.59326764,3.196056856,0.019396473,0.012143991,-0.750100477,3
0.000479762,0.236734004,1.441022334,14.64836336,3.180661719,0.015261722,0.391575988,0.23570593,3
0.002111533,0.236291564,1.425991722,14.50378368,3.19247115,0.020112171,0.000627361,-0.255408383,3
0.00233589,0.227287393,1.448928842,15.82684659,3.18749297,0.021153607,0.44111383,-0.608752872,3
0.001195862,0.227505167,1.498713462,15.92508467,3.162394551,0.013091476,0.512298974,0.589821589,3
0.001991259,0.22649181,1.440475303,15.55198632,3.147094018,0.011889491,0.586799258,1.138174701,3
0.001171385,0.227403412,1.425635031,15.42516542,3.141475242,0.009576766,1.028142865,3.894881092,3
-0.000672559,0.236936853,1.3775085,14.04372543,3.14525359,0.015146781,1.219180617,1.732307257,3
0.001092708,0.236339679,1.446177233,14.42325577,3.151742227,0.01717967,0.495356336,-0.161190288,3
0.002132401,0.235493595,1.471965735,15.02715107,3.14366624,0.017202864,0.570522894,-0.052884775,3
0.002141085,0.234430814,1.352209146,14.56490775,3.122858102,0.013111128,0.439978431,0.368328569,3
0.00299227,0.226764623,1.330019521,15.28521242,3.107568196,0.011912487,0.497036054,1.051878654,3
0.001396186,0.2286109,1.367296247,15.37991634,3.09585713,0.01082433,0.878914838,1.816481041,3
0.001898196,0.226828104,1.33628668,15.02576722,3.085848291,0.010188317,0.85901237,2.633372648,3
0.00051367,0.229004996,1.378480162,15.05611261,3.075313895,0.010884958,0.707720806,2.050693456,3
0.00093285,0.240238772,1.443327761,14.4304471,3.067749514,0.009663217,1.178943888,4.546028466,3
0.002059832,0.243871086,1.432473384,13.743581,3.060018539,0.010948526,0.721329584,1.935792086,3
0.001055485,0.234152063,1.378245421,14.64784065,3.057280241,0.010434445,0.914312985,2.116422751,3
0.001939872,0.226834197,1.331413718,15.44275779,3.054810388,0.011703784,0.631122571,1.196556914,3
0.001973046,0.224941059,1.290774378,15.05458866,3.043283953,0.011341955,0.707942251,1.616498196,3
0.001130964,0.226368934,1.346508442,15.17818388,3.03136395,0.011183525,0.785535628,2.072120599,3
0.000370802,0.233817296,1.396662376,14.45468349,3.033876201,0.013898326,0.661046537,0.625705337,3
0.002238896,0.232683294,1.337407635,14.16890778,3.037127849,0.012150393,0.749199148,1.132644694,3
0.002209279,0.238529032,1.393969188,14.53933079,3.029850279,0.009643522,1.038645583,3.515179878,3
-0.000929908,0.244887053,1.368193948,13.8491455,3.036678096,0.019492111,0.963987783,0.099170034,3
0.001529572,0.234696114,1.242756941,14.30892992,3.050576891,0.018623991,-0.178545656,-0.284332708,3
0.003366943,0.229662727,1.207026035,15.1567357,3.049445779,0.012204163,0.494722078,6.315014431,3
0.001786495,0.227752294,1.24109696,15.28327642,3.037933459,0.011336613,0.18827057,6.446234337,3
0.002051448,0.233257616,1.34434693,14.62704785,3.025528227,0.012469183,0.495503122,0.976129938,3
0.001141565,0.228966414,1.305037305,15.15657534,3.013120215,0.011324001,0.758873615,1.730354302,3
-0.00036765,0.220124904,1.152047713,15.36123861,3.005059869,0.009742937,1.113263099,3.531324387,3
0.00127257,0.23400619,1.238255732,13.6805458,3.002583367,0.009088988,1.296040742,4.491764716,3
0.003113813,0.236407107,1.325612574,13.94186277,3.001670238,0.009058076,1.157872213,4.222532128,3
0.001811639,0.235060804,1.353642604,14.22090625,3.002207947,0.009612654,1.136873676,3.566954688,3
0.001581933,0.235040719,1.315354514,14.19617704,3.000907244,0.010282952,0.912048456,3.040436064,3
0.001873744,0.227992969,1.289165972,14.65270661,2.992335401,0.011098178,0.762839724,1.84949457,3
0.001510633,0.234561395,1.320841732,14.06745101,2.986382566,0.009231565,1.394524198,4.185593274,3
0.000656636,0.243767367,1.367312601,13.65640226,2.988645336,0.018102725,1.747487724,3.223539047,3
0.000653791,0.239515536,1.437385355,14.47222251,3.031865747,0.044672681,-0.200978553,-1.625356015,3
0.001675317,0.228051968,1.415125328,15.68819078,3.060835866,0.016007364,0.278015952,-0.336385027,3
0.000499956,0.223140749,1.356352614,15.25771269,3.050218691,0.013625012,0.550996129,0.646410107,3
0.001752123,0.217256512,1.457690751,16.59144369,3.05004,0.013473525,0.585451247,0.591959819,0
-0.006960048,0.226157607,1.245029398,14.32887054,3.080916377,0.068161455,1.833835111,2.067303702,0
-0.001781152,0.253055408,1.003109826,10.12195911,3.206514577,0.113541894,-0.40348558,-1.429612953,0
0.010504538,0.28021683,1.026695398,8.164465933,3.300574711,0.025856633,0.068217022,0.651160482,0
-0.001649094,0.280907559,0.893898056,7.425869775,3.378758621,0.101825487,0.673388609,-1.163169732,0
0.003884857,0.251982388,0.86779928,8.944008142,3.467148808,0.069292033,-1.109534948,1.373923733,0
0.012184067,0.239105814,1.004048036,11.41537808,3.466822052,0.024178321,2.033921509,4.033001912,0
-0.000406736,0.256052158,0.584363415,8.440203686,3.496393585,0.058944209,1.490711809,1.407263684,0
-0.003541253,0.254845986,0.99625691,8.729284742,3.576196453,0.061735689,-0.2050441,-0.976577787,0
0.009939645,0.25821227,1.190373633,8.20629913,3.616668701,0.025051298,0.659181725,0.297150653,0
0.001246798,0.251213274,1.331652026,8.634184457,3.644215884,0.03422962,0.392537611,-0.953004183,0
-0.007074554,0.230523751,2.181977085,14.26188506,3.664254597,0.020718479,0.405407534,0.253582044,0
0.002624588,0.235722717,1.832361101,12.05174495,3.640667398,0.023931096,-0.728010297,-0.403088119,0
-6.98E-05,0.23462595,1.567761102,10.88502001,3.620144326,0.01693588,0.077806516,4.88993253,7
0.001416412,0.227275307,1.692885874,11.98558839,3.604874366,0.01579223,-0.299180532,4.226753768,7
0.003645983,0.221604743,1.877156436,13.35860496,3.589097486,0.010469699,1.125837396,2.968025855,7
0.001483259,0.22156743,1.776022969,13.27383284,3.574864415,0.016316529,-0.319002909,-0.024162783,7
0.002616473,0.225535685,1.434940576,11.07412891,3.551909256,0.017778204,0.579235748,-0.172603738,7
0.000720631,0.223830116,1.586892014,12.07042155,3.538084412,0.011609904,0.196055798,1.900950252,7
0.001256941,0.217721864,1.573756859,12.3066289,3.517784936,0.023875274,-0.132196468,-0.894470383,7
0.0040129,0.225917917,1.819400234,13.3005465,3.521095385,0.025845328,-0.269668976,-1.12791875,7
-0.001678534,0.222907018,1.900449235,14.03040395,3.551784134,0.016163601,0.89962318,0.591080501,7
-0.00197336,0.220253343,1.352568934,10.73856696,3.553872081,0.016086317,0.648059972,0.432574668,7
0.003913016,0.221001016,1.206404472,10.0951263,3.532217462,0.019954758,-0.620422322,12.62914747,7
0.002957487,0.216685157,1.517087814,12.08476676,3.520791462,0.012580118,-2.317922447,75.77353659,7
-0.000651077,0.21478974,1.665242853,12.79487702,3.531327384,0.021825126,0.438961365,-0.34992077,0
0.003544719,0.223954582,1.168253237,10.06625774,3.622963933,0.093674987,0.149107562,-1.627286844,0
0.006091154,0.240976944,0.888991981,7.987767908,3.68695864,0.041979981,-0.206963069,0.006893232,0
-0.000729067,0.236123641,1.085458378,8.570465008,3.643593107,0.027841621,0.044252079,-0.815574277,0
-1.59E-05,0.233178704,1.367089863,10.35971564,3.604061018,0.022590079,0.258075516,-0.311195796,0
0.000343421,0.235269042,1.507904203,10.50467635,3.582642582,0.013354872,0.282288022,2.232177301,0
-7.80E-05,0.227250755,1.955377178,12.84570639,3.561477825,0.020853432,0.095096806,-0.683458535,0
0.003058659,0.226898007,2.108937432,14.48091119,3.530970219,0.018318166,0.247938071,-0.413344579,0
0.001384493,0.22449417,2.010355834,14.3288235,3.504688753,0.017480891,-0.216448578,4.215395902,0
0.003105331,0.229264944,1.889232286,13.09182153,3.480891691,0.016640786,-0.053714254,3.365384938,0
0.001241396,0.239946187,1.860908381,12.14069424,3.460730253,0.014311761,0.466901868,0.344646292,0
-0.000470646,0.240538939,2.054036926,13.22268756,3.444199426,0.012401907,0.77127794,1.416407274,0
0.00277614,0.237451952,2.192495524,14.17197231,3.427977371,0.013732288,0.058462622,0.492457432,0
0.001596758,0.229880197,2.249584641,14.76535262,3.410414451,0.014375735,0.570309177,0.552542062,0
0.001557292,0.229003189,2.087991337,14.0771749,3.395721218,0.011519468,0.535474372,1.24453581,0
0.00144531,0.227412585,1.987660716,14.21655254,3.3954713,0.011050086,0.547639897,1.553724185,0
-0.000165495,0.227854846,1.904421237,13.81621463,3.395667757,0.01075769,0.701515335,2.034983483,0
0.00193088,0.234710843,1.816530404,12.84778289,3.395308086,0.018393129,0.46718568,-0.219248303,0
-0.00137195,0.246753578,1.784615349,11.76108176,3.410534886,0.026295904,0.791471245,2.026198231,0
0.001948157,0.261723451,1.716148338,10.97573277,3.464884022,0.049147577,-0.058850115,-1.588310775,0
0.005904314,0.253994028,1.512877504,11.24471671,3.511631448,0.019780867,-0.130488969,0.041409064,0
0.000240882,0.236851643,1.287311006,11.12932993,3.510161972,0.018612773,0.108987355,-0.487218608,0
0.00093115,0.225859193,1.604656698,13.85140626,3.507342911,0.014849689,0.410933069,0.166204259,0
0.003332663,0.228150084,1.488617385,13.53991137,3.492855453,0.020664653,0.400444134,-0.481950214,0
0.000647618,0.244602241,1.409877703,11.56311959,3.52425924,0.059329399,0.55949669,-1.375679652,0
0.000596342,0.241899004,1.688730287,12.6187502,3.553490666,0.04227498,0.076868898,-0.848464719,0
0.002638452,0.228533389,1.661171993,13.63348018,3.510127858,0.031671597,0.307595629,-0.680228987,0
0.003447595,0.241952967,1.569552644,11.57462939,3.464643097,0.024637233,0.23055854,-0.900907125,4
0.002119335,0.24057527,1.619302225,11.2379466,3.447310529,0.065243747,4.375745434,21.17352048,4
-0.000801505,0.215891823,1.648605118,13.48738641,3.424402346,0.070079749,4.347924324,20.35287385,4
0.002002023,0.205195852,1.815701685,15.71545613,3.381265368,0.021646534,0.057882895,-0.808503167,4
0.000631119,0.188516695,2.210231352,20.31687701,3.350229863,0.018376491,0.307955782,-0.272664411,4
-0.000269191,0.187439678,2.275322631,20.19810198,3.32303118,0.017701766,0.19945312,-0.484742593,4
0.00256589,0.190151992,2.336281828,20.25174773,3.297785514,0.016138719,0.239713463,-0.111296206,4
0.001601297,0.18959833,2.443513541,21.56070748,3.281759698,0.011827783,0.176113874,5.215467804,4
0.001059893,0.20339789,2.413248701,19.6670673,3.267851094,0.013745625,0.347115411,1.566025081,4
0.001481258,0.191985615,2.439847192,21.71539049,3.252045059,0.010923626,0.68631632,1.934578013,4
0.001907279,0.181524222,2.161197659,20.93568508,3.240637425,0.010775767,0.740110137,2.352592821,4
0.000791107,0.192791065,2.239802167,19.4513749,3.238630894,0.010557364,1.16495383,3.733854453,4
0.002081504,0.21680719,2.348402142,17.63419004,3.241081238,0.01036078,0.445121654,14.48071577,4
0.002179112,0.216237697,2.34538829,18.33456847,3.229479871,0.015148171,0.036322303,1.704265104,4
0.001210464,0.193097026,2.301080677,21.18615304,3.21114175,0.012685279,0.57523011,0.969798318,4
0.002898533,0.187801714,2.190103939,19.94938302,3.202810124,0.010265598,0.804153984,3.437311187,4
0.001662715,0.187215902,2.194362248,19.72996248,3.192956652,0.013238239,0.497110362,0.571264412,4
-0.000309232,0.194651676,2.152158722,18.37243266,3.178921291,0.01026495,0.797367084,2.118354274,4
0.000563821,0.209320706,2.369222286,18.34826625,3.16720205,0.01159657,0.250956724,4.61364991,4
0.000985833,0.203723645,2.467930092,19.92054133,3.151487568,0.013459872,0.254639759,1.388159384,4
0.002036224,0.207338278,2.212667254,18.19734664,3.135215269,0.012298943,0.409298322,0.843495083,4
0.000924938,0.200220087,2.286896576,19.4334175,3.120714351,0.012143782,0.729219235,1.247279117,4
0.002667343,0.202536693,2.263963361,18.66543983,3.108093643,0.010886227,0.693569254,7.267527454,4
0.002039043,0.211929578,2.282235247,17.70768884,3.097944968,0.010587644,0.568064713,5.258283199,4
4.97E-05,0.190851841,2.21315221,19.16834428,3.086919894,0.011015871,0.67848742,1.287912696,4
0.003950677,0.198521056,2.202880299,18.20115308,3.073633357,0.012199455,0.152153428,6.365481406,4
0.001007603,0.199748461,2.346362657,19.39982427,3.059938322,0.011827129,0.442970045,5.352028354,4
0.000188344,0.200099216,2.226484851,18.7210582,3.050908388,0.009340402,1.187573135,3.937207692,4
0.003111766,0.2050918,2.302730865,18.60375729,3.042776816,0.010985853,0.718526986,2.005259232,4
0.001668313,0.202637222,2.381377894,18.92590842,3.032585852,0.010555921,0.960420044,2.900546083,4
0.000796129,0.200475915,2.369168579,19.0690099,3.028901454,0.010182163,-3.789669328,137.098876,4
0.001190513,0.194849517,2.345831802,19.4568345,3.025252914,0.010833474,-3.015854006,101.1950622,4
0.000597257,0.207704115,2.384718361,18.24454244,3.014941025,0.01115038,0.692407576,2.32586829,4
0.002863456,0.214385811,2.497950935,18.47986715,3.005891473,0.009965947,1.276859833,4.266254233,4
0.001430028,0.202068032,2.431394944,18.9029743,2.999681745,0.009487696,0.978517569,2.961984278,4
0.001522999,0.197889627,2.28829154,18.3305681,2.994851249,0.009338734,1.242750134,3.933634015,4
0.003022175,0.196478171,2.342922207,18.77337993,2.988133076,0.010348526,0.900222765,2.65663808,4
-0.000765963,0.198637076,2.258298493,17.81818249,2.979370553,0.010002381,1.019305604,3.577679291,4
-0.001045395,0.198926917,2.205087699,17.97694522,2.97129424,0.01002304,1.049151519,4.157407589,4
0.00135417,0.196089213,2.195249458,18.40271442,2.96438397,0.009439814,1.217515475,5.663802242,4
0.004009245,0.205419624,2.103221672,16.40829757,2.956578118,0.01066488,0.767547895,2.678646663,4
0.001553604,0.202485397,2.256377547,17.20672384,2.947662354,0.010109649,0.906321654,3.292972098,4
-0.001129355,0.210081303,2.294649385,17.4453814,2.943125044,0.0101344,-1.840641021,70.16269635,4
0.002355554,0.218771446,2.284221899,16.95166761,2.946119581,0.010651244,-1.665482651,60.81233836,4
0.002326407,0.200494925,2.38093829,19.0418216,2.945575823,0.010037644,0.909122865,3.99629194,4
-0.000200821,0.1963892,2.045083379,16.44542181,2.934794072,0.011472438,0.69258214,2.066125585,4
0.000191914,0.206347582,2.069863944,16.0585583,2.929483359,0.011336448,0.785185526,2.798558294,4
0.003814669,0.199931015,2.294358817,18.69905697,2.932904707,0.011440722,0.526786592,2.609753106,4
0.003378198,0.198763748,1.99533102,16.61389526,2.931796156,0.010091847,0.97240349,3.171765134,4
0.000796626,0.20528849,2.034848815,16.37644838,2.92503564,0.010039934,1.025710224,2.435869655,4
0.001084004,0.200711888,2.164884091,17.55375999,2.921671132,0.009254657,1.351223595,4.081976821,4
0.001520593,0.198922861,2.001665431,16.29703502,2.919696917,0.009267891,1.10638325,3.668453368,4
0.002159991,0.220960976,2.179126289,15.7701498,2.915047019,0.009521722,0.90048803,3.21745556,4
0.001283053,0.222858546,2.283462956,16.29246491,2.911735208,0.009478685,1.270164727,4.631269489,4
2.53E-05,0.205306926,2.229230668,17.12882127,2.905487769,0.010835206,0.746213014,3.03430714,4
0.000643439,0.206026402,2.228364141,16.99301729,2.895306015,0.010304889,0.690624382,2.276780549,4
0.001639468,0.204617521,2.310704916,17.94866222,2.887004961,0.009980083,1.123158632,4.342537207,4
0.001712958,0.207340606,2.135456682,16.22289215,2.881999534,0.009395034,1.500556585,5.829559795,4
0.000529855,0.198235837,2.134626992,16.82294641,2.87802827,0.009721031,1.277628352,4.569328951,4
0.002564804,0.204786839,2.078717143,16.15395541,2.876622772,0.010451584,1.061712248,2.729810289,4
0.002194414,0.214830569,2.031175004,14.88102179,2.873717717,0.011647101,0.807416026,1.444148649,4
0.002652505,0.210638243,2.226871046,16.14983017,2.870285198,0.009855852,1.142019173,4.099779436,4
0.001520181,0.204097496,2.261862449,17.37069311,2.87021092,0.009066574,1.343888416,5.430017097,4
-0.001555187,0.196197711,2.172087751,18.11144052,2.867745263,0.009219108,1.247069584,5.369732298,4
0.00176687,0.203279928,2.203684545,17.04248699,2.864401627,0.009336184,1.258300277,4.689279071,4
0.00266546,0.204286192,2.223076684,16.920821,2.862431989,0.009242265,1.5236005,5.401838554,4
0.002701983,0.198774175,2.222670413,17.33514988,2.860207639,0.009484205,1.538730886,7.182921829,4
0.0010033,0.201026325,2.449478645,18.17003784,2.855064828,0.010109474,-0.186188146,36.28570163,4
0.000546995,0.198853476,2.620098266,19.32009213,2.848323168,0.009947298,-0.272965977,32.40684306,4
0.00291158,0.196751732,2.637084249,19.58354185,2.845428249,0.009002294,1.516259133,4.712337676,4
0.000715936,0.200150044,2.59568153,18.84717616,2.844707707,0.009431744,1.298079844,4.693253053,4
-0.000127363,0.196656021,2.566369497,19.28915381,2.842110007,0.009496841,1.238147277,4.533248188,4
0.002831791,0.19936803,2.607846279,19.18589084,2.838953018,0.009393285,1.196810888,3.941563995,4
0.001791118,0.20357532,2.680335535,18.78982002,2.838653292,0.00907796,1.273476507,5.550795562,4
0.000318983,0.19712148,2.770655867,20.43518098,2.839326259,0.009202203,1.563640049,7.551286951,4
0.002983141,0.211799445,2.359656182,17.04595434,2.837681035,0.009470042,1.472754213,6.295136079,4
0.001480434,0.209051326,2.284433561,17.08365608,2.837057986,0.009400939,1.288257755,5.147746199,4
0.000798418,0.211331968,2.293050768,17.28755176,2.83682894,0.010333753,0.996154194,3.383044218,4
0.001989755,0.220188139,2.166324406,15.67840692,2.837373134,0.010318373,0.860224617,2.825527717,4
-0.00359693,0.233275956,1.758781308,12.13485676,2.851731273,0.030495821,1.7902703,2.273834736,0
0.002558605,0.307143465,1.191030668,6.276537459,3.002293178,0.145933775,0.106014827,-1.744000776,0
0.007177211,0.30543328,1.194537697,6.381466326,3.138433729,0.043525403,-1.671655066,3.431466148,0
-0.004090053,0.249317941,1.605248664,9.553261214,3.147228949,0.020069237,0.750218202,0.260099552,0
0.002936462,0.234914621,2.087949104,12.86780778,3.162277276,0.018928096,0.298517861,0.134484899,0
0.005823951,0.223290689,2.728609354,17.70200015,3.165944563,0.014138405,0.859388221,1.250296547,0
-0.003530528,0.217561445,2.790187434,18.76209675,3.156023189,0.01420112,0.595872265,0.562988344,0
-0.000643106,0.212095002,2.708399525,19.14005575,3.139378902,0.012914369,0.628368038,0.75625375,0
0.005778835,0.217914115,2.369452779,16.79330657,3.12806015,0.009731781,1.209845388,3.730489942,0
0.004298427,0.229807843,2.05866332,14.36086423,3.12420033,0.009570858,1.304589776,4.277482365,0
-0.003255001,0.230603121,1.838734726,12.01249212,3.132937295,0.021548152,1.047733527,0.007928867,0
-0.001729346,0.231073642,1.917240328,12.55031785,3.14431027,0.019888327,0.173997609,-0.506924215,0
0.002322981,0.230685246,2.117798083,14.59098392,3.136628124,0.014373971,0.577881536,0.598191555,0
0.004580181,0.235839199,1.779448501,11.66774072,3.123912975,0.010319079,0.889799985,2.484488288,0
0.003036261,0.237138857,1.735003984,10.7416122,3.119262695,0.009586798,0.970487775,5.604865574,0
0.000816055,0.242234308,1.614473624,9.75772214,3.116406196,0.009480607,1.14962923,6.073669989,0
0.004019708,0.244768664,1.542771459,9.754188475,3.113726044,0.009491256,1.393703406,5.530192069,0
0.000379735,0.246078844,1.619437072,9.925234216,3.121019963,0.013971869,0.246903629,3.099985911,0
-0.002400447,0.257811836,1.660458077,9.255315963,3.144117628,0.019696767,-0.014548752,0.654537289,0
0.000177115,0.255793248,1.558254559,8.89782345,3.181214469,0.028284681,0.16794837,-1.027624648,0
-0.001566265,0.249701787,1.360142672,8.444272507,3.246418599,0.067260059,0.877074453,-0.80034392,0
-0.008033661,0.240574666,1.277712744,8.262943877,3.364075089,0.093711276,-0.532985789,-0.898664897,0
-0.000846353,0.23641484,1.361247459,8.124122285,3.452625384,0.036995565,-0.13897113,-0.527639717,0
0.014304395,0.250573868,1.308863512,7.814747612,3.448791831,0.031332556,0.696325223,-0.109547391,0
0.006583407,0.259602474,1.348107442,8.992000841,3.461118317,0.051973639,1.073777905,-0.247574823,0
-0.002251825,0.256831908,1.703559111,11.82946346,3.516525923,0.055790585,-0.183977923,-0.965514841,0
