mean_ecg,std_ecg,skew_ecg,kurt_ecg,mean_eda,std_eda,skew_eda,kurt_eda,Label
0.007264154,0.278714434,-0.103852069,4.820753127,0.723950304,0.013708519,0.951531183,12.26801692,0
0.000156346,0.151547779,-0.11203348,3.707309432,0.724453899,0.014114371,-0.322689279,40.96552589,0
-0.000108987,0.144072774,-0.20130257,3.753053576,0.725080327,0.01406076,-0.408268131,42.00677174,0
0.000133589,0.140676726,-0.231086458,3.878938575,0.726661519,0.01352254,1.570234568,5.046921352,0
0.002817418,0.14004123,-0.368929115,3.334575553,0.72811045,0.013667991,1.547671861,4.770019615,0
0.001603448,0.146299597,-0.585689915,3.615431538,0.729204505,0.013322446,1.459871003,3.961921352,0
0.000187866,0.150118077,-0.580114768,4.442497341,0.730446625,0.013367745,1.564293217,4.475963825,0
0.001267593,0.155447443,0.090616795,4.785289484,0.731299155,0.01349674,1.472633485,5.408816779,0
0.002530714,0.15964941,0.478754279,4.731931579,0.731427656,0.013212522,1.479183075,5.296368871,0
0.00083604,0.161202986,0.347128861,4.200190954,0.732037354,0.013569496,1.598060018,4.14699716,0
-0.001183149,0.164210724,0.353278754,4.176090088,0.732293265,0.013673198,1.531516547,4.209350915,0
0.002659156,0.163994691,0.509668341,5.170945161,0.73193997,0.013448812,1.549447048,4.581544301,0
0.0014047,0.165107537,0.679207758,5.771367234,0.73149692,0.01318679,1.601133775,4.699449462,0
-0.00050131,0.178178706,0.290160816,5.28141235,0.731686074,0.013092865,1.678213279,4.949500152,0
0.004074496,0.180123453,-0.077437848,5.28705059,0.732818168,0.013337778,1.668324081,4.572616733,0
0.004046127,0.176841173,-0.078848232,7.07052612,0.733881542,0.013125179,1.5741498,4.327346345,0
-0.001585379,0.162982884,-0.16465341,8.234288849,0.733975656,0.013148927,1.531884385,4.314739174,0
-0.001480905,0.139193593,-0.202547992,6.581268934,0.734224755,0.01289159,1.572865305,4.414707222,0
0.002497748,0.133952299,-0.27527273,7.190695567,0.735376794,0.012975272,1.487588518,4.706547372,1
0.003027257,0.128299036,-0.483884762,7.299032782,0.735798917,0.013380487,1.156076786,7.929895357,1
0.001903617,0.128858505,-0.217589341,6.542366826,0.736184202,0.013202197,1.15633108,7.703771032,1
-0.000564678,0.137110697,-0.131545011,5.783056757,0.737512425,0.01329495,1.527978638,4.347052223,1
0.000147746,0.134382091,-0.406142632,5.258130279,0.738389151,0.0135126,1.674276154,5.548427743,1
0.001198118,0.131889807,-0.459695443,5.461131998,0.738615036,0.013414233,1.658801255,5.163000567,1
0.002252557,0.13402489,-0.029654187,6.373045335,0.73928457,0.013442112,1.69946192,4.703378639,1
0.00099132,0.139975673,0.304163717,6.600101205,0.740362385,0.013642361,1.664523212,5.228194386,1
-5.95E-05,0.144165617,0.358192091,6.134365113,0.741388539,0.013478974,1.621443155,5.416123051,1
0.003844136,0.142299733,0.371044921,6.173325672,0.742555291,0.013165501,1.643155476,4.954845868,1
0.0034727,0.142729654,0.192097792,6.015349767,0.74398613,0.013109368,1.303032071,6.344939848,1
-0.001112568,0.155566132,0.05556553,5.21728297,0.745254353,0.013287211,1.384063656,7.137987525,1
0.000668126,0.170424141,0.388714709,4.904202187,0.746106284,0.013642976,1.820003328,6.333145363,1
0.003168339,0.165974088,0.542045631,5.114907466,0.747050313,0.013964457,1.882689848,6.087076495,1
-0.000409823,0.157953025,0.373956674,4.594054871,0.747601918,0.013662411,1.681961128,5.037302065,1
0.000856012,0.156294331,0.312674446,4.497887827,0.747432055,0.013409976,1.523766765,4.585320572,1
0.002305409,0.155473902,0.334741404,4.907911218,0.747102301,0.013471067,1.547663495,4.922830099,1
0.002156499,0.154305763,0.326726946,4.892436113,0.746870259,0.013419575,1.573750435,4.496358536,1
0.000732271,0.155128988,0.345793169,5.173207625,0.747218214,0.013721124,-0.022216094,33.29251175,1
0.000488656,0.160065336,0.408639869,5.169173729,0.747883224,0.013701753,0.036422505,34.16719978,1
0.00083689,0.16048695,0.424811703,5.076100107,0.748484693,0.013340033,1.628973027,4.635051274,1
0.002206218,0.158031379,0.366539378,4.941376449,0.748941585,0.013202686,1.534177619,4.470597527,1
0.001389561,0.159681803,0.325447643,4.630484805,0.749638966,0.01343533,1.654775885,4.404291433,1
0.001417001,0.159094294,0.30209002,4.74263377,0.749985559,0.013515849,1.672035487,5.036893366,1
0.000489971,0.158916651,0.340901282,4.882066625,0.749732644,0.013335331,1.585302305,4.995810012,1
0.000319153,0.162322966,0.376849956,4.785748631,0.749954551,0.013439944,1.587401217,4.246946211,1
0.003244871,0.164485711,0.293699842,4.745533504,0.750189917,0.013486421,1.720565518,4.651155668,1
0.00019521,0.164298962,0.358608101,4.858685142,0.75049978,0.013236867,1.757953913,4.579114286,1
0.001934496,0.160545085,0.347565333,4.684896005,0.750889424,0.01321957,1.694846762,4.564646134,1
0.00092276,0.160938644,0.273154482,4.510288117,0.751486533,0.013358842,1.666017122,4.769614482,1
-0.000451989,0.160230634,0.255548724,4.409649055,0.752371706,0.013397402,1.576408342,4.269771153,1
0.001649375,0.160064399,0.174434454,4.37747492,0.752936663,0.013394765,1.574916367,4.362574009,1
0.001781145,0.161365923,0.165381811,4.338392318,0.752805546,0.013224459,1.402314095,7.688094506,1
0.002661196,0.159191282,0.300593887,4.501683445,0.753000259,0.012969299,1.357763911,7.903168489,1
5.80E-05,0.159769105,0.315441476,4.605614057,0.754462814,0.013227772,1.585003134,4.473889759,1
-0.000826146,0.180321212,0.539211894,3.938092476,0.755381393,0.013730632,1.006420678,11.68560883,1
0.000738196,0.178235343,0.706539313,4.631376111,0.756140682,0.013782523,0.980588204,12.13606041,1
0.00228513,0.157806007,0.607637246,5.584865061,0.756850052,0.013556532,1.525967138,4.66658485,1
0.00445578,0.158098327,0.657866628,5.525789644,0.75673196,0.01311588,1.522832002,4.11803161,1
0.002013559,0.14877034,0.724156278,6.447669305,0.757031413,0.012967916,1.515931751,4.05117511,1
0.000453075,0.153462539,0.852608321,6.460624677,0.757773263,0.013227295,1.555309081,4.246025242,1
0.002543302,0.161586255,0.805356995,5.685861694,0.758526012,0.013533822,1.646944254,4.303933002,1
0.001091701,0.159568095,0.671972227,5.288160929,0.75833337,0.013529781,1.755223495,4.792869296,1
0.000365034,0.161130654,0.674172215,5.396848096,0.757702037,0.013493076,1.753458346,5.008202702,1
0.000568457,0.158921477,0.633850045,5.33964045,0.757732718,0.01363625,1.723386362,5.068797664,1
0.001960151,0.159791227,0.764424666,5.926323841,0.75781201,0.013510156,1.727491586,5.301288247,1
0.001501144,0.161257189,0.817242859,5.922942265,0.758415222,0.013586067,1.604555849,4.32786411,1
0.001911942,0.159559607,0.566688132,5.00336892,0.75924312,0.013772951,1.570077042,4.399579098,1
0.00147207,0.162762319,0.638600573,5.135145118,0.759471403,0.013655001,1.57933275,4.771833492,1
-3.35E-05,0.167095885,0.797340576,5.085903494,0.760287312,0.013662419,1.599650515,4.378294624,1
0.000651731,0.163473327,0.659029615,4.701759497,0.761411939,0.013762143,1.717643398,4.439838536,1
0.000244263,0.164881599,0.75210425,5.14094981,0.761829485,0.013615232,1.515655945,6.162346813,1
0.003641942,0.170049237,0.831481374,5.371383317,0.761072486,0.01340148,1.418851714,5.875884558,1
0.001844794,0.17007862,0.841841952,5.467821288,0.760426222,0.013445175,0.801504213,14.33078959,1
-0.000944975,0.169836402,0.945457792,5.718114094,0.761176518,0.013555439,0.864080139,14.61353604,1
0.001339044,0.167133337,0.914126783,5.729857662,0.76177657,0.013202538,1.560821462,4.709638621,1
0.003482404,0.170227828,0.966781136,5.808448497,0.762426867,0.013711634,1.637466464,5.171699442,1
0.000972277,0.169348273,0.942106855,5.684783438,0.763571004,0.01412916,1.792037082,5.541689805,1
0.000495503,0.167237606,0.899747738,5.654418274,0.764731216,0.013738066,1.460900009,7.9024769,1
0.000589724,0.171364714,0.96272545,5.51865455,0.765589414,0.013462278,1.304931038,7.48091316,1
0.000452833,0.172815016,0.723885469,4.342372539,0.765972301,0.013552325,1.59409044,4.609764719,1
0.002783929,0.171390901,0.511466262,3.920172186,0.766613497,0.013530913,1.692003563,4.867510518,1
0.00337655,0.166593507,0.441914816,3.969493043,0.767608915,0.013281492,1.602223171,4.500574285,1
0.001113831,0.169545301,0.598128609,4.267767752,0.768160956,0.013116082,1.561786063,4.199811641,1
-1.22E-05,0.172112202,0.652460604,4.510048707,0.768767221,0.013172134,1.63677105,4.341360856,1
0.000625933,0.170541386,0.505690075,4.624515838,0.769475283,0.013324702,1.520205403,4.252571357,1
0.000661972,0.172766876,0.533675558,5.043723611,0.769809941,0.013279249,1.531410466,4.431300509,1
0.001585105,0.168177539,0.529080733,5.279645243,0.770336097,0.013428112,1.592423466,4.479745539,1
0.000353027,0.163630315,0.417516723,4.920833609,0.770973097,0.013554929,1.497882823,3.927345212,1
0.00120845,0.166319035,0.450294355,4.58712224,0.771495601,0.013563683,1.656100375,4.884697915,1
0.003326667,0.167674,0.513957425,4.642550232,0.771747153,0.013550742,1.748790902,5.174190255,1
0.002627354,0.165649084,0.52999863,4.64121595,0.771993855,0.013487027,1.67864855,4.751181451,1
0.001291868,0.164395619,0.48736779,4.350600649,0.772817884,0.013423741,1.677069725,4.962635758,1
0.000490435,0.165714242,0.503850599,4.341241714,0.773800605,0.013442982,1.617024333,4.488771782,1
0.000631518,0.165464331,0.491872987,4.495448872,0.774030413,0.013654973,1.575068424,4.426129255,1
0.001900412,0.164935986,0.447503125,4.483867958,0.77445913,0.013730058,1.632886707,4.79364633,1
0.002439475,0.166966364,0.440790048,4.249790975,0.774850246,0.013549792,1.675494015,4.470254971,1
0.001829171,0.163562724,0.124176916,4.680162739,0.776154273,0.013580493,1.50355063,3.603129891,1
-0.001246824,0.163678781,0.104551398,5.968299552,0.77783808,0.013362541,1.612515948,4.647064239,1
-0.001104133,0.166453497,0.047049741,5.617302752,0.777911758,0.013726642,-0.364393606,38.57298733,1
0.003970963,0.159794109,-0.492955966,5.964289845,0.777891759,0.013935359,-0.348069705,36.00049302,1
0.00283703,0.155671921,-0.918755723,7.423510457,0.777160754,0.013388809,1.669270551,4.312270128,1
-0.000806645,0.156513503,-1.021721151,7.349488974,0.776691437,0.013235933,1.849507671,5.735008033,1
0.000691956,0.153582808,-1.126897951,7.557771297,0.777139119,0.013084454,1.754489065,5.775731175,1
0.000962003,0.155530418,-1.169425658,7.59605696,0.77771165,0.012993616,1.530483458,4.070658731,1
0.001834743,0.159006484,-0.259402884,7.896074656,0.777803312,0.012930442,1.641591049,4.429085941,1
0.002109532,0.155856914,0.477669271,8.377782325,0.777718081,0.012882062,1.624738844,4.379102127,1
0.000141338,0.157937003,0.002290643,6.511046574,0.778496661,0.013078617,1.535551898,3.830093446,1
0.003013824,0.158962483,-0.305153864,5.716788771,0.778876005,0.012824305,1.500082158,4.030424855,1
0.002446904,0.156646978,-0.160352019,6.818299099,0.779128265,0.013043267,1.531014265,4.13866647,1
-0.001262054,0.158343884,-0.194410016,6.527348198,0.77938979,0.013484047,1.612030166,3.998923974,1
0.000858124,0.159536828,-0.258907661,6.438644802,0.77920505,0.013299825,1.539574034,3.783502608,1
0.001556776,0.160276147,-0.354769911,6.250694919,0.779158238,0.013147169,1.453179898,3.649100995,1
0.001712317,0.15957923,-0.543379707,5.689549426,0.77880625,0.013340585,1.584762077,4.781632896,1
0.001561366,0.165015061,-0.96617168,4.956186523,0.778422056,0.013494045,1.609740869,5.122049833,1
0.001977925,0.165694285,-0.966013268,4.250358516,0.778708104,0.013418035,1.461311316,4.288155198,1
0.002217682,0.156001018,-0.635226273,5.590518084,0.778887394,0.013210853,1.511402938,4.075128645,1
0.000589606,0.162977029,-0.281625839,7.58114344,0.778983906,0.013675992,0.367492762,25.62975555,1
0.002377768,0.171345641,0.028483005,6.640189401,0.779321071,0.013771921,0.324726449,25.22018166,1
-0.000442023,0.177616359,0.531121868,6.76115154,0.779505484,0.013169219,1.487090031,4.109142203,1
0.001055596,0.176703242,0.86646688,8.322616906,0.780042921,0.012987672,1.414009267,3.926382458,1
0.002309287,0.172822893,0.908091877,9.211748051,0.780937358,0.01295397,1.408963703,4.045750148,1
-0.0004261,0.173810364,1.045153364,10.05115341,0.781233161,0.013099037,1.489293984,4.263903842,1
0.001895907,0.166214284,0.822560758,11.44758691,0.780752618,0.013187173,1.517498717,4.216811698,1
0.001261126,0.162281538,0.891047208,11.79348214,0.780445807,0.013079116,1.523117415,4.088148051,1
0.000918052,0.16835491,0.927623741,10.45935387,0.780962699,0.013513376,1.557579855,4.06449182,1
0.001538282,0.173997457,0.69036407,10.16311303,0.781285041,0.013505433,1.504355352,4.127484561,1
0.002110931,0.169912446,-0.083265735,9.087350954,0.781506348,0.013282286,1.251675222,7.540465105,1
0.00038632,0.164757038,-1.068989327,7.11737637,0.78199561,0.013477833,1.392002409,7.771687004,1
0.001669203,0.160975633,-1.169466984,6.866676257,0.78250024,0.013644904,1.728877078,5.640339487,1
0.001867833,0.163455795,-1.212366209,6.216981693,0.783099583,0.013832642,1.683551354,5.860313868,1
0.000196446,0.16441524,-1.200411417,6.406388591,0.78340683,0.013327809,1.557992401,5.001140671,1
0.002256611,0.164603954,-0.944057875,6.027792787,0.78325664,0.013163045,1.048223056,10.62146061,1
0.001855552,0.171658721,0.107748144,7.160930797,0.783806774,0.013292195,1.023885749,10.25613883,1
0.001287742,0.175877381,0.972303336,8.77880055,0.784679903,0.013364396,1.08062058,8.446451887,1
0.000107653,0.172729686,1.11681817,9.079633279,0.785050528,0.013453983,1.103814254,8.329567707,1
0.000347312,0.166722911,1.04510411,9.664524383,0.78522437,0.013265165,1.542461721,4.122687017,1
0.001455904,0.167921439,0.854923796,8.846351569,0.785267966,0.01336665,1.56107589,4.287475175,1
0.002326976,0.168371412,0.758523873,8.755629577,0.785396303,0.013266339,1.481593194,3.880902154,1
0.003012229,0.173075365,0.841123488,9.236965704,0.785726493,0.013169381,1.456033049,4.015951227,1
0.000439924,0.177112123,0.955759003,8.394326686,0.78678578,0.013244379,1.522495312,4.152171649,1
0.001400966,0.174045169,1.0905741,9.252001291,0.787929371,0.013317827,1.558696273,3.807917175,1
0.001844565,0.170108012,1.12537867,9.536553558,0.788634001,0.013773259,0.632661411,14.09887194,1
0.000864578,0.165464987,1.076095049,9.103946709,0.788710185,0.013725017,0.611457198,14.38705214,1
0.001062783,0.165248789,1.014251207,9.366909575,0.788683592,0.013419212,1.195020258,8.136676698,1
0.000746351,0.160496074,0.702889186,9.080144522,0.788864899,0.013464339,1.246393249,8.496045966,1
0.00050524,0.15868045,0.845686339,9.895644008,0.788901084,0.013280649,1.614653223,4.566812766,1
0.002376833,0.186306789,1.263370411,8.724123367,0.788582066,0.013266958,1.479504738,4.007352914,1
-0.000513794,0.198951656,1.611051126,9.884572684,0.789254161,0.013515314,1.565939705,4.865683841,1
-0.001122103,0.210062258,1.790984636,9.840137342,0.789915139,0.013456049,1.571729395,5.455157745,1
0.003422732,0.211195337,1.672918886,8.50900549,0.789900916,0.013430775,1.507550901,4.775657683,1
0.002529105,0.186026197,1.736721038,10.67321978,0.790266091,0.013730744,1.63851653,4.327473824,1
0.001688501,0.186163594,1.855726256,11.87194142,0.79057966,0.01379166,1.605794889,3.903456339,1
0.001287042,0.186299256,1.828102371,11.71178343,0.790288326,0.013496474,1.65462509,4.879316956,1
0.00199808,0.177343281,1.237149586,10.60293057,0.790325546,0.013396276,1.650166887,4.885740981,1
0.00176668,0.177890613,0.882184241,9.929870945,0.791130284,0.013387414,1.532126953,3.812451962,1
0.00071793,0.188130143,1.279410919,9.849611046,0.791468811,0.013367233,1.551072953,3.968250929,1
-0.000489042,0.192146415,1.80023271,10.60503937,0.792676926,0.013463424,1.660924451,4.11099214,1
0.00195951,0.180119222,1.853921448,11.06986999,0.793557794,0.013356578,1.640683713,4.367728813,1
0.00360897,0.176261605,1.78207991,10.99332414,0.793427985,0.013597122,1.239455179,8.32617082,1
0.000171812,0.183013152,1.907258431,11.20019964,0.794017628,0.013782005,1.386712583,9.564936725,1
0.000160603,0.180120878,1.851677633,11.02693284,0.794302368,0.013481941,1.707562036,6.421649393,1
0.001528545,0.165100951,1.59274406,11.60862193,0.794008418,0.013321567,1.518036015,4.541773854,1
0.002706325,0.173676945,1.600995086,11.07807938,0.793954413,0.013270981,1.536759706,4.59661516,1
0.002066031,0.187711632,1.771822037,10.55394646,0.79474847,0.013318129,1.802391701,6.377127576,1
0.00034229,0.183534696,0.976062295,9.274730761,0.795846176,0.013398954,1.744447992,5.64687948,1
0.000597454,0.174014674,0.032861465,9.122036914,0.79734448,0.0131624,1.604867695,4.689711008,1
0.000286822,0.169827667,-0.017729781,10.09990565,0.798995427,0.01269863,1.775441141,5.177519378,1
0.003175284,0.168430517,0.106223954,9.472193809,0.799747031,0.013046966,1.831255502,5.576138771,1
0.001061861,0.180856733,1.285910476,10.56157765,0.799566487,0.013412353,0.57072528,21.16029622,1
0.000664365,0.184254389,1.810015751,11.03834001,0.799306815,0.013180572,0.22103117,21.57337763,1
0.000795737,0.175730613,1.730804374,11.12451735,0.800163378,0.012850807,1.357697193,4.508775826,1
-0.000330917,0.169470061,1.495906745,10.74296376,0.801166425,0.012908895,1.610142974,4.783985094,1
0.001574596,0.163695141,1.384146482,11.10879598,0.802035468,0.013306829,1.793546696,5.869477746,1
0.001774063,0.17907689,1.997833992,12.3290835,0.802536937,0.013278008,1.574065293,5.578452354,1
0.001903663,0.177161564,2.033773922,12.27047483,0.802919987,0.013129059,1.426716328,4.956127287,1
0.001179703,0.168370957,1.830697722,11.84993728,0.803749793,0.013114124,1.536408385,5.598201648,1
0.001100935,0.169471133,1.840158857,12.05838361,0.804440417,0.013363528,1.641520334,5.779193006,1
0.000724777,0.174157679,1.836313784,11.51515688,0.804484722,0.013319906,1.702681124,5.339600219,1
0.000314117,0.181744702,2.024044588,11.61884053,0.805277361,0.013223468,1.522791176,4.837840816,1
0.002134513,0.176207558,1.953750529,11.77209654,0.806319482,0.013131584,1.569796606,5.163752336,1
0.002665636,0.16794687,1.602243942,10.88968486,0.806884711,0.012971259,1.555637016,5.040655003,1
0.000756036,0.168521861,1.581207511,10.96260462,0.80735866,0.013297683,1.479248638,4.766908922,1
0.001284962,0.165190593,1.46763688,11.09041954,0.807060024,0.013374433,1.560946015,4.713825775,1
0.000805625,0.164514015,1.438877983,11.47825884,0.807283238,0.013182727,1.607454666,4.27725835,1
0.000346233,0.169014793,1.575412413,11.67352137,0.807720947,0.013363357,1.642859742,4.780352877,1
0.001226918,0.16713723,1.453831827,11.09872378,0.807892827,0.013642406,1.669127665,5.438591425,1
0.002063049,0.167502581,1.428247703,10.71370766,0.80821773,0.013546417,1.563348271,5.54350119,1
0.0028293,0.17277897,1.660580978,11.24182225,0.808686284,0.013284275,1.534751514,5.222283356,1
0.000580235,0.178805704,1.21581307,8.972264027,0.809000288,0.013187741,1.609934771,4.700213112,1
0.001130375,0.176201963,0.129018432,7.273826292,0.809642465,0.012958116,1.507714705,4.255432027,1
0.000593661,0.169355734,-0.694827851,7.62662765,0.811194338,0.013337981,0.985575408,10.93312811,1
0.000145987,0.164246769,-0.833689623,8.076458223,0.811217662,0.013356156,1.057600015,11.57555707,1
0.002180453,0.158282865,-1.033094945,9.250268095,0.811125565,0.012765114,1.606637999,4.899589667,1
0.00176515,0.158204765,-1.104492495,9.166900934,0.811612102,0.013508161,0.00869815,37.15772765,1
0.002293252,0.157593932,-1.077209707,9.213703547,0.81184627,0.013930908,0.159827426,33.75224238,1
0.001747964,0.157820365,-1.043650267,9.484017263,0.812200219,0.013380268,1.623129221,5.009400458,1
0.000916371,0.16386928,-0.758639211,9.177139579,0.81285662,0.01324752,1.636117435,4.662219215,1
0.000263763,0.167255181,-0.730314177,8.412235078,0.813357162,0.013061406,1.537290131,5.807704307,1
0.002814593,0.163696003,-0.653147932,7.679596108,0.812896946,0.013053465,1.484408182,5.686356013,1
0.001520652,0.167135197,-0.735737898,6.975343561,0.813174112,0.01310205,1.596672687,4.444395123,1
-0.000707938,0.1692094,-0.779883509,7.160546631,0.813789259,0.013145136,1.733040611,4.587979625,1
0.000329446,0.163201597,-0.767104843,7.093260096,0.814549092,0.013318098,1.72650997,4.287641939,1
0.001406754,0.157745126,-1.216804932,7.469788489,0.81522522,0.01324072,1.664418086,4.407109964,1
0.003208479,0.156692501,-1.082321404,8.726341026,0.81521928,0.01307452,1.694297601,4.567126965,1
0.001563184,0.159184459,-1.044359024,8.613010486,0.815144948,0.013131422,1.800894662,5.898674451,1
0.000280936,0.161123534,-1.181354134,8.092311687,0.815614537,0.013365026,1.766156077,5.743926186,1
0.00138395,0.156467496,-1.240095772,8.448434824,0.815950612,0.012983257,1.64438986,4.491525444,1
0.000729989,0.155429105,-1.242142915,8.306225337,0.816171374,0.012964811,1.594620951,4.343499958,1
0.002388317,0.164103463,-0.845259339,7.953888131,0.816398239,0.013109856,1.596108996,4.844438426,1
0.002218414,0.175630843,-0.5793668,8.433741353,0.817063413,0.012937544,1.605910205,4.862909624,1
-9.95E-05,0.183244154,-0.680401535,8.249803243,0.817982428,0.012731412,1.562463091,4.208470314,1
0.000522975,0.179914498,-0.87515385,7.702294812,0.818056216,0.013103708,1.221017017,8.578536009,1
0.002328258,0.180757239,-0.770770086,7.495836211,0.818189675,0.013313528,1.327375889,8.498616599,1
0.001455806,0.184419414,-0.800406671,7.427712087,0.818693052,0.013186051,1.745219944,4.854026265,1
0.000293315,0.182178605,-0.890858629,7.286558115,0.818881062,0.013361234,1.869937827,6.50895256,1
0.000904914,0.182953291,-0.897140901,6.894183613,0.818581608,0.013036686,1.888893699,7.001349608,1
0.002832236,0.181840224,-1.009571805,6.827780282,0.818286896,0.012903525,1.247856916,10.05697778,1
0.00092257,0.181419256,-1.051343043,6.720633613,0.818697575,0.013057229,1.182604341,9.416202698,1
-0.00034106,0.182162156,-0.99934525,6.88796032,0.819388962,0.01311973,1.610384104,4.521889231,1
0.000397712,0.180615581,-1.019585893,6.74369185,0.819324221,0.013012218,1.630075233,4.67762853,1
0.00237512,0.17877909,-1.131225285,6.492626409,0.819337736,0.013027441,1.62982523,4.679201486,1
0.002922069,0.181062519,-0.984957737,6.589994536,0.819753974,0.0131771,1.598346588,4.154468018,1
-0.000691007,0.18459703,-0.955678935,6.100653276,0.819886562,0.013105043,1.598770711,4.055446068,1
0.000884981,0.183709764,-1.076187723,5.994625665,0.820038114,0.013241208,1.65970189,4.627306237,1
0.001856892,0.180034014,-1.081766444,6.694085975,0.82038438,0.01315106,1.611507645,4.492535102,1
0.002932186,0.176757156,-1.134862689,7.342067775,0.820897184,0.013253406,1.541742597,4.612832897,1
0.003759338,0.21604891,-0.503850052,7.29934244,0.820494461,0.013354288,1.489859826,4.591592767,1
0.001427863,0.218821986,0.273068673,7.817408959,0.821773366,0.013251285,1.418685493,4.301164564,1
0.000593445,0.183794178,1.272179271,9.938385138,0.823764965,0.013062267,1.590305938,4.512518554,1
-0.000739295,0.176486277,0.72293855,9.392461704,0.823984146,0.013324729,1.664802349,4.395774392,1
-0.000305113,0.171493243,0.599823074,9.796243071,0.823948669,0.01352958,1.61094845,4.719645179,1
0.001909705,0.174765866,0.483377913,10.03483491,0.823849596,0.01315027,1.565943263,4.580808647,1
0.001866486,0.177488369,0.183935839,9.14754824,0.82428736,0.013553342,1.564805143,4.36026684,1
0.002194539,0.177270199,0.125605394,8.978331273,0.824351828,0.013900597,1.687681473,6.003474257,1
0.001035756,0.175106971,0.046690734,8.824550006,0.824052375,0.013289038,1.671348328,6.338713488,1
0.001012488,0.169925014,0.316937107,10.36452064,0.824530465,0.012968603,1.52404247,4.653113674,1
7.26E-07,0.175955117,0.655268929,10.09889595,0.825257656,0.013358694,1.592361706,4.770347905,1
-0.000649318,0.183725115,0.878533213,9.480566418,0.825135204,0.013607953,1.677699097,4.590535483,1
0.002073597,0.176113073,0.755650227,10.01494825,0.825925718,0.013521075,1.800651951,5.432885457,1
0.001999302,0.170388576,0.18333512,8.827895952,0.827081953,0.013206017,1.589975714,5.545113394,1
0.000969942,0.172743111,0.402932563,9.109719664,0.827519172,0.012954984,1.446616143,4.500214465,1
0.001268587,0.17493966,0.407560019,9.315720552,0.828568813,0.013492747,1.576842858,4.16336801,1
0.001706916,0.173699467,0.044045685,8.830308182,0.829812568,0.013550099,1.602408366,4.023054402,1
0.003079841,0.171655181,0.009505626,8.628423739,0.830728803,0.013158811,1.616770256,4.547535791,1
0.000305472,0.174991484,0.008049833,7.828567413,0.831068311,0.013133896,1.626449895,4.766169146,1
0.000146923,0.174108296,0.001536333,7.817130777,0.831158883,0.013316236,1.649596164,4.695209167,1
0.001333976,0.172823338,-0.026184299,7.645985501,0.831751306,0.013482814,1.633276755,5.118633804,1
0.000290726,0.175493401,0.227346341,8.22416456,0.832181059,0.013509376,1.594215876,4.833995095,1
0.001290436,0.174896465,0.06226722,7.842293731,0.831926346,0.013375804,1.210701901,6.965964575,1
0.001601035,0.174828023,-0.232729161,7.253399566,0.832431575,0.013287154,1.25642867,7.751141026,1
0.001430309,0.174147856,-0.368133493,6.931497643,0.833582033,0.013034843,1.696806627,5.216310769,1
0.001241658,0.171070878,-0.58179212,6.557052067,0.834549441,0.013183839,1.777063993,5.370701768,1
0.002880334,0.169347157,-0.420576137,7.70035614,0.83493151,0.013467159,1.819338238,6.170230574,1
0.001495625,0.171722788,-0.408184491,7.041258728,0.834802573,0.013340001,1.752856279,5.314360925,1
0.000394422,0.169712826,-0.414651491,6.99239452,0.83515249,0.013042807,1.633599349,4.458463028,1
0.001498391,0.169800157,-0.239304729,7.667040769,0.835280718,0.012751476,1.530916796,4.402766038,0
0.003377204,0.17050227,-0.051182178,8.237758093,0.835766002,0.012915596,1.506725756,4.459151469,0
-0.000148002,0.182180255,0.77630098,8.238808231,0.83618224,0.013104968,1.607744389,4.714518105,0
-0.000494777,0.210210338,0.473646907,4.260671419,0.84007394,0.014870379,1.297349683,3.313636585,0
0.002484767,0.2009976,0.497174111,4.328077653,0.849371665,0.015384653,1.057266711,3.258407074,0
0.000786615,0.156685619,1.634930093,10.29515242,0.853430775,0.013637125,1.701330404,5.776988744,0
0.00196359,0.134078429,1.461120938,11.8547014,0.852086312,0.013591768,1.719043538,6.648796805,0
0.001313684,0.138600224,0.762047181,9.484911869,0.852571487,0.013675025,1.521286334,6.165326335,0
0.00051261,0.144519757,0.443203257,8.62291527,0.855846732,0.014005488,1.386075272,5.361136839,0
0.001092054,0.14573218,0.51062245,8.817284758,0.859037072,0.013779652,1.542769335,5.215717047,0
0.000779813,0.145744688,0.480583671,8.441745337,0.859416962,0.013438702,1.557648952,5.121366064,0
0.001319942,0.138942304,0.412111907,9.056818191,0.859494945,0.013288888,1.580177909,4.711048419,0
0.001516303,0.137910798,0.451797401,9.557363786,0.85989418,0.013855885,0.688794964,18.28281599,0
0.00198364,0.132703642,0.294288333,9.97459036,0.860614613,0.01410599,0.576065581,17.62577864,0
0.00251016,0.130891369,0.181509925,9.668683026,0.861591121,0.013740711,1.405936591,5.342346127,5
0.001328921,0.138611673,0.279844609,9.580782977,0.864155633,0.013833056,1.135741301,7.757649787,5
0.001437411,0.13772814,0.142996176,9.206311101,0.866268049,0.013617339,1.26634378,8.653580372,5
0.001565977,0.133525713,0.123363184,10.00702732,0.866193662,0.013530478,1.828895755,5.626230311,5
-0.000283742,0.131761026,0.198076106,10.51978713,0.86678336,0.013529887,1.833385139,5.92005704,5
0.000925219,0.13149375,0.092727072,9.780909401,0.867371096,0.013456973,1.713504505,6.116189932,5
0.002289211,0.137806159,0.056861409,9.72152808,0.867388698,0.013697343,1.729230133,6.873427797,5
-0.000391126,0.146704912,0.068891232,9.272811811,0.868093164,0.013788684,1.719976835,6.741207734,5
0.000544373,0.144936908,0.035838321,9.264596216,0.872414834,0.01421178,1.424189678,4.42900477,5
0.001656483,0.144079993,0.255797999,9.525946764,0.875815473,0.013410001,1.541981671,4.925359561,5
0.002319207,0.135223636,0.465496501,10.87868066,0.877009256,0.013435378,1.545113109,5.312488641,0
0.001891264,0.141032973,0.471609616,10.26244867,0.877976063,0.014051224,1.356511511,4.975203567,0
0.001406839,0.155735459,0.439591536,9.003045111,0.876632472,0.01411016,0.477542419,17.58797169,0
0.002114809,0.15221426,0.158571796,9.41196218,0.87558572,0.013813429,0.498723471,18.6938153,0
1.31E-06,0.146237933,-0.14590245,9.47040353,0.875351443,0.013743165,1.556258785,5.740795375,0
0.000383796,0.140864663,-0.2050717,10.237182,0.875832203,0.013841172,1.743303943,6.520227713,0
0.001573739,0.138088732,-0.229500119,11.23375273,0.876935577,0.013945745,1.664730893,6.592849488,0
0.001611119,0.135769092,-0.407021964,10.77235773,0.877051653,0.013722336,1.607277152,6.234863499,0
0.001786874,0.135154716,-0.540559731,10.24615479,0.877257974,0.014000159,1.305271101,9.746923247,0
0.001445703,0.135204545,-0.673086483,9.853877263,0.878089959,0.014209349,1.52790322,11.56414613,0
0.001477583,0.134806852,-0.579953353,9.932355106,0.878424835,0.013880258,1.80744229,7.798788859,0
0.000796568,0.138366259,-0.470541537,9.719046092,0.87908347,0.013811355,1.585377205,4.993924813,0
0.001012233,0.135995207,-0.716436502,9.482234192,0.880397688,0.013688747,1.443540959,4.021961298,0
0.001361997,0.136533511,-0.875211382,8.811112047,0.880974197,0.013614788,1.42237332,4.299552295,0
0.001457618,0.137629737,-0.828974264,8.479741797,0.88065458,0.013534051,1.549349856,4.789842244,0
-0.000142966,0.138161535,-0.796402341,8.308978218,0.880844661,0.013548238,1.227498811,7.994521135,0
0.001624682,0.135819698,-0.727702306,8.952838128,0.881433541,0.013890704,1.123385153,9.623261189,0
0.002540673,0.13358554,-0.795702164,9.319149863,0.882385472,0.01381158,1.40507299,6.351417912,0
-0.000322547,0.140771016,-0.856133506,7.897304195,0.884368951,0.013521163,1.574023613,3.996100581,0
0.001589028,0.138527148,-0.79092321,8.477654292,0.885486221,0.013674267,1.667281262,4.657500932,0
0.002403017,0.132719444,-0.901389066,9.378506391,0.885543224,0.013793288,1.693746964,5.023569612,0
0.000145438,0.136256204,-0.837615383,8.345223805,0.886099952,0.013762171,1.69471315,4.867563808,0
0.001274414,0.135036925,-0.958527737,8.155590353,0.886309487,0.013775431,1.578263263,6.032642371,0
0.002905151,0.129689533,-1.053777884,8.965230259,0.886328888,0.01364309,1.550772482,7.180415829,0
0.000798994,0.136761532,-0.8958041,8.322611797,0.887157876,0.01360113,1.752274781,6.236091153,0
0.00017722,0.13670952,-0.923606533,8.239465704,0.887446485,0.013498721,1.758599222,5.025546878,0
0.001114432,0.137332124,-0.583659177,8.813049679,0.886770793,0.013599301,1.363423928,6.259628918,0
0.001365195,0.147533514,-0.414800962,7.666339161,0.887983922,0.013924732,1.373127349,7.773949509,0
0.001883142,0.143189554,-0.480875596,8.105120579,0.889097159,0.013712602,1.786506496,6.971649755,0
0.000728596,0.135173918,-0.534123624,8.844053247,0.889319829,0.013810319,1.735092409,5.340097722,0
0.000594373,0.130834995,-0.504101153,9.366202108,0.889432853,0.013742184,1.497617772,5.179228498,0
0.002314035,0.131504138,0.010249257,9.482427065,0.889950344,0.013558161,1.527324179,6.372935368,0
0.003959532,0.176834561,0.09361696,9.72693652,0.89151426,0.013440987,1.614801951,6.300932562,0
-0.000365681,0.294110274,0.34398665,4.313814889,0.894011688,0.01343604,1.384188167,4.605177826,0
0.00147808,0.298246737,0.401496793,3.27220491,0.894966452,0.013669188,1.176963409,3.730385319,0
0.003139363,0.219315185,0.18054965,3.493013223,0.896610587,0.014338028,1.181469421,3.45056406,0
-0.000690085,0.183761771,0.405717027,8.941900651,0.898710251,0.013689624,1.524397054,4.702956564,0
0.001696727,0.14883073,2.193359296,15.29505464,0.897951562,0.013311596,1.598719112,5.171866058,0
0.001162399,0.16196411,1.627221121,9.188153098,0.897479739,0.014479787,0.937802341,4.027628123,0
0.00145818,0.152142,1.454452625,8.719425279,0.897720555,0.014176103,0.92269204,4.479897916,0
-0.001817976,0.143435048,1.758599715,11.95164833,0.897896576,0.013074976,1.779312314,7.438581034,0
0.001224734,0.142746382,1.560478501,10.70918365,0.897681318,0.013284768,1.886545244,7.47254969,3
0.00389294,0.128124895,1.757717917,13.05275451,0.898010036,0.013121088,1.732632986,5.632227479,3
0.000625351,0.121305189,1.702795032,13.64322082,0.899018533,0.013272653,1.699528971,4.898940139,3
0.000626168,0.122045956,1.654167004,12.97559718,0.899649702,0.013313013,1.634612642,4.717397682,3
0.002335242,0.119682742,1.546934219,12.83174797,0.900164686,0.013151683,1.545376335,4.443594506,3
0.001325396,0.118355227,1.314129772,11.79730994,0.901477596,0.013206539,1.491150037,4.875395265,3
-0.000706833,0.120512165,1.373653763,11.72523951,0.902499117,0.013205701,1.434851037,5.262611803,3
0.00158621,0.121520436,1.392095925,11.99959264,0.903457151,0.013348389,1.495869645,5.885399403,3
0.002553216,0.120086117,1.352109339,12.1280544,0.904383959,0.013191193,1.522801765,5.491875759,3
0.001419918,0.118588675,1.160226582,11.20159461,0.905174364,0.013242911,1.358634603,6.534028942,3
0.001182286,0.117654459,1.102197562,11.31236566,0.90640346,0.013367425,1.366913601,7.133134867,3
0.002163136,0.11978706,1.258343723,11.99495627,0.907520676,0.013278788,1.561140611,5.25380647,3
0.001030786,0.120571071,1.203969349,11.43082249,0.90866236,0.013418727,1.574413742,5.057808399,3
0.000577528,0.118773318,1.147873604,11.41270616,0.910379791,0.013417588,1.601851119,5.218017997,3
0.001295726,0.11879131,1.126671812,11.3812511,0.911875098,0.013285633,1.596889354,4.880649734,3
0.001844474,0.11959798,1.059537445,10.9009589,0.913034603,0.013348077,1.701892029,5.807040565,3
0.001959843,0.124909729,0.937132106,10.05811392,0.914023754,0.013238535,1.626733542,6.185732371,3
-0.000603136,0.127222321,1.027565298,10.31961787,0.915600586,0.013215064,1.357462033,5.198361022,3
0.001322603,0.127035526,0.73159486,10.08852481,0.916113063,0.013246738,1.470419,5.039153412,3
0.002196121,0.126662778,0.572685079,9.358668187,0.916026361,0.0131028,1.578309557,4.933135831,3
-0.000287652,0.125585878,0.921794548,9.933040901,0.916586358,0.013330085,1.264366252,9.01816073,3
0.001101,0.124972433,0.81172385,9.669451219,0.916250065,0.013420964,1.324590569,8.744681746,3
0.001883475,0.121507858,0.794310589,10.00785678,0.916188213,0.013300566,1.59799822,4.90373919,3
0.001388848,0.123585897,0.678154101,9.859213787,0.91685088,0.013350639,1.557614663,5.852555336,3
0.001253664,0.124544071,0.587431705,9.330308846,0.917723083,0.01330481,1.6287605,6.052955713,3
0.001467649,0.120300312,0.742837224,10.08091356,0.918161992,0.013344954,1.665448326,5.073259284,3
0.001320844,0.12085293,0.733086393,9.961634399,0.918123681,0.013573574,0.56263365,22.37525761,3
0.000661096,0.123948697,0.670173102,9.417044199,0.918301773,0.013335009,0.586960449,25.15986655,3
0.00124893,0.123225543,0.728099708,9.737879151,0.918638883,0.012930811,1.556309902,6.065723698,3
0.001368059,0.125150799,0.864672895,9.843521319,0.918966402,0.013141577,1.339931121,5.095560578,3
0.000794593,0.128679343,0.986358695,9.651862149,0.919390597,0.013462393,1.426952448,5.789086216,3
0.00170052,0.12991134,1.089093586,9.644334168,0.920221111,0.013543849,1.579470601,6.185378855,3
0.0025503,0.128480409,1.064025465,9.84311479,0.920448467,0.013334143,1.740496938,6.504775228,3
0.001241612,0.130929581,1.178716364,10.01037961,0.920608629,0.013191317,1.48361427,5.636677396,3
0.00046616,0.126970684,1.256236007,10.87574145,0.921227428,0.013036957,1.261907977,5.224650505,3
0.000731284,0.12201108,1.192076937,11.37200509,0.922198922,0.013300807,1.49082024,7.772220378,3
0.001294307,0.125660291,1.085220704,10.29910072,0.923404367,0.013433312,1.427854121,7.830386538,3
0.002238353,0.12363882,0.911793118,9.683359705,0.923694447,0.013253589,1.074154398,9.309077133,3
0.000524296,0.119203007,0.971832329,11.23275225,0.923729488,0.013396098,1.387848968,9.092477072,3
-8.38E-05,0.131227579,0.136829943,10.08932794,0.924073628,0.01342006,1.506071548,5.76516477,3
0.001454812,0.136973611,0.064845279,8.978092774,0.924884197,0.013398665,1.418555973,5.622050332,3
0.002947841,0.125349805,0.566280832,10.11468486,0.925115585,0.013460488,1.617899793,5.363650281,3
0.001960726,0.124679538,0.497236004,9.368028052,0.924383436,0.013340976,1.666883249,5.495426002,3
0.000182883,0.124712725,0.563915351,8.840660241,0.924298314,0.013123329,1.678537049,5.664803168,3
9.33E-06,0.121169116,0.520849415,9.39907628,0.924957112,0.013287873,1.682895489,6.001275341,3
0.000909805,0.117613765,0.450582275,10.40265541,0.925161035,0.013430944,1.318855708,8.85117142,3
0.00109344,0.121120418,0.50285618,9.831914816,0.924980164,0.013248579,1.102675281,8.44853648,3
0.00232389,0.12073599,0.424680946,9.713852795,0.925130517,0.013150783,1.444362682,5.043713628,3
0.002730377,0.120751426,0.359608284,9.374347619,0.925234386,0.013191369,1.650336564,5.401313746,3
0.00114626,0.121292812,0.51054995,9.701336899,0.925281634,0.013251806,1.510292166,5.734456219,3
0.000506954,0.124024643,0.659483882,9.743555676,0.925945554,0.013345056,1.490643899,5.794068791,3
0.000670212,0.123385222,0.586677456,9.095256262,0.926601355,0.013444437,1.684536629,5.731662784,3
0.001137203,0.120759625,0.478856629,9.682809159,0.926874161,0.013319458,1.128294472,10.35462651,3
0.00143006,0.120445764,0.441055106,9.745156982,0.92709465,0.013157063,1.16050981,11.64208779,3
0.001259792,0.121097068,0.493873725,9.325607809,0.926935632,0.013174976,1.768730785,7.228932678,3
0.001201532,0.128581832,0.313311356,8.88515313,0.926508386,0.013148347,1.634818088,6.404422453,3
0.000568327,0.128118178,0.361478892,9.442059332,0.92755225,0.013297391,1.469724526,5.916899758,3
0.002159507,0.119303137,0.542014598,10.53425809,0.928645652,0.013220512,1.458466429,5.295397228,3
0.002037768,0.119516159,0.41885151,9.378230808,0.929318891,0.013518601,1.52781749,6.092304846,3
0.00051777,0.122191297,0.328137066,8.723168396,0.930398233,0.013654527,1.573977897,8.194410347,3
0.00165273,0.115054578,0.341180843,10.71861244,0.93070973,0.013363768,1.602833829,7.99181387,3
0.001317908,0.117176143,0.494208068,10.37565958,0.930995941,0.013391855,1.638183496,6.313076171,3
0.000798615,0.12003237,0.520371696,9.685699486,0.931302479,0.013337322,1.534671668,6.080368189,3
0.000943516,0.11724984,0.384134274,10.21048233,0.931509999,0.013108225,1.511053303,5.827756034,3
0.00127393,0.121319274,0.350948132,9.61918129,0.932003076,0.012999246,1.617728002,4.885089462,3
0.00171611,0.119951912,0.367214352,9.755954401,0.932170486,0.013101535,1.623506863,5.031502332,3
0.001010821,0.119841068,0.33937344,9.503544781,0.932668795,0.013183866,1.578296453,5.26650991,3
0.000551416,0.120315097,0.403135641,9.319111622,0.932696315,0.013302493,1.678439807,6.926485651,3
0.002366449,0.117120807,0.387744229,9.736090627,0.932549994,0.013430761,1.68580712,6.725455306,3
0.001650388,0.122012732,0.632800741,10.285349,0.935870198,0.013576509,1.35490768,4.325428118,3
0.001340724,0.128415508,0.927174941,10.40210843,0.938485445,0.013765967,-0.605336843,49.86688865,3
0.001769754,0.129992885,0.91243321,9.723535407,0.937385287,0.013882796,-0.405590487,48.90476473,3
-4.98E-05,0.123173838,0.827593527,10.04655943,0.936648887,0.013444258,1.837122235,8.133269281,3
0.001486895,0.117025397,0.561951244,10.34547064,0.937031882,0.013393015,1.642815185,6.893169806,3
0.002645109,0.116043367,0.307196223,10.44334872,0.937177931,0.013107258,1.454886067,5.416855178,0
0.000187376,0.119319802,0.296567178,9.938585491,0.937341309,0.013135557,1.612303203,5.626530731,0
0.002135801,0.119781224,0.206468372,9.344273769,0.937923649,0.013521374,1.714064719,6.358755378,0
0.0016587,0.131576836,0.235011565,8.347920466,0.938951983,0.014291393,-0.360494389,47.32795966,0
-0.000758403,0.146109248,0.018083581,6.999545583,0.944733647,0.016552306,-1.268202927,47.05718616,0
0.001024122,0.147926534,-0.330160375,6.535173392,0.953059169,0.015510666,-0.37906362,30.92895264,0
0.002114338,0.1544866,0.246442141,7.558196019,0.95359933,0.013815857,1.36112249,5.526985606,0
0.002784675,0.153812461,0.114080097,7.208894821,0.953551483,0.013788907,1.489999235,6.295074636,0
0.001047265,0.141644875,-0.390907367,8.53782829,0.958314187,0.01361684,1.880207269,7.777597404,0
-0.001349605,0.137374895,0.448350686,13.90023986,0.959022576,0.01348453,2.031292652,9.883334625,0
0.001136738,0.139739723,0.140265794,11.20675409,0.957585417,0.013696034,0.776188346,24.44683698,0
0.001549667,0.139303543,-0.688309159,7.722043139,0.957611465,0.013580589,0.449134831,23.97148194,7
0.00137881,0.13387662,-0.897618703,7.932395459,0.957409341,0.013307763,1.527258951,7.022332127,7
0.002726532,0.136379038,-1.283994809,7.800079021,0.957892445,0.013378572,1.753600345,6.180968857,7
0.001716771,0.142920863,-0.680510217,8.509754172,0.958649717,0.013501572,1.669120861,6.077179648,7
0.00027492,0.142719167,-0.454663287,8.154176701,0.958015714,0.013618177,1.500142248,6.287095033,7
6.44E-05,0.137816198,-1.051457833,7.523282598,0.956460626,0.013483328,1.400927008,5.917407352,7
0.002054254,0.138807877,-1.300334771,8.061663064,0.955298288,0.013167615,1.552893353,5.939762371,7
0.002216341,0.137697141,-1.099071718,8.374566494,0.954674585,0.013399079,0.749040882,19.6535939,7
0.000331303,0.14311401,-0.459929303,8.130399255,0.954452569,0.013374661,0.666789928,19.42545523,7
0.001257529,0.143811553,-0.779293122,7.766261013,0.953942871,0.013126746,1.545443549,6.003872287,7
0.002636091,0.13884198,-0.722604518,8.516538126,0.953171921,0.013203787,1.583273317,8.637509845,7
0.001813424,0.141138429,-0.301824299,7.531610846,0.953408813,0.012953135,1.504446166,7.722174064,0
0.000486956,0.14591294,0.211527917,8.572767632,0.956584494,0.013292176,1.409425325,4.832374833,0
4.06E-05,0.154605715,0.192018638,8.392130492,0.958421925,0.013301781,1.649099865,7.42836679,0
0.001589199,0.144796315,-0.482981167,8.116624899,0.956779425,0.013646371,1.24168002,12.47508544,0
0.00125267,0.136084318,-0.736023605,9.173481393,0.955704662,0.013523114,1.217441367,12.06025039,0
0.002331783,0.134320994,-0.905550276,9.088230565,0.955493927,0.013637891,1.847998411,9.058431283,0
0.001885385,0.135235238,-0.869073565,9.176366372,0.955256871,0.013567211,1.891218146,8.0928591,0
-0.000269479,0.139843115,-0.890623355,8.422362845,0.955040686,0.013024331,1.742646394,5.721393139,0
4.47E-05,0.137565629,-1.008452134,8.468303252,0.955097307,0.013446273,1.555420194,7.729084899,0
0.00207142,0.135649943,-1.055000637,9.139633961,0.955213329,0.013553899,1.55388192,8.746006824,0
0.002328775,0.134247036,-1.163962156,8.810295816,0.954918126,0.013213318,1.815654734,7.217277714,0
0.000222506,0.13984416,-1.072806458,8.171630575,0.954385103,0.013316176,1.808278823,7.252168907,0
0.000857359,0.142199203,-1.135326056,8.247126397,0.954158565,0.013610153,1.663278937,7.682223969,0
0.000686842,0.141016157,-1.20841033,8.213108058,0.953924506,0.013558877,1.579646828,6.533568558,0
0.001893605,0.14058524,-1.286905746,8.042151665,0.953686796,0.013250725,1.501599219,5.742262114,0
0.002655559,0.14099883,-1.27378692,7.969494466,0.95396674,0.013598367,0.767833124,17.16190023,0
0.000375889,0.141851211,-1.190082032,7.794194524,0.95455998,0.013911631,0.87005802,16.15384239,0
0.00139115,0.139648366,-1.188474867,8.178447098,0.95444216,0.013734319,1.597053856,5.654768308,0
0.002411865,0.146984998,-0.953587357,7.638744737,0.953988647,0.013500128,1.539022102,5.495500183,0
0.001767661,0.148453489,-0.942036751,7.864453897,0.95352162,0.013468411,1.512581947,5.015739268,0
0.000206942,0.142898426,-1.228968233,8.065611451,0.952543586,0.013376724,1.542777665,5.239135561,0
0.000167077,0.140877325,-1.219475234,7.766119808,0.951488713,0.013014959,1.566839791,5.796773765,0
0.001539976,0.143698735,-0.926976463,8.570780358,0.95173912,0.013262591,1.68742494,7.890201035,0
0.002088658,0.140140058,-0.799625169,9.434059577,0.952824511,0.013381534,1.629427727,7.408306043,0
0.00193037,0.136490491,-0.523235489,8.901742248,0.952819334,0.013691882,-0.422034193,43.81444704,0
-3.10E-05,0.146974144,0.008954322,8.071263022,0.954129083,0.013949862,-0.214977717,42.83851291,0
0.001607686,0.152566522,0.474845974,7.98150905,0.959175982,0.014307457,1.572885561,5.915742122,0
0.002940504,0.144325631,0.983532001,8.600822813,0.960603659,0.014281858,1.606308785,5.414622641,0
0.000823177,0.125322512,1.212386924,10.36340059,0.957914352,0.013745947,1.746441805,6.450136441,0
-0.002101842,0.117171501,0.739437446,10.02443353,0.955845969,0.013718469,1.444305169,5.657775274,0
0.000798758,0.131612334,0.167659401,6.48627535,0.957090105,0.014032274,1.252414864,4.308109592,0
0.003219301,0.135967964,0.168271144,7.028165315,0.958023344,0.01341104,1.440905924,4.752626798,0
0.001284681,0.121945559,0.513599928,10.50575166,0.955942481,0.012816184,1.309965348,5.387891361,0
0.002387839,0.112522373,0.591758675,11.13286933,0.954841995,0.012889754,1.358856534,5.996078886,4
0.001071344,0.109810638,0.37884059,11.43695577,0.956252997,0.013351761,1.670762776,6.691987623,4
0.000612161,0.10974674,0.210122917,10.51670027,0.957724108,0.013429233,1.679576657,6.089102357,4
0.000988861,0.110102573,0.049621625,9.710601725,0.956815611,0.013471302,1.610293539,5.106114305,4
0.001563995,0.107204523,-0.090981743,9.44110994,0.95617594,0.013173523,1.595201884,5.588782314,4
0.001894717,0.108817792,-0.050563372,9.244219306,0.95677839,0.013129233,1.399465279,5.586262812,4
0.001789542,0.111280163,-0.089960142,8.91708911,0.957563836,0.013036451,1.457244263,5.08737944,4
0.001322414,0.11494789,0.015419878,8.139137726,0.957628414,0.012936042,1.534239533,5.472143655,4
-0.000787098,0.113606275,0.187078131,9.217433115,0.958034243,0.013311301,1.702127764,6.209595522,4
0.001360101,0.115757601,0.397419607,9.669574478,0.959171513,0.013269616,1.752176094,6.47233604,4
0.002632161,0.113248692,0.426514089,10.1099503,0.960213034,0.013292913,1.546748482,6.348933931,4
0.001044983,0.108565232,0.233968964,9.788959311,0.960960715,0.013509311,1.562811892,5.886540182,4
0.001551315,0.11319905,0.069431084,7.747032958,0.960978481,0.013228779,1.630404468,6.39723918,4
0.001745662,0.110249078,-0.128745204,7.450724309,0.960443987,0.012904321,1.484167656,6.442125462,4
0.000666314,0.112362293,-0.203743503,7.177157822,0.960385568,0.012735266,1.391090158,5.177257401,4
0.000564174,0.112024901,-0.273592667,7.918276879,0.960431508,0.012643357,1.486118277,4.552027806,4
0.002278787,0.107541934,-0.250828876,8.923501423,0.960800607,0.013029682,1.671617476,5.596891277,4
0.000785522,0.110991061,-0.074389987,8.124464257,0.961039243,0.013207316,1.707850145,6.002968338,4
0.001250179,0.112446566,0.03835829,7.849800397,0.961167472,0.013281837,1.777279354,6.444223744,4
0.002441142,0.10952632,0.045583636,9.335358477,0.962126541,0.013285958,1.855938646,6.666513365,4
0.000546727,0.113240543,0.121874896,9.296177374,0.962752315,0.013376142,0.062503264,38.50697527,4
0.001869664,0.117946071,0.200365349,8.114443882,0.962783868,0.013391439,-0.120715264,38.28650236,4
0.000690268,0.118303798,0.008200703,7.374533966,0.962758255,0.013353368,1.625077361,6.436710441,4
-0.00011125,0.114933756,-0.077815228,7.530276035,0.962657384,0.013212925,1.658109273,6.229142262,4
0.001047971,0.1094443,0.179018588,9.521894572,0.962721579,0.013009708,0.907823957,11.98039094,4
0.000629458,0.112027501,0.371630436,9.594047036,0.962992804,0.013156675,0.82812452,11.79448681,4
0.00283236,0.113973367,0.302433559,8.877632665,0.963286754,0.013228846,1.517382907,5.209240364,4
0.000646153,0.11560333,0.302446715,8.278125471,0.963381304,0.012964639,1.68839739,4.621605112,4
0.001371833,0.116542631,0.196258976,7.336298985,0.963770022,0.012959662,1.574121351,5.085013656,4
0.003276385,0.111470892,0.118733391,8.430767964,0.964267131,0.013090842,1.627887223,5.898072283,4
-0.00049532,0.117517106,0.436842279,8.945680979,0.964676012,0.013140671,1.709449907,6.600727022,4
0.001238879,0.119725321,0.521519172,8.563582167,0.965183422,0.013126361,1.657820499,5.838101942,4
0.003375314,0.120522924,0.583059042,8.189275647,0.965790013,0.013036028,1.449320112,4.941512665,4
0.000485694,0.122027612,0.708070828,8.391884586,0.966202,0.013075394,1.428208627,5.015480876,4
-0.000454893,0.119260067,0.726721557,8.877092215,0.966825431,0.013125514,-0.128715752,36.41656901,4
0.002634888,0.114788932,0.496409985,8.433115247,0.967779269,0.013109769,-0.138827887,37.05085441,4
0.001595607,0.113793318,0.36841125,8.134458148,0.969041715,0.013002965,1.498827217,4.710747143,4
0.00067014,0.110230935,0.473968729,10.05736258,0.969963019,0.013059192,1.424633473,4.587195885,4
0.000664928,0.1072174,0.401697609,10.70709074,0.970278222,0.013288712,1.472173421,4.648159068,4
0.00134899,0.110962229,0.598472603,10.33320533,0.971022524,0.013352233,1.579224686,5.748606765,4
0.001169547,0.110668436,0.518306366,10.58662213,0.971752167,0.013228799,1.606496284,6.231108266,4
0.001527564,0.112822913,0.108247652,8.297685438,0.972157233,0.013585961,0.638583668,18.63646856,4
0.000920739,0.112586296,0.362497438,9.289029951,0.972581809,0.013263714,0.412162432,19.8935123,4
0.00086053,0.115986623,0.232463546,9.881861005,0.973134995,0.012971758,1.526496715,6.166904568,4
0.002902653,0.111458725,0.215154023,11.9380262,0.973984582,0.013661031,0.775803568,19.69204816,4
0.00156306,0.117531532,0.792073699,11.07175212,0.977223642,0.013869222,0.698246025,19.87136635,4
0.000567849,0.123879714,0.618593139,8.150072854,0.980695942,0.013304957,1.751394981,8.764840551,4
0.000253366,0.112303609,0.374078101,9.734642882,0.981423623,0.013028536,1.795702597,9.371506154,4
0.000736136,0.12120779,0.725371997,9.852201807,0.981139047,0.012992597,1.597305432,6.960508197,4
0.000634957,0.134384126,0.743167449,6.896101054,0.981870597,0.013311375,1.531223734,5.823961359,4
0.002655807,0.122081607,0.595866187,8.117961184,0.982276699,0.013275479,1.453247677,6.271649348,4
0.002025774,0.11534037,0.559472387,9.562733855,0.981902804,0.013066535,1.577231996,7.019382661,4
0.000216339,0.114239891,0.453417268,9.295695844,0.982248851,0.01329787,1.876135351,7.895708826,4
0.000647899,0.107862469,0.9342726,13.63936186,0.982509504,0.01333795,1.449433528,7.047014337,4
0.00116323,0.117658561,0.753237108,9.718350782,0.983107703,0.0131226,1.280701812,6.066222527,4
0.001450777,0.117759503,0.470572642,8.995470107,0.982977186,0.013032017,1.512288951,5.395696008,4
0.002203877,0.112840033,0.952050327,12.10635005,0.982354137,0.013184967,1.569732412,6.161695699,4
0.002042738,0.116192194,0.717584345,9.976525234,0.982435281,0.0134465,0.952159042,14.57945914,4
0.000979248,0.117238708,0.653290868,9.834402296,0.982499586,0.013266657,0.917451664,14.3577974,4
0.000509746,0.121314647,0.890895045,10.15473123,0.982505907,0.013353665,1.976100865,13.27837176,4
0.001312166,0.12078197,0.604820227,9.361014123,0.981913975,0.01325312,1.77434261,13.43238896,4
0.002556499,0.122093883,0.515274338,8.484175223,0.981614794,0.013039933,1.430667053,6.227238657,4
0.001656902,0.124937568,0.500760108,7.456740121,0.981913049,0.013318086,0.949623523,16.21148461,4
-3.89E-05,0.122569381,0.621441192,8.562605692,0.981309237,0.013465727,0.96660205,15.60193319,4
-0.000112361,0.129796362,0.697190162,7.73404706,0.980173874,0.013337196,1.668539074,7.081305829,4
0.00204211,0.125949651,0.628008903,8.022721715,0.97818767,0.013333298,1.596971353,6.54228917,4
0.001167552,0.118639544,0.663181985,9.542821493,0.980194255,0.013899159,1.50376336,4.878936415,4
-9.20E-05,0.119903202,0.762714143,9.489523287,0.982538823,0.013634211,1.66602146,5.945408617,4
0.001990912,0.121380936,0.682896746,8.923823958,0.981025314,0.013262417,1.681853292,6.048095487,4
0.002221148,0.121244559,0.582943645,8.440938385,0.980466134,0.012998417,1.634142383,4.770488558,4
0.001480212,0.121902256,0.775565021,9.015403424,0.980590057,0.01369308,-0.819812263,57.11457079,4
0.001558391,0.125712967,0.788050965,8.562458276,0.981226076,0.013666024,-0.957439762,57.96151091,4
0.000465094,0.1259338,0.751437678,8.332621196,0.981381989,0.012900116,1.436747901,4.879508117,4
0.000679387,0.120780749,0.876555163,9.471009218,0.980984824,0.012960297,1.614274547,5.783415615,4
0.000352243,0.118097244,0.967570274,10.34690947,0.981209946,0.013012239,1.740998101,7.388399392,4
0.001157802,0.120433399,0.411516508,8.121444755,0.981955011,0.012953588,1.674585555,6.361346974,4
0.003716302,0.115154831,0.372666088,9.191858893,0.982546234,0.013116189,1.591898115,4.957556526,4
0.00138004,0.123965518,0.638337071,7.745275248,0.982825797,0.013195047,1.628960893,5.288339433,4
0.000669381,0.123332563,0.517213225,7.792811221,0.982839748,0.013141674,1.461960699,5.298277292,4
0.00301079,0.114035567,0.379599217,8.806176306,0.983241326,0.0131419,1.434313746,5.236853715,4
0.000166266,0.118006356,0.294410213,8.535470664,0.984869003,0.013466845,1.116256129,13.7773859,0
0.000811667,0.117546062,0.616989458,10.1774372,0.98634491,0.013255652,1.100234405,14.78764713,0
0.001834514,0.130974788,0.621450539,7.647227355,0.991844068,0.014033456,1.330774594,3.997876351,0
0.000375641,0.138970957,0.52650324,6.10987091,0.996450751,0.013342591,1.54566368,4.606730865,0
0.000808437,0.138664094,0.367285305,7.839929076,1.00011019,0.01398233,1.386836626,5.31038686,0
0.00251598,0.140886665,-0.20370103,7.831204648,1.00396347,0.01339089,1.657784907,7.475132402,0
0.001601826,0.137517006,-0.548414569,7.89959077,1.001872635,0.013661645,1.685092786,7.232204624,0
0.000750837,0.136315518,-0.582770365,10.17516571,1.000014714,0.013403494,1.769601483,9.496481862,0
0.000722828,0.136685402,-0.954104561,10.55682883,0.999595152,0.01347193,1.73046995,9.91329645,0
0.001108069,0.135215141,-1.133796041,10.7588759,0.999510847,0.01365763,1.995625111,10.39589981,0
0.00166898,0.141516089,-0.986049581,9.070084537,0.999114718,0.013511052,1.635904368,11.19475239,0
0.000775131,0.140692858,-1.073839157,8.63697377,0.998850904,0.01314206,1.405994376,9.628592625,0
0.002314577,0.134877389,-1.185549259,9.237402485,0.998822839,0.01319276,1.674368298,8.764660058,0
0.000992791,0.14059145,-1.113180532,8.350519634,0.998478862,0.013516892,1.333557436,13.67452669,0
0.001276435,0.14074759,-1.058149876,8.390188118,0.998629597,0.013274745,1.138960752,12.76641086,0
0.001290227,0.139868392,-0.983784251,8.486212747,0.999192156,0.013006374,0.554908319,18.39264784,0
0.000318577,0.138633143,-1.019084905,8.375636869,0.999580601,0.013934701,-0.915650782,56.40432397,0
0.00193925,0.13541371,-1.010209109,8.748683423,0.999602127,0.013846055,-0.288482806,48.67762262,0
0.000915534,0.139115931,-0.977890277,8.460972389,0.999753734,0.01307018,1.52691514,6.267490153,0
0.000726706,0.137662487,-1.056351638,8.408885948,0.999573626,0.013064575,1.49779163,6.263646441,0
0.000841736,0.138432799,-1.065603883,8.112822416,0.999772045,0.013156684,1.531031474,7.061877731,0
0.002122127,0.138691743,-1.071906129,8.277166913,1.000393513,0.013728427,0.115145703,35.04450815,0
0.003447484,0.135544979,-1.115555575,8.79612403,1.000266266,0.013624421,-0.036789881,35.34925646,0
-4.64E-05,0.140377046,-0.758173235,7.584056959,0.999539784,0.012935751,1.496788778,6.220735259,0
0.00030899,0.140567045,-0.477163276,7.820288992,0.999961744,0.013063156,1.61422743,7.489152305,0
0.001808552,0.137246901,-0.488512459,8.70524806,1.001105717,0.013440037,1.608776946,8.567492815,0
0.001512634,0.133609475,-0.727130547,8.515841594,1.000897435,0.013300532,1.532371174,7.75652324,0
0.001282438,0.132924414,-0.854537497,8.547755527,1.000806972,0.013347931,1.111825966,11.01616832,0
0.00044904,0.130769914,-0.811441401,8.915829456,1.000995255,0.013262979,1.152319608,11.101619,0
0.001780276,0.128104998,-0.660212653,9.404902563,1.000438527,0.013009953,1.585512886,6.306377984,0
0.001457062,0.130982011,-0.445309277,9.345954412,0.999668067,0.013088938,1.470752504,6.070988349,0
0.000497301,0.1383503,-0.04045877,8.102883182,1.000871222,0.013299518,1.281623003,6.040335096,0
0.004750364,0.145451846,0.602601147,6.90128182,1.002450344,0.013651898,1.322447411,5.940758406,0
-0.000539775,0.171067159,0.507241874,4.031269703,1.007981001,0.014822158,1.033286534,3.16342725,0
-0.002541164,0.185774443,0.415810901,3.09623864,1.011063766,0.013590255,1.407423413,3.799029475,0
0.003279484,0.177019522,0.669594235,3.817802103,1.007978494,0.013111941,1.684381272,4.884415193,0
0.001740496,0.174188262,0.750217956,4.60515719,1.00796814,0.012977419,1.666756773,4.543703308,0
0.001119343,0.178827647,0.736547224,4.931148974,1.009467588,0.013001186,1.533838308,4.361697107,0
0.001099588,0.178686169,1.048226208,5.791574168,1.010745566,0.012712045,1.477055162,4.421067006,0
0.001063137,0.172398074,1.279726569,7.425882177,1.011915534,0.01282571,1.219150363,8.298037608,0
0.001663042,0.166228701,1.228621235,7.714549983,1.012930134,0.013289211,1.247406171,7.963061313,0
0.001558299,0.157458881,1.152356188,7.544364666,1.013635526,0.013114165,1.579692814,4.369689062,0
0.00073388,0.155167841,0.927691066,6.698136635,1.02068318,0.015345023,1.053001725,2.02450204,0
0.001075902,0.153332339,0.928128555,6.951268506,1.034489277,0.01577048,0.744051329,1.786290561,0
0.001671262,0.148649017,1.01211141,7.729464377,1.044402913,0.013408519,1.30369646,3.898184394,0
0.002320757,0.151287413,1.082335812,7.783701217,1.052863966,0.014169548,1.245734875,3.271455886,0
0.000965365,0.155636202,1.105309962,7.240759528,1.059508514,0.013187815,1.562082193,4.083453248,0
-9.20E-05,0.150886885,1.016816666,7.401389826,1.061022186,0.012748239,1.626902525,4.400754687,0
0.002154707,0.144900561,1.004137958,8.221893904,1.065703583,0.013468617,1.419236541,4.277171639,0
0.002832635,0.143543203,0.945268184,7.901330868,1.071717126,0.013324526,1.503145434,4.390976372,0
-5.62E-06,0.151044123,0.938488249,7.037443907,1.077388872,0.013542467,1.276376256,3.508036462,0
0.00138501,0.152549246,0.969732051,6.889925785,1.082949448,0.013156773,1.472686635,4.490442855,0
0.001684269,0.154152109,0.96508382,6.605172639,1.086342076,0.013373005,1.463123516,4.425228569,0
-0.001464948,0.166564807,0.444092461,4.124857821,1.093032401,0.01548872,1.144201873,2.349006793,0
0.001645536,0.166629066,0.472991713,3.599215873,1.112692751,0.020935603,0.229820882,0.043962753,0
0.004226506,0.169670735,0.863461796,3.873474114,1.124343,0.014311592,-0.338924683,36.04911774,0
0.001533469,0.16736283,0.432907846,2.858567394,1.125739234,0.01431612,-0.1805591,38.36598053,0
0.000684971,0.156383335,-0.264715239,2.03649584,1.13200967,0.013102144,1.781591629,6.862461681,0
0.001097815,0.157620256,-0.601439639,1.986628115,1.135373361,0.012752581,1.678632548,5.636278022,0
0.000330231,0.158593476,-0.68694721,1.880082062,1.138306481,0.013237588,1.694071417,5.248828593,0
0.000829337,0.157668641,-0.744929785,1.972173517,1.147475815,0.016391744,0.987699725,1.935226254,0
0.001579337,0.157862685,-0.604690762,2.704036339,1.159722955,0.014950058,0.89323206,2.991443687,0
-0.000344291,0.171382501,-0.718372139,2.575031114,1.178175082,0.022025259,0.642280629,-0.051800592,0
0.002213987,0.174068206,-0.83108962,2.925033899,1.199588939,0.018507164,-0.14299915,1.806562267,0
0.003114016,0.172532621,0.49356839,5.512321437,1.220612826,0.02287372,0.88928845,0.429525654,0
-0.002906015,0.184040572,0.909850369,5.104118174,1.252006803,0.027501821,-0.06506953,-0.36188152,0
0.000732592,0.187934436,0.016125916,3.310624148,1.27853399,0.018777012,0.128484969,0.83028617,0
0.006050838,0.181382244,-0.600167437,3.379371597,1.287476676,0.013430942,1.217906853,4.255389957,0
0.00124534,0.179293282,-0.753190243,3.882556501,1.306787273,0.027264998,0.661103786,-0.558942619,0
1.26E-05,0.17963958,-0.735182146,3.494943009,1.348551341,0.031534055,-0.223265942,-0.219469624,0
0.002336295,0.166771588,-0.800072082,4.280766835,1.377500153,0.017601615,0.543074041,1.247590501,0
0.001411122,0.168413353,-0.822753033,5.126149821,1.387399728,0.014024384,0.560609974,11.42524551,0
-2.30E-05,0.180142069,-0.738725808,4.174681024,1.391271537,0.012961376,0.713531929,16.35896875,0
0.000130482,0.175605303,-0.786899795,3.46099583,1.39510291,0.014086136,1.418036321,4.28289228,0
0.001976715,0.165771854,-0.831979133,3.45533688,1.402574594,0.014993325,1.328155815,3.93166939,0
0.00094296,0.165706351,-0.749670013,3.570765737,1.431497083,0.03109046,0.486241596,-0.593973402,0
0.000349882,0.168364238,-0.722614665,3.734501778,1.462482507,0.018930793,0.365929292,0.589829097,0
0.00181071,0.166572419,-0.856480496,3.944187624,1.46426457,0.014627399,0.904372811,2.855065789,0
0.001494461,0.167123399,-0.851105947,3.445885151,1.466832406,0.020195282,0.713731727,0.717325874,0
0.000385228,0.170698308,-0.663502131,3.36862937,1.471646282,0.020838481,0.03108341,6.036337383,0
-0.002094452,0.176412678,-0.481784938,3.166779635,1.4633861,0.019032908,-0.002942218,11.62716462,0
0.003097033,0.173734439,-0.085868591,3.417760412,1.520033755,0.078304622,0.648907258,-1.098058525,0
0.005643049,0.161260138,0.692501632,5.177636813,1.591434152,0.046763901,-0.829835784,0.418102969,0
0.000850675,0.159394947,1.035062745,6.506486114,1.591547285,0.016583212,0.413323554,9.229059603,0
-2.72E-05,0.163641937,1.054612917,6.590602234,1.582071359,0.013022563,0.193728105,23.18402766,0
0.001209536,0.163231891,1.011178204,6.714016111,1.57825955,0.012755801,1.05406483,5.996162366,0
0.002900443,0.165894879,0.920508638,6.220748475,1.575407791,0.012467306,1.398508054,4.269414063,0
0.000107182,0.164498806,1.229248249,7.777303882,1.573107202,0.012571394,1.426519481,4.257714981,0
0.000922989,0.159925221,1.412245952,8.879826654,1.568301937,0.012972648,1.340922497,4.323725177,0
0.00110941,0.164810432,1.405538302,7.844515878,1.566695513,0.012878142,1.32033626,4.57187294,0
0.000403649,0.168835288,1.462185109,7.924685996,1.564142445,0.013308598,1.231725333,3.334004076,0
0.002403527,0.16198065,1.549931558,9.371032776,1.556545857,0.013192727,1.249974285,3.550227905,0
0.000857679,0.158461863,1.510903891,10.09051052,1.550805719,0.012645009,1.331944536,4.212703839,0
0.001281333,0.157509666,1.49459796,10.65588968,1.545720782,0.013149502,1.327033707,3.920075525,0
0.002198188,0.155318333,1.454943134,10.37332876,1.539828818,0.01320153,1.482282492,4.484938795,0
0.000320127,0.157078023,1.464374523,10.14042237,1.533852441,0.01307874,1.433483439,4.561833958,0
0.001468604,0.158137073,1.53671083,10.27356273,1.529177529,0.012862077,1.063770515,8.60366504,0
0.000578653,0.148908203,1.433303514,10.72148406,1.522630855,0.014331327,0.341697012,11.48865398,0
0.001075391,0.144326653,0.984875042,10.19819559,1.512386867,0.014221424,0.716602716,8.875410096,0
0.003690857,0.159582539,0.984459478,7.442805549,1.525590842,0.024191526,0.487333138,-0.418084432,0
0.000976632,0.183125798,0.803673004,6.050184789,1.592465918,0.055692085,0.321208611,-1.25710903,0
0.000707363,0.194108716,0.738658855,5.053962744,1.637792805,0.02582535,0.08626427,0.453597784,0
-6.04E-05,0.208660804,0.993666571,3.621141503,1.636236681,0.015174068,0.952347979,2.60555089,0
0.000506875,0.21125146,1.239817523,4.293100271,1.644554138,0.017132573,-0.607868017,20.28425455,0
0.002648719,0.186207882,1.733475896,6.857867846,1.640817206,0.017797189,-0.37343189,16.46408656,0
0.000622696,0.178948067,1.92780078,7.221448211,1.629966627,0.014733709,1.225778237,3.568386521,0
0.002121565,0.16695061,1.891270152,7.950395852,1.625659507,0.014625157,1.296264074,3.817318092,0
0.000638345,0.170868962,1.483034914,9.058125756,1.620499802,0.014216465,1.273193419,4.393242111,0
0.000542999,0.195504524,1.05920754,6.307181108,1.631538228,0.020044502,0.713903214,1.779921747,0
0.003464584,0.199493405,1.168369284,4.752141442,1.633184978,0.018571683,0.913005236,2.678707399,0
0.00045331,0.183762534,1.59079439,5.847520766,1.617212459,0.015013158,-1.302249803,61.52981877,2
0.000776799,0.164100853,1.271625824,5.468460101,1.608181,0.01734062,-0.186535857,32.93212367,2
0.001461201,0.168365234,0.982129416,4.467543525,1.631929343,0.031934337,-0.040577771,-1.230656375,2
0.00108163,0.17882858,0.918517047,4.309120806,1.652419336,0.0148107,0.885544365,2.53810822,2
0.001472953,0.175937935,0.98967085,5.336276214,1.639743478,0.014478932,1.134097319,3.550138079,2
0.000853023,0.17559932,1.202511286,5.546523079,1.630133329,0.013821054,1.223151426,5.073764701,2
0.002002337,0.181112774,0.996791224,4.032257883,1.622729492,0.013508714,1.210552502,4.187787498,2
0.001621065,0.170326457,0.965553218,4.890000977,1.617079381,0.014470425,-0.942943152,49.16974579,2
0.001794028,0.160634823,1.095539612,5.570790258,1.605562047,0.017077572,-0.342761841,22.21528887,2
0.001000737,0.179069873,1.021849384,4.868742604,1.590054539,0.014355344,1.142269556,3.3007283,2
3.53E-05,0.181444468,1.118955357,5.407506073,1.579454095,0.01360141,1.268830286,5.524438914,2
0.002062003,0.17305366,1.24409409,5.766026279,1.576577977,0.013340887,1.012851397,4.369008053,2
0.000895536,0.175505841,0.987047227,4.565327859,1.587150356,0.016680326,0.672991974,1.676629315,2
-0.000342721,0.177735732,0.951486659,4.629679752,1.594371087,0.01432793,1.09904648,2.930205912,2
0.002436264,0.168344448,0.825068169,5.37516257,1.59020947,0.014516223,0.697217109,6.060553785,2
0.001448489,0.14358995,0.518807378,5.761973862,1.580741174,0.015491063,0.698271079,4.355712431,2
0.001072259,0.138509615,0.710674323,5.935439648,1.567325211,0.014522665,0.868772679,3.501760809,2
-0.000124669,0.174356339,0.546913654,4.766958868,1.5596435,0.016491239,0.800897157,2.372316484,2
0.001005641,0.173452279,0.555808396,4.867743217,1.569759859,0.020663733,-0.500884404,9.746884764,2
0.002943172,0.142460204,0.555141511,5.29887653,1.574005835,0.015631299,-0.681561425,32.59889517,2
-0.001693431,0.156718319,-0.329197552,6.634838895,1.573185403,0.027302497,1.65308924,2.964801651,2
0.001451968,0.159302102,-0.312330181,5.934460543,1.632030705,0.059278383,-0.25102525,-1.489664373,2
0.003875911,0.146481406,0.378907301,4.413241554,1.677728054,0.016304414,1.025385435,1.838069507,2
0.001214329,0.138047845,0.23321083,5.366564571,1.671537181,0.01325786,1.373980256,5.455840546,2
0.001319013,0.139929068,-0.018877634,4.491426059,1.672936794,0.014770334,1.277253453,5.084655305,2
-0.002231003,0.156115406,0.73611031,5.592747016,1.735464478,0.067109621,0.237028036,-1.597601368,2
0.001160163,0.160688712,1.282121733,6.863291453,1.840368489,0.056626363,0.004151119,-0.464308964,2
0.004434893,0.158882533,1.286077053,7.009531651,1.914410836,0.043403954,-0.61091029,-0.575716381,2
0.000561833,0.164588966,1.002935009,6.916676888,1.930595234,0.022709146,0.594795597,0.123780927,2
0.002210927,0.165383212,1.144386871,7.248420317,1.925354603,0.017990655,0.620229463,1.49737574,2
0.000711411,0.163732039,1.268805811,6.752214413,1.943825586,0.017910943,0.438895702,1.769422647,2
-0.000234918,0.174151079,1.083880845,6.599543005,1.964449092,0.018220944,0.376779138,0.503292939,2
0.002907041,0.178386445,1.05886821,6.813516401,1.9753976,0.013930167,0.919143784,3.113622375,2
0.001378307,0.195311325,0.919920389,6.099094198,1.979368264,0.016590419,0.709600986,1.682627413,2
0.001770309,0.205466017,1.056199195,6.033698256,1.997668566,0.021588258,0.138800775,0.525131243,2
0.001568076,0.20512202,1.150146444,6.535394999,2.007591302,0.014868406,1.093875556,3.397866023,2
0.00010384,0.19239761,1.105700669,7.107148359,2.002163042,0.012901804,1.326536184,4.182529527,2
0.001359604,0.153793881,1.042002225,7.687796501,1.994582203,0.013827502,1.015494446,2.765187861,2
0.001678613,0.135164342,0.651387586,6.444425972,1.982070323,0.014315911,1.00934603,3.842631072,2
0.001347198,0.127651002,0.832184931,8.372230725,1.972722408,0.013866999,1.169801346,6.17012671,2
0.002089475,0.131334129,1.268228118,9.773094207,1.97245091,0.013539939,0.917799178,4.511323583,2
0.001464615,0.143335909,0.779017775,7.876441577,1.986885561,0.028288204,1.115220876,0.394700553,2
0.001205416,0.142985596,0.853449079,7.63605422,2.036758641,0.046904659,-0.36790472,-1.050828209,2
0.001436162,0.141040583,1.4308808,8.21593271,2.058108139,0.023914768,0.45589595,-0.061109295,2
-7.15E-05,0.141793033,1.085546947,7.260633008,2.031632233,0.017107918,0.931974592,1.612768611,2
0.001925014,0.131639318,0.764623348,7.351133532,2.027976336,0.01469462,1.086450908,3.422171561,2
0.000207857,0.130357339,1.093834381,8.281195703,2.025773076,0.017695473,-0.075934462,12.28896966,2
0.000277025,0.151006631,1.374675476,7.99729055,2.031760842,0.022077902,0.094152003,5.079542019,2
0.00284474,0.164181748,1.278038631,7.473403677,2.034148516,0.019041044,0.756323108,1.019469606,2
0.002060924,0.160330215,1.450495408,8.034199996,2.014787946,0.015150342,0.071148513,11.36554376,2
0.001477367,0.159292612,1.677862337,8.08178839,2.006094197,0.013804636,-0.808106312,31.44761346,2
0.000264653,0.174500525,1.23791734,6.980175572,1.9968944,0.015784331,-0.065590705,11.43472797,2
0.001042949,0.181967071,1.065682189,6.440601453,1.9808821,0.015214744,0.736178605,3.147223586,2
0.001424149,0.163050597,1.18723522,7.233717179,1.966667611,0.014029135,0.837518734,2.776814935,2
0.000716354,0.159882495,1.21449794,7.932725719,1.959067426,0.014737379,0.90599893,2.80412216,2
0.002129432,0.166310555,1.199097342,8.111103283,1.96361351,0.015329686,0.571026487,2.617336565,2
0.001809913,0.141731605,1.190230365,9.740339531,1.964464406,0.013472974,1.04831073,4.127159466,2
0.000199696,0.125606208,0.904843025,8.629769651,1.953626469,0.013955008,0.873119481,3.624616573,2
0.001352659,0.131728253,0.889348649,8.026070149,1.964845657,0.026921411,0.738143928,1.686376181,2
0.001231921,0.132645671,0.763066925,7.701579957,1.997764751,0.026710033,-0.652139487,2.28873328,2
0.000333729,0.12520116,0.484500331,7.493693437,2.021838161,0.015890515,0.624967,2.538149118,2
0.001979723,0.134116868,0.138357344,9.027657477,2.042488589,0.018726999,0.386412775,1.080764314,2
0.002682175,0.14634247,0.246433741,8.610571316,2.053874588,0.014611222,0.88542043,2.20277981,2
0.001170299,0.141290762,0.606656652,7.918968364,2.065765163,0.024828545,0.546764859,-0.175084255,2
0.000379113,0.136896686,0.875348283,8.431067594,2.084050969,0.023178181,-0.125320968,0.854088092,2
0.000692315,0.152058854,0.992282093,8.679527834,2.077111762,0.020160727,0.849887399,1.548382868,2
-0.000110857,0.165865814,0.904381751,7.737624314,2.062162508,0.015082485,0.906052627,2.747758352,2
0.001218913,0.169796755,1.35023606,8.28065368,2.064620154,0.019343935,0.772226979,1.260545054,2
0.002038075,0.169235475,1.402967904,8.071697847,2.057252993,0.021118723,0.851020625,0.931436237,2
0.002239236,0.15681773,1.199105278,8.558633268,2.039342008,0.01370983,1.045556088,4.102802041,2
0.002921343,0.142382781,1.359721039,9.753361999,2.027156176,0.014135722,0.88653505,3.997798872,2
0.000132013,0.143483733,0.800999467,8.134789977,2.02110405,0.012300106,1.170920715,5.17627512,2
0.001045473,0.140896314,0.785564439,7.952994021,2.031582642,0.016953489,0.772597408,1.015160866,2
0.002179929,0.132750839,1.500319552,9.668526646,2.048823057,0.016352622,0.424438554,2.260559441,2
0.001811024,0.138549248,1.676608773,10.48360822,2.066682598,0.016945496,0.387657373,2.019619866,2
0.001361814,0.134703719,1.650220567,10.43648532,2.07186312,0.013740377,0.966284077,2.78325924,2
0.00021388,0.12762906,1.569077868,10.17144269,2.062664304,0.01278152,1.225650135,4.865665628,2
0.00084753,0.136415432,1.372119935,9.149889089,2.05204386,0.013619695,1.239783354,4.937359944,2
-0.000853945,0.165322709,0.666425041,8.171674501,2.049968338,0.017489177,0.92699996,2.198499692,2
0.000775465,0.178552136,0.952523205,7.080036407,2.075147411,0.028939608,0.057779241,-0.431721677,2
0.003602881,0.175901927,1.89466255,8.070710708,2.081952504,0.021353399,0.786115194,0.267925035,2
0.002601935,0.17607347,1.981226466,8.811959032,2.063784954,0.01306226,-0.629175465,36.72363869,2
0.000555725,0.169948933,1.841784068,8.491750095,2.053256771,0.014122061,-0.297822426,23.54740209,2
0.000723705,0.169182718,1.655460112,8.084112407,2.047277941,0.01239997,1.455758242,6.141230651,2
0.00056097,0.164276555,1.692099645,8.308961009,2.043978609,0.012628201,1.277824888,6.129384988,2
0.000610284,0.158777458,1.677096994,7.907332286,2.036410468,0.013333974,0.850673146,3.426492058,2
0.002275648,0.157550568,1.522858015,6.968591671,2.040455736,0.015727428,0.693348842,2.361603196,2
0.002292559,0.161480586,1.793523076,8.05779332,2.040484183,0.015045198,0.957083822,3.714412557,2
0.001268169,0.164017504,1.649258793,7.483239968,2.026761627,0.013517525,1.110242936,5.594933629,2
0.000422921,0.150680581,1.754792671,9.265373092,2.016141619,0.013412606,1.187970562,5.321051725,2
0.00186113,0.15473148,2.086011877,10.76864937,2.004793603,0.014475332,0.829088821,3.609859436,2
-0.000189972,0.163071812,1.594308942,7.413004786,1.991898564,0.014635425,-1.251593944,54.95480313,2
0.000541502,0.149032231,1.58170098,8.045815137,1.980170931,0.01428616,-1.213790438,53.99821979,2
0.002477561,0.143044551,1.73272058,9.696365987,1.967056383,0.015185271,0.833358944,2.92402546,2
0.000122491,0.142551427,1.398507914,8.228449061,1.951662827,0.01506873,0.810299237,3.297722669,2
0.001583274,0.142205332,1.358991998,8.211171427,1.936029216,0.015502972,0.618165305,2.671823973,2
0.002373066,0.147070858,1.408303739,7.960068564,1.922965785,0.013707104,1.023862028,3.511746482,2
0.00152449,0.142561557,1.300671874,7.830826726,1.913728986,0.012940201,1.046793259,4.881661645,2
0.000956249,0.143468097,1.278176213,8.159228088,1.901944297,0.014987852,0.060486438,13.14057681,2
0.001134659,0.149277186,1.382487442,8.040734482,1.889386368,0.014007222,0.254500661,14.33312266,2
0.00199411,0.147308167,1.293531622,7.402123794,1.880085318,0.013378669,1.257089645,4.09793328,2
0.000287626,0.146142423,1.264781344,7.392043687,1.870312391,0.013781351,1.092101651,4.639862506,2
0.001248001,0.140471409,1.093529093,7.277273289,1.857942581,0.01454649,0.814759135,4.070746793,2
0.001860116,0.133095584,1.065243387,7.712259828,1.8477308,0.012691311,1.025893036,4.823184949,2
0.001715515,0.14309492,1.071346218,8.005210534,1.837584741,0.014273616,0.705860194,5.205919604,2
0.00197578,0.151258506,0.950562207,7.188158418,1.825091716,0.01387129,0.905062025,5.61844846,2
0.001683681,0.14193851,0.882064601,6.912472965,1.815162168,0.013490362,1.006669508,4.008214125,2
0.000363837,0.14944453,0.67054754,6.131518673,1.803286907,0.014693573,0.88467467,3.234975499,2
0.001453033,0.156158435,0.838537126,5.975952744,1.792810004,0.012542169,1.241263453,6.308177253,2
0.001961877,0.1519968,1.386178769,6.909857886,1.784639468,0.013364902,0.977612621,4.023770987,2
-0.000880273,0.169010197,1.698836558,7.5062878,1.774055917,0.013782033,0.97418429,3.795573289,2
0.001911562,0.154214765,1.825450439,9.489215778,1.763899122,0.013687277,1.166993051,5.029175755,2
0.002591322,0.122917398,2.193211667,14.06543856,1.755026572,0.013359081,1.19089987,6.099234726,2
-0.000531928,0.140063944,1.741113184,10.58344797,1.746139363,0.013536091,1.045310593,4.251602754,2
0.000785653,0.152005087,1.268423491,7.811332342,1.737473897,0.012996512,0.965865951,6.771778279,2
0.001828537,0.144504301,0.846597943,7.95634495,1.730979048,0.012478987,1.151045806,8.284728964,2
0.001115649,0.136038675,0.487227976,7.723236166,1.724856022,0.012385523,1.504629517,6.726782734,2
0.002150933,0.138565147,0.535918752,7.49819884,1.718808092,0.012365881,1.590532543,7.741017729,2
0.001363809,0.134883741,0.853378274,9.138848374,1.714189093,0.01265379,1.43018353,7.567119638,2
0.000534387,0.128105961,0.718511258,9.442351113,1.708780507,0.012861012,1.388446936,6.811980427,2
0.001818911,0.126420102,0.657149501,9.142728697,1.700077438,0.013383116,1.22711936,5.226723483,2
0.001473424,0.134864288,0.838593779,9.21720078,1.691859055,0.012370731,1.390535705,7.016760267,2
0.000335155,0.14570302,0.463806074,8.085403859,1.686234174,0.012247012,1.330061587,7.275776359,2
0.001120684,0.152897746,0.452366791,7.998476779,1.682367325,0.012302728,1.26439026,6.628781232,2
0.001568357,0.154040485,0.489981142,8.033131495,1.676764406,0.013139049,1.048350992,4.132785197,2
0.001782342,0.150726962,0.657590966,8.563667597,1.67014122,0.012636233,1.49238798,5.554780163,2
0.000804095,0.159494258,0.758361586,8.316857701,1.666265215,0.012477373,1.753022737,7.111857185,2
0.001365489,0.149468534,0.887675487,8.725368995,1.662282344,0.012592062,1.404635926,6.990282609,2
0.001730386,0.137227611,1.058155671,7.688488605,1.658544431,0.012643988,0.840388186,13.19183859,2
0.001139655,0.144885857,0.812392383,7.414421583,1.653966686,0.013046863,1.033715437,11.58615403,2
0.000738674,0.144878057,0.634138182,8.154604011,1.646791458,0.013905214,0.287019274,22.7129494,2
0.000933805,0.144931131,0.785878767,7.925072698,1.640242822,0.013257906,0.32215417,24.50436243,2
0.002481073,0.168818179,0.425628842,7.852401896,1.63542851,0.012658569,1.567384822,6.607813165,2
0.001172758,0.172328027,0.601661718,7.994531691,1.636086546,0.012968795,1.613013524,6.71918877,2
0.001219214,0.158518405,1.545987339,8.464476231,1.637028503,0.012926553,1.747474291,7.124895781,2
0.001260537,0.150195302,1.684131521,9.126192973,1.631461062,0.013253922,1.610167137,7.006467316,2
-0.000519941,0.137522279,1.508729175,10.20196502,1.626116998,0.012780444,1.913887644,10.12999107,2
0.001889975,0.131893019,1.201837038,9.660957171,1.624256897,0.012403298,1.719079655,8.878770668,2
0.001503819,0.130082379,0.930595041,8.098089434,1.623090799,0.012231897,1.367099351,6.135693074,2
0.000268217,0.129284882,0.473906251,7.571825915,1.620947974,0.012947676,-1.639237378,83.42479595,2
0.002770922,0.142155467,0.051373939,8.986107986,1.620418113,0.013048149,-1.504657337,81.45670017,2
0.001535555,0.141861997,0.690800702,10.81801323,1.624658094,0.012903141,1.506789112,7.748016332,2
0.000731964,0.11702895,1.881012449,13.99911856,1.626382446,0.012614532,1.463101622,7.684896044,2
0.000957498,0.13018772,0.870854533,11.55468014,1.62124661,0.012805606,1.076402687,5.259738954,2
0.001206148,0.141251243,0.677033747,9.243734823,1.618783733,0.012375622,1.324006916,5.907058963,2
0.001227336,0.130115166,0.948690929,9.969585651,1.618744986,0.0124504,1.513306925,7.431623515,0
0.00085439,0.12438701,1.019294474,10.90444054,1.620193699,0.013152859,-0.843038432,55.55388784,0
0.001484822,0.127776356,0.964039957,11.03167663,1.622838702,0.013436897,-1.686559512,68.09962234,0
0.001132069,0.137368177,0.624195654,9.736200378,1.627315467,0.013468538,0.353504132,21.7925901,0
0.001994941,0.172871832,0.25745984,5.675005914,1.650409644,0.027517156,0.502628488,0.158141601,0
0.001836836,0.217265318,0.496937644,3.350378552,1.67782996,0.021425955,-0.950036712,4.762922724,0
0.00048795,0.215133751,0.850827346,3.412104623,1.690326364,0.013008491,1.14859669,3.774605739,0
-0.000978947,0.199903296,0.697734091,3.337093237,1.701092475,0.014843687,1.020273604,3.130439246,0
0.002070766,0.191375945,0.131837533,4.677802332,1.712158367,0.014022414,0.853136622,4.935045319,0
0.002396746,0.173302251,-0.109353656,7.569538817,1.719820077,0.012518599,1.096782284,7.266836503,0
0.000210735,0.162028703,-0.037737899,7.579315501,1.729343959,0.014162652,0.932553171,5.276656312,0
0.002489142,0.151899274,0.382424529,10.63153654,1.738251059,0.01291913,1.356429919,6.157657446,0
0.001342222,0.153672611,0.776276794,12.27425531,1.744923564,0.013474779,1.217072942,5.478092561,0
0.001366987,0.154209292,0.827382066,11.58886211,1.756258392,0.015398199,0.868175394,3.461679459,0
0.001251735,0.147728534,0.947096407,12.36396765,1.774113628,0.01865037,0.620511079,0.681101344,0
-0.000150676,0.145098985,0.778932831,11.67060851,1.799678094,0.021992372,0.203338391,0.153504407,0
0.00108864,0.14975358,0.561252179,10.12580371,1.81874079,0.014752803,0.702830114,3.029474651,0
0.001647975,0.149501734,0.616826959,10.25437507,1.824067797,0.012381134,1.523853399,7.681615635,0
0.0011713,0.149277474,0.694656548,10.49651146,1.825318691,0.012134853,1.552056833,8.085175002,0
0.001897417,0.148621144,0.588334022,10.17588177,1.827322769,0.012163444,1.460631105,6.499400706,0
0.002650615,0.148706185,0.483571882,9.48144548,1.835597175,0.01410288,0.966931408,3.443380295,0
0.001466577,0.147746224,0.435267061,8.919095615,1.837855257,0.013362882,1.066293304,4.757000657,0
0.000202717,0.147194889,0.420878792,9.032814216,1.833556148,0.012409038,1.546455064,7.031972715,0
0.001338069,0.151669286,0.38315081,8.455318439,1.837937437,0.013582537,1.187253161,3.862363256,0
0.002194159,0.145645343,0.409626779,9.09618953,1.842873928,0.012746642,1.278388461,4.60918923,0
0.001344733,0.145702568,0.466999805,9.055156137,1.846711731,0.012645993,1.306200914,4.394566066,0
0.000909845,0.151505457,0.487741911,8.624568137,1.850967462,0.013073299,1.304648046,5.169562923,0
0.001120383,0.152301015,0.428098023,8.538703006,1.851159069,0.013159043,1.251738306,5.597282927,0
0.001737789,0.156606326,0.01778539,6.479230143,1.868617249,0.025354726,0.541850413,-0.526247028,0
0.001046696,0.153779293,-0.242043276,5.547875781,1.887159511,0.017804324,-0.108963745,1.882481533,0
0.000277555,0.146135893,-0.222239018,6.05547476,1.887526158,0.012343675,1.535615114,7.159951129,0
0.000640869,0.150024644,-0.065096774,5.586735908,1.892514692,0.016445196,1.140322926,2.500636879,0
0.001969201,0.148353678,0.180302874,6.213077853,1.900386865,0.016001985,0.524658459,2.200399139,0
0.001887902,0.146664298,0.005693648,6.154050989,1.907567106,0.013676653,0.809332147,4.622653797,0
0.001168396,0.148324986,-0.146946045,5.431676727,1.913508061,0.013119934,0.995833828,7.023960749,0
0.001251421,0.150668964,0.073243804,5.670075441,1.912861034,0.012636187,1.283734138,7.872799757,0
0.001393903,0.149240289,0.033618431,5.742803078,1.911382893,0.012125547,1.546774369,8.575670543,0
0.001206672,0.142880536,-0.087839965,6.217785773,1.913749804,0.012374277,1.510426642,6.647495944,0
0.000602123,0.13994426,0.338850427,8.785067686,1.912944467,0.01224452,1.353276426,5.033762615,0
0.000352524,0.138454483,0.597785216,9.8714694,1.911484855,0.011977197,1.322911607,5.339663623,0
0.000913376,0.136781814,0.407087807,8.956576039,1.913188062,0.012350018,0.523819092,13.91997657,0
0.002277191,0.136557644,0.269480166,8.580313181,1.911970411,0.012191142,0.568246264,13.83973938,0
0.002129523,0.135215986,0.185880311,8.373465611,1.911318697,0.01180144,1.505387779,6.216200205,0
0.001144128,0.130900586,0.252507647,9.349099679,1.911035974,0.012262203,1.459810017,6.278518273,0
0.000651882,0.136786133,0.224534546,8.557577291,1.907914134,0.012265396,1.495276105,6.596182164,0
0.001689109,0.143920349,0.122537666,7.690974242,1.903040368,0.012507022,1.367502136,5.536153806,0
0.00101906,0.142561107,0.063989825,7.891288719,1.896788515,0.012753147,1.402645073,6.285514675,0
0.00162034,0.139549535,-0.140830276,7.360167753,1.898115104,0.012879173,1.356073408,7.587014739,0
0.001812345,0.141329429,-0.16213354,6.737072592,1.897114182,0.013394644,1.065814287,6.046364879,0
-0.000207341,0.142149829,-0.046349474,6.715177882,1.89916251,0.015444346,0.874334695,3.4225579,0
0.00162136,0.137703786,0.049223186,7.464423364,1.90446652,0.014083284,1.097166048,5.439765388,0
0.001418688,0.141405748,0.2003303,7.361596625,1.907270976,0.014720846,0.824887507,3.081829329,0
0.001034317,0.14849979,0.451270476,7.584858407,1.928900473,0.023272089,0.449043658,-0.027844046,0
0.000710214,0.146754421,0.75729954,8.037824103,1.949155372,0.016981458,0.502936983,1.984961172,0
0.000680132,0.147335177,0.047355574,6.233403354,1.957410921,0.01607706,0.629135181,2.71203466,0
0.002240812,0.142935002,-0.398744208,7.963693789,1.951333564,0.017627646,0.814358358,1.479534516,0
0.001798586,0.138584934,0.027952043,9.68056503,1.936757932,0.012995269,1.415807617,6.86017551,0
0.002014121,0.136725027,-0.189267389,7.990719627,1.933581216,0.013072438,1.576393076,7.079321397,6
0.001451621,0.132401373,-0.150060759,8.388418075,1.930428641,0.013348239,1.678877676,7.946791032,6
0.000794194,0.132918801,-0.0325751,8.209671459,1.930652128,0.014015171,1.434138124,5.543749398,6
0.000381762,0.139967146,-0.475931181,6.110114414,1.93586028,0.013954452,0.54136057,13.74529908,6
0.001011416,0.142686318,-0.652937096,5.655300705,1.934850366,0.012727489,0.477922226,18.43948247,6
0.002000977,0.147025949,-0.220296312,8.603631823,1.937640817,0.013101161,1.061721739,5.776143513,6
0.001476425,0.152928562,-0.145886062,7.837574383,1.944654792,0.012279039,1.550624547,8.782191332,6
0.001061018,0.145280872,-0.624382605,5.652710503,1.953678567,0.016913595,0.325223209,12.45116893,6
0.000763497,0.143808342,-0.667119775,5.611244728,1.967358344,0.017099728,-0.403028097,14.01352222,6
0.001546332,0.144788747,-0.629981787,5.747022302,1.968535614,0.013812039,1.182267989,4.45221666,0
0.001390169,0.146019323,-0.438109472,6.519837915,1.961094502,0.012653432,1.368742913,6.250651823,0
0.001200243,0.150724371,-0.200054688,6.717456814,1.966343798,0.015412652,0.916164245,2.379659398,0
0.001454734,0.155080069,0.489788538,7.523805292,1.983018112,0.01702908,0.577018475,1.62180456,0
0.000888957,0.147588487,0.916020937,8.947818744,1.985509545,0.014929668,0.988184376,3.139625623,0
0.000719506,0.152001335,-0.123473445,6.298836498,1.978478241,0.015552489,0.711790853,6.129783321,0
0.002237052,0.185492645,-0.00455135,3.583667562,1.992251423,0.021300969,-0.024775414,1.175109786,0
0.00332598,0.194724512,0.633364833,4.152466135,1.997361483,0.015689465,0.781533741,1.21338805,0
-0.001307595,0.170794899,1.018513723,6.617899241,1.983509336,0.012764683,1.14070747,3.160418251,0
-0.00143265,0.163417543,0.845379403,6.623082731,1.976565879,0.011884439,1.390581353,4.564992243,0
0.003935401,0.161895577,0.790881514,6.726414096,1.974380984,0.012256082,1.370916553,4.485396797,0
0.002450782,0.162840243,0.800399976,7.12183073,1.976472528,0.013773785,0.315973969,12.1754175,0
0.001064713,0.161855374,0.866440344,7.774786691,1.971941376,0.014952739,0.43184705,7.860163906,0
0.000902939,0.156632556,0.904956813,8.758526135,1.961751883,0.012576813,0.67962906,11.84592415,0
-0.000403473,0.154209197,0.772515866,8.685701438,1.954988534,0.012531023,0.704113796,10.99575948,0
0.002847408,0.141882617,0.530666616,8.927358999,1.948666872,0.012047318,1.385123722,4.483959258,0
0.001853681,0.145279857,0.469515552,8.69551885,1.950649261,0.014015064,1.170585614,2.800802473,0
-0.000116095,0.14759871,0.42416939,8.066391146,1.957271521,0.013416818,1.129236271,3.996786595,0
0.001809448,0.156095671,0.636300954,8.145256292,1.955245427,0.012732603,1.287204291,5.11200272,0
0.002147755,0.155521705,0.674536265,8.532632865,1.946058818,0.013446119,0.838369173,4.787998268,0
0.001208529,0.147651153,0.6370251,8.847586532,1.937592588,0.012695608,1.201148879,5.861883738,0
0.001275048,0.151861862,0.562071555,8.48712706,1.93362999,0.01201504,1.573815392,5.505900369,0
0.000664607,0.148152713,0.51332886,8.406134894,1.930463246,0.01222794,1.350643938,4.795136305,0
0.000617412,0.144465275,0.54805368,8.012686598,1.927532523,0.01214411,1.335567177,4.4851262,0
0.001756662,0.142586818,0.520441838,8.251350769,1.921469389,0.013346449,-0.099343516,23.24319885,0
0.001851857,0.142977534,0.45599497,8.368377994,1.91449961,0.012828746,-2.081449343,71.14233356,0
0.001663422,0.146971993,0.540141773,8.22687935,1.912653896,0.012926359,-2.474150367,83.34798359,0
0.000462322,0.15146785,0.691373057,7.951877052,1.906818717,0.013745824,-0.368538828,28.59382836,0
0.0018239,0.14823105,0.541320222,7.856645713,1.895236206,0.014065347,0.999243192,2.848170192,0
0.004250408,0.140552404,-0.184298077,6.326943117,1.888697706,0.013134147,1.555564775,6.562862658,0
0.000620852,0.13001733,0.057273095,8.304960303,1.888520268,0.012522679,1.716859355,7.980315783,0
-0.001900994,0.118795983,1.187189692,13.13602193,1.886224365,0.012079581,1.333383,4.870754321,0
0.000811543,0.121073396,0.913164905,10.01999129,1.882483782,0.012412385,1.203270365,3.559581314,0
0.00073851,0.12089252,0.697897746,10.06003596,1.876325934,0.013396573,1.020872093,3.510294035,0
0.000707454,0.12102736,0.51838431,10.23228451,1.873337718,0.012084987,1.299482733,5.377747111,0
0.001349304,0.122064844,0.279974406,9.098653499,1.876198578,0.011769606,1.478544837,4.997458523,0
0.002681115,0.121630462,0.23472673,8.539775648,1.877296884,0.011685211,1.522129272,5.528727924,0
0.0017389,0.134916826,0.313641216,7.381433281,1.877980423,0.011697988,1.576253173,5.335316395,0
-0.000248016,0.141031281,0.227453365,6.619050527,1.876434217,0.012111402,1.438565787,4.981312426,0
0.001015392,0.135864063,0.314830845,6.980028897,1.868283626,0.013736751,0.895787906,3.164843742,0
0.002172906,0.130868864,0.237244954,7.027773823,1.857180023,0.013448375,0.975612185,3.05454792,0
0.001431296,0.131570042,0.140506832,6.852560183,1.849066435,0.012746672,1.336094552,3.963096806,0
0.000549709,0.13668772,0.268817059,6.60156819,1.843089458,0.01245313,1.364562141,3.996241767,0
0.002316716,0.130880962,0.121329725,6.576168744,1.836669159,0.012865879,1.304538833,4.193556597,0
0.001195993,0.130914972,0.12121675,6.732771672,1.827620697,0.013366807,1.194749804,3.594048614,0
1.57E-05,0.134243894,0.188651077,6.356673415,1.817940957,0.012643139,1.212669142,3.561087891,0
0.002281579,0.124096738,0.05125035,6.996681637,1.810443279,0.012377212,1.283087,4.850259215,0
0.001390908,0.123085014,0.005194725,7.279883131,1.803823471,0.012604725,1.205994429,4.351949402,0
0.000648906,0.128467994,-0.098379822,6.378111609,1.796678216,0.012613548,1.28112011,4.078073067,0
0.001432029,0.127186844,-0.266511093,6.193751344,1.790769523,0.012542807,-0.861466087,53.35529452,0
0.001283157,0.129743336,-0.103914303,6.309800729,1.786625072,0.012618034,-0.812016464,49.57772551,0
0.000601423,0.132539084,0.064275104,6.287732717,1.783024379,0.01228844,1.599425642,5.989857665,0
0.002342645,0.130812993,-0.020450247,6.253681634,1.77688446,0.012990752,1.390510856,5.20559963,0
0.001439994,0.131224485,-0.131446558,6.120936347,1.769492776,0.012274223,1.293040967,4.080517034,0
0.000769579,0.131595269,-0.027733068,6.340704848,1.762917164,0.012781378,0.894190705,7.229151378,0
0.001124784,0.1298628,-0.082894169,6.259035663,1.754829734,0.013074183,1.021668495,6.015816166,0
0.001615618,0.132457786,-0.020791157,6.520545032,1.746800068,0.012499131,1.328601958,3.874973618,0
0.002264485,0.129825852,0.061004813,6.998607922,1.743356759,0.012143837,1.47253664,4.777003815,0
-0.000262684,0.129589869,0.058770499,6.544973538,1.742554855,0.012223006,1.633196764,6.013120196,0
0.000728956,0.134625119,0.061778803,6.321225678,1.737000329,0.01297072,1.324948825,5.068667533,0
0.000996185,0.139461633,0.085757687,6.527985204,1.72890407,0.012664397,1.328686193,4.694234898,0
0.001069918,0.139973652,0.164571438,6.526345127,1.723526273,0.012091314,1.328245271,4.142142487,0
0.00189539,0.134115885,0.066593369,6.305892771,1.718202155,0.012442889,1.291475265,3.937974393,0
0.001690861,0.133974366,-0.115934052,6.189570221,1.712196405,0.012410292,1.243308422,3.711821334,0
0.002601079,0.135300732,0.046172398,6.802039678,1.710354069,0.012485106,1.407538328,4.05593943,0
0.001042603,0.136902922,0.248800383,7.161943305,1.708027213,0.012582124,1.41713327,4.657614611,0
-0.000699162,0.142067594,0.277616961,6.782030149,1.703351157,0.012073254,1.392555055,5.392743789,0
0.000898655,0.13987812,0.281048502,6.757784929,1.699992698,0.011993398,1.449289611,5.422679397,0
0.002236594,0.133305342,0.196928093,7.136970553,1.697299412,0.011905866,1.872301432,10.1987796,0
0.00221557,0.134130909,0.237501764,7.360392843,1.696455601,0.011839811,1.924377757,9.675734016,0
0.001579965,0.138567766,0.260262064,6.84811708,1.694253377,0.012066647,1.369428492,3.938563108,0
0.001699637,0.138384475,0.242969366,6.669455075,1.688853182,0.012536868,1.303224977,4.184159502,0
0.00063261,0.13716758,0.230368714,6.756288777,1.685291345,0.012414102,1.672225743,5.994780136,0
-0.000341479,0.135760274,0.192034251,6.877858718,1.687289483,0.012766782,1.401000785,4.795725519,0
0.002180923,0.13941711,0.299722945,7.068427933,1.690315247,0.012255636,1.23278276,4.612299867,0
0.002732692,0.142571161,0.473376242,7.317450508,1.689373071,0.01199979,1.364179226,5.433679553,0
0.001480643,0.138589343,0.495875484,7.275875702,1.687031664,0.012094835,1.636394409,5.85993465,0
-0.000319375,0.13569621,0.274509432,6.691955915,1.684289987,0.012150075,1.80413756,7.144226775,0
-0.000581863,0.136461741,0.250754837,6.716833185,1.680678776,0.01205646,1.661487835,7.120064793,0
0.001658883,0.136675103,0.206906747,6.655584373,1.677475139,0.012025858,1.458539791,4.62417368,0
0.001853806,0.133301331,0.09982331,6.764500376,1.675875854,0.011878437,1.618296534,5.015445994,0
0.001129878,0.131170404,0.140417035,7.118433227,1.67490327,0.012030931,1.329698592,8.194483808,0
0.002428587,0.134379236,0.172474821,6.785482354,1.675058147,0.012015817,1.319534748,8.650376122,0
0.002285934,0.139237148,0.176011931,6.652908123,1.677178138,0.011812055,1.660409103,6.194380607,0
-0.00058769,0.143795043,0.243706964,6.424005876,1.682979311,0.012966895,1.276923739,3.587010286,0
0.000264829,0.140747398,0.234686218,6.365723309,1.687021855,0.012054382,1.427478398,4.291414397,0
0.001394669,0.137763088,0.1740239,6.594611243,1.684728186,0.011845489,1.61331078,5.843535785,0
0.0011891,0.137074062,0.122213915,6.444407256,1.682707378,0.011987706,1.736377208,6.641969797,0
0.001319824,0.13583484,0.041526919,6.347102017,1.682220241,0.012335093,1.435297369,9.711952894,0
0.001575027,0.138561065,-0.042330474,6.629489102,1.679156276,0.012686396,1.156608833,8.471853921,0
0.002700799,0.139772067,-0.042651703,6.829617242,1.67627449,0.012623409,0.017442883,35.4193463,0
0.000954084,0.143637218,-0.041875055,6.130473315,1.679736873,0.01356822,0.11874531,27.21989036,0
0.000327903,0.140875507,0.036743272,6.020779014,1.683207921,0.012737728,1.078336879,3.872357047,0
0.001797906,0.139357743,0.36472271,6.672648405,1.681125804,0.012228336,1.279346142,5.646763415,0
0.000173917,0.140672532,0.356207124,6.654069092,1.677451488,0.011905025,1.594595863,6.251952233,0
0.001830669,0.134056619,0.101525386,6.697615129,1.674677331,0.012062326,1.424939211,5.05112675,0
0.003306486,0.136163996,0.099388587,6.799606584,1.671883501,0.012241002,1.314446309,4.133714471,0
0.000284239,0.141062938,0.24614937,6.697151825,1.667761721,0.012699567,0.520997249,14.64188129,0
0.001261695,0.140172678,0.241982344,6.53409791,1.663284084,0.012624752,0.610721325,14.60219447,0
0.001213479,0.140740604,0.074020372,5.928032738,1.660349383,0.012219725,1.479713824,5.474080903,0
6.68E-05,0.148491052,-0.817261903,4.93126062,1.664629582,0.013817103,0.628114003,7.321062935,0
0.00310643,0.15689104,-1.084660049,5.084036446,1.671151951,0.012859267,0.677344944,10.7615196,0
0.001824358,0.158146561,-0.724717779,5.577253788,1.672797067,0.011939736,1.635994331,5.16672075,0
0.00059302,0.150736071,-0.790629035,7.183474643,1.670873642,0.011987626,1.483139398,5.100045693,0
0.001580985,0.151337499,-0.763536277,8.616880867,1.668845422,0.012403295,0.898845368,15.52837639,0
0.00136407,0.153303239,-0.73026142,8.34825123,1.666583579,0.012680117,0.965245726,13.76435787,0
0.000925225,0.154932006,-0.901879285,7.416204654,1.66314185,0.011920725,1.544863367,5.2086841,0
-0.000952116,0.150441615,-1.013819351,7.058341686,1.661053739,0.012082821,1.449317521,4.682884881,0
0.000578796,0.150128078,-0.820593265,8.347058996,1.660121427,0.012018164,1.335735074,4.492528059,0
0.003717943,0.160237204,-0.601555215,7.882160276,1.658519363,0.012330172,0.011843759,26.57884968,0
0.003722515,0.154703242,-0.519432657,7.658334941,1.656299864,0.012225459,0.20926908,27.05872081,0
-0.000758423,0.159758305,-0.506143918,7.261762079,1.655960355,0.011919457,1.526321602,5.089466591,0
-0.000564737,0.15964314,-0.59709276,7.67224795,1.657362747,0.012154892,1.492829017,4.605627493,0
0.000573866,0.158751681,-0.348340933,7.169537929,1.656806946,0.012379753,1.420752525,4.802159938,0
0.002048434,0.161037457,-0.543244922,6.979806093,1.653061894,0.012434766,1.408716583,5.699219803,0
0.002150162,0.161132084,-0.629480043,7.110306552,1.650521851,0.012078485,1.42199745,5.123124584,0
-0.000784718,0.157861544,-0.616533234,6.659951763,1.648412377,0.011931303,1.405532035,4.189760049,0
0.001353856,0.147578778,-1.017927982,9.223663379,1.645918492,0.012197927,0.976272142,11.89267708,0
0.001624159,0.156914295,-0.761911831,9.225401383,1.645026071,0.012072438,1.052130883,12.42364817,0
0.001406858,0.165155235,-0.705323359,7.54029615,1.643858773,0.011643941,1.550542417,5.136636442,0
0.002109839,0.16459867,-0.648369796,7.422673752,1.64047154,0.011597093,1.481115506,4.596328881,0
0.001273897,0.161942634,-0.557634802,7.166006987,1.638327081,0.011570624,1.446265995,4.372050554,0
0.000621028,0.165238846,-0.511414355,6.790986986,1.641243362,0.012225715,1.26499525,3.779145941,0
0.00066515,0.167557894,-0.321864379,7.461326572,1.644697625,0.011733398,1.461062112,4.517605952,0
0.002424166,0.162687869,-0.276733449,7.869574863,1.643705423,0.01205893,0.900268622,13.99389721,0
0.002243166,0.1629962,-0.435689742,7.331827533,1.640958949,0.012321462,0.857783932,12.97990898,0
-0.00097503,0.165885112,-0.659171587,6.679245386,1.639948491,0.012002863,0.848803672,12.52324675,0
0.002392933,0.162878251,-0.291398124,6.432116331,1.647101103,0.015484082,0.605351947,4.494966413,0
0.004418773,0.177068194,0.389757795,6.050379725,1.660091019,0.015575723,0.380885703,1.572242993,0
-0.00051484,0.192121584,0.749482452,5.765024631,1.683712769,0.022473489,0.344590993,-0.393595989,0
-0.00029563,0.176140348,1.169110387,7.571915451,1.707680893,0.015398697,0.376504506,2.859424099,0
-0.000215554,0.165450411,0.419481215,6.763639056,1.710507693,0.013092838,1.070304422,5.293269959,0
0.000191071,0.165848354,0.047193652,4.909420021,1.710768945,0.01452983,0.466409986,6.875811164,0
0.00213601,0.181765113,0.417903728,4.194944378,1.7195361,0.018003775,0.468646649,3.526325759,0
0.002875004,0.173834104,0.757589796,6.068373116,1.73315337,0.018734815,0.037061181,1.129830226,4
0.002460519,0.142891519,1.605496238,11.75782221,1.73853193,0.013410487,1.192779575,4.645354007,4
0.000330211,0.132107377,1.670651303,13.89297038,1.735408946,0.012277858,1.523407418,7.372248452,4
0.001517173,0.118916614,1.836195675,17.67717334,1.735312707,0.012044726,1.641197725,6.65716197,4
0.001744021,0.118750244,1.521859093,16.4830513,1.733522197,0.012099568,1.681065321,5.524755095,4
0.00086293,0.119274083,1.295960788,14.31569208,1.732613482,0.011765508,1.592967515,5.787895266,4
0.000812943,0.116946213,1.21522577,13.97342922,1.734021868,0.01189598,1.536558814,6.228285631,4
0.002098964,0.115366192,0.942304135,14.44572932,1.737745503,0.0128462,1.34702433,4.219417654,4
0.002118851,0.115585509,0.726103938,13.85527014,1.73966277,0.012505651,1.421501512,4.726689125,4
0.001367961,0.115368524,0.782437344,13.77659681,1.735992595,0.012717227,0.207168898,22.95285258,4
0.000466226,0.11877882,0.693608533,12.25679589,1.729813548,0.012986152,0.313032548,19.47398559,4
9.49E-05,0.117161972,0.604023297,11.98805365,1.726829692,0.012169946,1.554285005,6.008249495,4
0.000990869,0.112128583,0.609547279,12.86137026,1.732076318,0.013428042,1.386458707,6.333037221,4
0.000541024,0.11428691,0.595262085,13.18826472,1.731550271,0.013646248,1.349610262,5.578748581,4
0.000657911,0.114986881,0.565317762,12.9669855,1.724831281,0.012316621,1.510270001,5.237781948,4
0.002464096,0.114838167,0.450881406,12.4383281,1.725134822,0.012347226,1.565225206,6.231307696,4
0.002500344,0.114961241,0.501701307,12.62042981,1.724000222,0.012575767,1.425759924,6.477768615,4
0.000935492,0.121423685,0.485587606,11.66320931,1.719407,0.012286828,1.429977213,6.16088992,4
0.000948329,0.125128257,0.489379005,11.42091482,1.716299057,0.012256085,1.41472616,5.726630239,4
0.000329322,0.124655818,0.543437676,11.8815772,1.71489236,0.012500966,-0.407708126,42.4502149,4
0.000568202,0.123012543,0.306591374,11.64770774,1.713105828,0.012403984,-0.363057806,42.76380612,4
0.001690796,0.120995984,0.508135258,12.03531926,1.711514337,0.011960337,0.585700416,17.91413754,4
0.002113926,0.12771664,0.678400823,11.75320088,1.711505236,0.012333534,0.675822841,16.30146657,4
0.001735905,0.127024632,0.589108416,11.81598947,1.7088174,0.012381464,1.419473741,5.380082242,4
0.000215136,0.122379357,0.730012917,12.03103771,1.704331098,0.012189176,1.652652453,7.535930765,4
0.000690883,0.122962252,0.652993494,12.0119183,1.700907952,0.012347894,1.662914051,7.790264906,4
0.002259973,0.119503411,0.495818114,12.578462,1.696792548,0.012210364,1.348518395,5.032098681,4
0.001379124,0.120178908,0.422740404,11.36240336,1.693072728,0.012023744,1.584069193,6.803700258,4
1.96E-05,0.119857432,0.32619968,11.09076498,1.692207064,0.011994235,1.455665002,7.430676446,4
0.001468571,0.11655488,0.292600215,12.17455407,1.689395251,0.012343796,1.205291275,5.670448748,4
0.003095777,0.123704728,0.368656281,11.35394757,1.684486662,0.012764501,-0.657044746,53.30683971,4
0.002198698,0.124821613,0.309216076,10.81435035,1.681487329,0.012409978,-0.73022613,56.67213852,4
0.001300408,0.118163381,0.095281168,11.67203931,1.678850446,0.012017144,1.677488323,7.97208233,4
9.58E-05,0.12267195,0.217399115,11.44223391,1.675888497,0.012716806,0.536436993,23.87403027,4
0.001060305,0.124830782,0.368846298,11.24493616,1.672067206,0.012744665,0.103378727,23.04365289,4
0.001246137,0.124202715,0.310505216,11.29182977,1.668173708,0.012409697,0.919001113,9.737502864,4
0.001077791,0.125398826,0.297224212,11.29403338,1.666120693,0.012207145,1.155401358,6.041733518,4
0.001324356,0.124189692,0.378128385,11.37345434,1.663861302,0.012361869,1.469442365,4.998474734,4
0.000914834,0.125753985,0.438926751,10.45948386,1.66001418,0.012564552,1.619706817,5.702119608,4
0.001874765,0.122827523,0.520972474,11.39211988,1.656748417,0.012234597,1.805170403,6.311404446,4
0.001134763,0.119901897,0.630300508,11.47214748,1.656423242,0.01210288,1.833081,6.989470513,4
0.000342453,0.121332045,0.720333747,10.28664559,1.656230109,0.012076354,1.664383811,7.364180863,4
0.001235471,0.118500431,0.726725819,11.05401465,1.653625761,0.011784906,1.388600133,7.130617047,4
0.002206715,0.117730112,0.680469921,11.88543874,1.651212147,0.01200141,1.466862322,5.328047527,4
0.000230242,0.121708271,0.703298175,10.83995263,1.649928611,0.012093573,1.821768289,6.130381507,4
0.000722626,0.118311044,0.545516321,10.66330713,1.648697226,0.011870367,1.670261261,6.826088833,4
0.001390902,0.119516911,0.502532049,10.85301438,1.647402954,0.012235065,1.369220619,6.602245902,4
0.001597739,0.120562946,0.485773918,10.82397752,1.645777294,0.012355931,1.446997982,6.584548546,4
0.002036918,0.11956782,0.526840978,10.37285121,1.643149948,0.012206003,1.639724442,6.831740917,4
0.001856284,0.125893565,0.733310223,9.260057368,1.64055203,0.012078218,1.608185063,7.313971916,4
0.000900303,0.126974713,0.667784934,9.4647434,1.636462184,0.012859722,0.368866933,19.17319759,4
0.000345533,0.124625452,0.599688871,9.384175712,1.63197403,0.012465292,0.467106755,19.42137354,4
0.001072253,0.116458091,0.805590631,11.61909986,1.62982314,0.012077586,1.717955346,7.700236696,4
0.001637231,0.11437725,0.940210086,12.70427158,1.627472305,0.012337801,1.711706217,7.490516764,4
0.002426599,0.119526664,0.692478796,10.72951546,1.625331879,0.012706704,0.666908508,19.92650566,4
0.000231458,0.121127632,0.413428003,10.14081577,1.624089541,0.012631561,0.575427076,19.67388505,4
6.82E-05,0.125465646,0.188904974,9.043992656,1.622568839,0.011899357,1.469892616,5.019995185,4
0.001350481,0.120794354,0.09886819,9.777410453,1.620703452,0.012856855,-1.562336072,77.40879458,4
0.001135712,0.120138233,0.292764442,10.44023122,1.620221056,0.0128183,-1.651996402,78.44034999,4
0.002323759,0.123299622,0.171485795,9.386984072,1.620580728,0.012414157,1.778840134,9.129190611,4
0.002798826,0.116847322,0.281894678,10.0595949,1.623448454,0.013053075,1.683130139,7.0420771,4
0.001713632,0.111093544,0.472956097,11.26019647,1.624816677,0.012340393,1.52594074,5.375141736,4
0.001178173,0.112599158,0.320119542,10.27374856,1.622893034,0.011970055,1.596744662,6.148117681,4
0.0004823,0.119153432,0.721586113,11.27233185,1.622473363,0.012101281,1.610192727,6.226216565,4
0.001238957,0.115263673,0.813135735,12.41878916,1.620382091,0.012351066,1.576884967,5.293772243,4
0.000845915,0.115375503,0.781254985,11.3835637,1.617842756,0.012315149,1.616432936,6.105623777,4
0.000692498,0.113831396,0.863198152,12.95552488,1.616555405,0.011966746,1.605735937,6.90604024,4
0.001256875,0.11518895,0.701589533,11.61991389,1.615955843,0.012165108,1.861403608,9.89002648,4
0.00050902,0.11839785,0.752846266,10.75857328,1.614194216,0.012527572,1.719853788,10.13638725,4
0.00197837,0.11265278,0.652119467,11.69646745,1.612901415,0.012143466,1.595600699,8.012476529,4
0.001942854,0.114792358,0.257236646,10.29405707,1.612612861,0.012284003,1.415477931,12.71970851,4
5.28E-06,0.118466421,0.299364823,9.653105609,1.611354828,0.012058794,1.071303198,11.63977493,4
0.000673449,0.11871186,0.501971348,10.03440043,1.610071019,0.012058537,1.358665887,5.988190485,4
0.003117201,0.115748169,0.453999911,11.26110101,1.609469332,0.012272786,1.330923011,9.644462857,4
0.001397206,0.118855119,0.458091023,10.50945433,1.610166386,0.012026326,1.240626656,9.880731167,4
-0.000806782,0.12519553,0.595502763,10.05846028,1.610493469,0.012285112,1.208687508,10.05443362,4
0.002544224,0.125724871,0.819621425,10.50089954,1.608714076,0.012514545,1.333118573,10.46037546,4
0.002947514,0.124268821,0.809634772,10.4749596,1.607509068,0.012358555,1.222713488,11.68667793,4
0.000235199,0.121780838,0.761294038,11.00382263,1.607492229,0.012345094,1.310527082,11.37100433,4
0.000565626,0.118218424,0.694314336,11.20812568,1.606874411,0.011955213,1.769899557,8.160811116,4
0.000967915,0.120454375,0.58806961,10.11231721,1.60707828,0.012122039,0.763003163,15.64544362,0
0.001888981,0.123102954,0.67023941,9.87023256,1.607013266,0.012379596,0.776494795,13.67838734,0
0.002290355,0.122439614,0.706732696,10.59505349,1.605808585,0.012113677,1.050170255,9.274518663,0
0.002209933,0.147116939,0.326759429,7.390612832,1.607605743,0.014178144,0.812376448,5.160309158,0
-0.000341622,0.165427299,0.64814099,6.405585659,1.618749564,0.01731635,0.414145608,1.459071986,0
0.000661632,0.151976438,0.664177176,6.6236583,1.633652442,0.015473181,-0.260557816,24.74088582,0
0.002861409,0.137743811,0.550472891,9.54521272,1.640853228,0.013448701,-0.252088032,46.68556562,0
-8.84E-05,0.144811385,0.944565616,12.04258596,1.643696812,0.012454084,1.586221881,7.250347816,0
-0.000472719,0.152078733,0.295998088,9.102749694,1.647035544,0.012460327,1.604103887,9.078963034,0
0.000892018,0.149097433,-0.195078159,8.595883577,1.64768595,0.012477528,1.704816159,8.438719939,0
0.00193171,0.144549397,-0.059579065,9.931455927,1.646960504,0.012446541,1.400981064,8.070325043,0
0.002148527,0.142798325,0.042371006,10.2105385,1.647042847,0.012633363,1.435925047,7.793508752,0
0.000815395,0.145698305,-0.109893995,8.748551983,1.647321701,0.012546925,1.511384773,6.292483617,0
0.002100462,0.142772151,-0.194282309,9.279630783,1.648734501,0.012117083,1.279159887,5.893712981,0
0.001788666,0.142145476,-0.274991843,9.021987258,1.650595365,0.011900926,1.535807966,6.631707824,0
-0.001039032,0.143953251,-0.341386496,7.993020266,1.651438086,0.012537452,1.372343165,11.35389358,0
0.001161811,0.139689761,-0.330250457,8.623830575,1.65078768,0.012772707,1.2354283,11.05655842,0
0.002191563,0.141340983,-0.196349594,8.98419238,1.652595139,0.012850111,1.221212224,8.69711242,0
0.000900075,0.139331462,-0.270457442,8.973568143,1.654831859,0.012454966,1.327665109,9.363641691,0
0.001447933,0.135802049,-0.28014291,9.233247763,1.653242765,0.012939932,1.76325013,9.199289204,0
0.001047586,0.142766299,-0.239695765,8.609942203,1.65228326,0.013097278,1.926753493,9.470592835,0
0.000884563,0.138660365,0.314522377,11.9769481,1.651676777,0.012539779,1.606604883,7.127032215,0
0.001640756,0.131548385,0.769030694,14.65950416,1.651534544,0.012570703,1.456150379,7.877092902,0
0.000658748,0.137451576,0.358161944,10.66687158,1.652054051,0.012509168,1.556542547,8.263606616,0
0.002348779,0.14223762,0.24192859,8.835887176,1.658070265,0.014152053,1.16807886,5.954041647,0
0.002565301,0.143608266,-0.012837491,8.568288826,1.661338806,0.013133065,1.510564005,7.82158021,0
-0.000480037,0.142921839,-0.211031672,8.521628258,1.658387484,0.012405256,1.40622313,6.460274002,0
0.000221165,0.143798532,0.092899437,8.258221534,1.663610131,0.014518328,0.814613752,3.244893623,0
0.002103221,0.141279348,0.610323165,8.975371516,1.673442132,0.014418352,0.697831157,4.79788962,0
0.000964652,0.140967043,0.732743539,9.400566498,1.680083466,0.012358047,1.581300171,7.456660711,0
0.000924944,0.132281336,0.86232029,11.38834349,1.682074356,0.012355158,1.56658881,5.696337282,0
0.001662284,0.11658626,1.556882605,15.72625942,1.683096858,0.012561702,1.515939519,4.965685628,0
0.004507154,0.160182165,0.147124381,5.418982166,1.686201532,0.017532099,1.548876519,4.747534053,0
0.000996414,0.201677654,0.103227328,2.073656354,1.708367538,0.026745567,-0.050242867,-0.556691077,0
-0.001470631,0.185997177,0.525524491,3.042924312,1.724213682,0.013137982,1.263555097,3.352680811,0
