mean_ecg,std_ecg,skew_ecg,kurt_ecg,mean_eda,std_eda,skew_eda,kurt_eda,Label
-0.000727465,0.232778153,4.258086786,21.35478379,2.356417738,0.011103085,1.303115987,6.487697808,0
-0.002366337,0.225866809,4.499443958,23.14571936,2.356386403,0.011136933,1.351053498,6.656929989,0
0.000343964,0.23207771,4.511027723,22.86795751,2.3535826,0.011124307,1.40981812,7.031352274,0
0.000517698,0.231966845,4.475540726,22.65024821,2.35309203,0.010848448,1.287619844,7.754911403,0
0.002823382,0.23106888,4.412403642,22.13918892,2.350676673,0.011506458,1.119754816,5.694196193,0
0.003052891,0.234955525,4.268154078,21.03844815,2.347610692,0.011238106,1.269447967,6.194593327,0
0.000618184,0.233866278,4.240038118,21.03319588,2.347498649,0.01112808,1.381239741,7.748382716,0
0.000508634,0.239808233,4.16448993,19.94515605,2.354066958,0.014731862,0.789691005,4.141868613,0
-0.000540802,0.233529697,4.309991767,21.42998837,2.361619404,0.013611929,0.53989354,7.091498031,0
-0.000344696,0.240787425,4.078059483,19.92945682,2.407204274,0.048306412,0.189746549,-1.562246169,0
0.00122527,0.252523747,3.843144965,17.72468405,2.425848934,0.032239812,0.288094777,-1.087479826,0
0.002958324,0.248491191,3.900921604,18.03781849,2.38972544,0.016421454,0.811361023,1.663528744,0
0.00233602,0.252370583,3.739285243,17.00042468,2.384506117,0.013762623,0.880971217,3.642397149,0
0.000383763,0.246218976,3.897535558,18.50541231,2.386583492,0.015395441,1.276096172,4.203684163,0
-0.000491462,0.233770476,4.204456385,21.16887572,2.37771868,0.01530089,1.749122966,6.565308031,0
0.001799574,0.247431182,3.823248587,17.96346892,2.376281847,0.012872461,1.145697183,5.6910988,0
0.000240385,0.243582954,3.728487683,17.81985507,2.380266735,0.01185298,1.421777672,6.592077827,0
0.001539773,0.230188791,3.9740148,19.81753192,2.376645224,0.01145896,1.166313849,6.089227963,1
0.003569373,0.236459101,3.979165363,19.3171054,2.374975313,0.012832556,1.133693226,6.249362239,1
-0.000842135,0.242026719,3.985948596,19.08975302,2.372336415,0.013390784,1.039930608,5.76761943,1
0.001967867,0.245870542,3.796124442,17.66679706,2.367004667,0.011561956,1.422913696,12.13247124,1
0.001866728,0.235543072,3.941412793,19.22790367,2.364164025,0.011804057,1.458836232,14.79030388,1
0.00073288,0.222253272,4.500622819,23.47955415,2.360592433,0.011648357,1.054508018,11.3541829,1
-0.000319774,0.215229234,4.714562365,25.74671881,2.35673027,0.011514818,1.316025491,12.88717959,1
-0.001007708,0.218059147,4.639726819,25.0633532,2.352467292,0.011767346,1.38928991,11.2717114,1
0.001306647,0.217264015,4.662807093,25.24814427,2.348459407,0.011546792,1.356896976,10.51321454,1
0.001969352,0.224372552,4.38992272,22.56928246,2.344583947,0.012960683,0.715337682,6.987249244,1
0.000697965,0.228586803,4.258214188,21.10721502,2.338054548,0.013119809,0.977611514,5.29291582,1
0.000255327,0.219360775,4.2697476,21.57966318,2.340138299,0.016871939,1.412734813,3.820103427,1
0.001546692,0.232395465,4.105440226,19.72231688,2.345535551,0.016456145,1.004430343,3.552141003,1
0.003033018,0.244324161,4.176930128,19.70457524,2.340523693,0.013127212,0.550073236,12.16407667,1
0.001116767,0.230280908,4.454508616,22.70961131,2.333811515,0.011971661,0.811172171,16.93603408,1
-0.001816184,0.222630769,4.586807123,24.5008809,2.330152457,0.011571934,1.094730015,8.963136177,1
0.001170129,0.22924813,4.470080283,23.00574634,2.32892516,0.011236795,0.95481153,8.390111286,1
0.001853139,0.231492107,4.417409622,22.45220004,2.328540421,0.01146563,1.351025555,10.29957869,1
-9.08E-06,0.22609153,4.51954543,23.79627504,2.326383809,0.011868113,1.491367214,10.0646558,1
-0.000194138,0.237624025,4.28906535,21.44349706,2.323002134,0.011583455,1.30390828,7.95829477,1
0.003502991,0.252719586,4.030321769,18.5179741,2.320477295,0.011407889,1.698335567,11.51166853,1
0.002711498,0.240354623,4.253453495,20.5977288,2.318374579,0.011769708,1.838979019,12.94264874,1
-0.001046454,0.22439392,4.578246269,24.27414544,2.315865217,0.011547761,1.474918035,8.890949867,1
0.000706748,0.226295745,4.510016377,23.68194743,2.318044771,0.011746508,1.123260341,6.64749903,1
0.002129046,0.228013459,4.489078086,23.47454196,2.319261496,0.011810103,1.121402236,9.459090552,1
0.000449779,0.232394876,4.375273019,22.1527091,2.321386937,0.013209149,1.059997917,5.241030818,1
0.001769996,0.24656425,4.094418375,19.18943615,2.331276212,0.014542756,0.895766527,3.87866889,1
0.001382786,0.247921304,4.144395354,19.47640345,2.333534622,0.013030797,1.298188073,6.18409646,1
-0.001421709,0.231775968,4.501987208,22.73549926,2.331505694,0.01148581,1.604402668,8.539937502,1
-0.000436353,0.2173727,4.78436723,25.66197246,2.333331953,0.012249175,-1.033760291,63.50161058,1
0.001371192,0.219970435,4.645951366,24.56267436,2.332964161,0.012053224,-1.474800299,66.18477435,1
0.001938328,0.221448308,4.578841507,23.99198633,2.332857895,0.011590217,1.199294218,13.70137537,1
0.000728603,0.22129659,4.649323866,24.47573507,2.334832437,0.01168627,1.164569312,12.89306611,1
0.001311911,0.222522042,4.654726169,24.50197306,2.336037827,0.011341741,1.133214331,12.94325869,1
0.001669242,0.224953795,4.523542863,23.5501531,2.337217767,0.011672498,1.231882662,14.91493304,1
0.000901212,0.228824539,4.442747617,22.68378883,2.335893413,0.011998183,1.410608347,11.63022652,1
0.001360513,0.233332461,4.463717539,22.34593937,2.332288361,0.011584156,1.707516051,11.24751038,1
-0.000175395,0.233414482,4.409492369,22.13646005,2.331388909,0.011241339,1.531212588,9.138871148,1
0.001047043,0.239269427,4.303988322,21.06658879,2.331523841,0.014825893,1.583170627,5.566414362,1
0.003887401,0.242787733,4.238793052,19.924279,2.349140276,0.025136884,0.251166237,-0.477572754,1
0.001332727,0.229375103,4.391821824,21.58863234,2.367306192,0.015318717,0.104674165,4.392558174,1
0.000407547,0.219289641,4.575662736,23.63469468,2.361000334,0.013914003,0.584933205,4.848441283,1
0.000280799,0.215321918,4.575200756,23.8956328,2.353239768,0.012128244,0.478690356,18.9753759,1
0.000941044,0.212204309,4.602160279,24.51297286,2.353744452,0.011832014,0.688082093,19.12037419,1
0.001380354,0.214074256,4.5957168,24.40895739,2.35599169,0.011365923,1.432414316,9.336968404,1
0.000976855,0.214353943,4.604707986,24.46461646,2.355937467,0.01152815,1.419247834,10.15956589,1
0.001270968,0.214681491,4.586958452,24.3346754,2.355872944,0.011797892,1.437942102,12.39811216,1
0.000496183,0.235477304,4.268918565,21.06619798,2.360580226,0.013012285,0.140483375,23.38669828,1
0.000754388,0.23386346,4.351934273,21.66350377,2.366004562,0.011946748,0.06818594,32.41468757,1
3.91E-05,0.214894228,4.744231174,25.47363365,2.370409611,0.011808795,1.828626638,11.78556931,1
0.00073885,0.208717369,4.805086491,26.69246269,2.374404526,0.011739527,1.798889992,12.26715996,1
0.003182968,0.210208146,4.704678596,25.79356394,2.374106816,0.011266191,1.636447654,11.27193863,1
0.00146948,0.219358616,4.559456114,23.89554358,2.372813416,0.011062778,1.394144231,11.87718167,1
-0.000786333,0.217410042,4.604842062,24.35801774,2.372251184,0.011312627,1.43949183,13.15920146,1
-0.000399765,0.216749635,4.64019179,24.67118084,2.37056863,0.011511663,1.587600335,12.84409708,1
0.001692751,0.219739713,4.555388602,23.98235295,2.371298708,0.012736539,1.207557435,6.116751715,1
0.002471957,0.238931182,4.25794932,20.84467957,2.375188882,0.012774606,1.058317688,4.991952201,1
0.00101908,0.260160984,3.999822795,18.06110248,2.372203118,0.012618451,1.098838881,6.636312689,1
-0.000178011,0.253559076,4.197411889,19.66087091,2.365351214,0.011678187,1.17467604,9.794209208,1
-0.000461177,0.239263038,4.512251392,22.54705131,2.36263188,0.011518451,1.138270357,11.56264567,1
0.001994901,0.236198032,4.492410305,22.552321,2.361845834,0.011521821,1.207968707,11.22287948,1
0.002553249,0.245398933,4.303404806,20.6073648,2.356822641,0.012828076,0.92602242,7.875892566,1
0.001557397,0.24846816,4.229591751,20.11845811,2.348923329,0.012159394,1.544764505,14.46685388,1
-0.000230759,0.251178138,4.12527386,19.3836366,2.345787157,0.011660015,1.949237054,16.61327499,1
0.00149021,0.253165875,4.069650459,18.92113153,2.345074463,0.011707538,1.792389878,11.13208387,1
0.001203245,0.248427315,4.221908336,20.04011503,2.344805581,0.011608317,1.484729787,10.06450212,1
0.000447353,0.251569304,4.247700266,19.76157358,2.342992401,0.011643686,1.259082675,12.47881304,1
0.002370444,0.242829398,4.371693829,21.17939995,2.339181628,0.01170822,1.090439127,13.79870917,1
-0.000862296,0.236055449,4.440803824,22.24087376,2.336975261,0.011656316,1.236998521,15.33757371,1
0.00014653,0.249158404,4.205846101,19.97879563,2.33550039,0.011482434,1.61230428,12.85500916,1
0.00287369,0.255385046,4.170759272,19.24948898,2.334056364,0.011578957,1.542735627,14.6133906,1
0.001123888,0.242597566,4.443810702,21.60174638,2.332797786,0.011721619,1.263261907,13.48124108,1
0.000450538,0.231419055,4.532082789,23.02681638,2.332062204,0.011828712,1.436434686,8.406146919,1
0.001208542,0.229537802,4.369714314,21.78251115,2.347688675,0.020960412,0.61976393,0.658361979,1
0.001038443,0.23191555,4.377534397,21.70681659,2.352337755,0.017636268,0.934728783,2.415237119,1
0.001199158,0.241125744,4.410917995,21.44923827,2.337931824,0.012062402,1.393779241,10.41896102,1
0.002183977,0.246328615,4.361280326,20.59249624,2.333557401,0.011298156,1.178793528,9.228867073,1
0.000410058,0.238732613,4.489267054,22.04851601,2.331300572,0.011502069,0.983289642,7.596715052,1
-0.000400975,0.248242968,4.236639741,20.18148474,2.330308642,0.01139903,0.573879059,14.17417655,1
0.002036689,0.254317057,4.135986613,19.04350002,2.33107932,0.0111001,0.931011946,17.36460612,1
0.001798089,0.237655969,4.449945072,21.89294147,2.331180573,0.011808869,0.604670394,32.34062308,1
0.000853481,0.239147901,4.39955187,21.44663877,2.33003818,0.011713157,0.573207379,32.12296529,1
0.000451152,0.243155011,4.397408035,21.25974362,2.328587341,0.010826159,1.534741663,11.1483413,1
0.000165612,0.234010371,4.553767544,23.08790143,2.329268919,0.011055882,1.516855785,9.436946711,1
0.002372223,0.240854681,4.378962792,21.24629909,2.330475889,0.011288748,1.601694068,11.54993818,1
0.000553992,0.243396145,4.35919902,21.00040726,2.330635943,0.01134636,1.374694019,10.54857981,1
-7.91E-07,0.246739881,4.300891968,20.64824936,2.331446838,0.011342284,1.477295091,8.307199399,1
0.001557861,0.249155442,4.149748631,19.38933091,2.334955597,0.012298068,1.391141771,8.241147986,1
0.000971505,0.247582274,4.055644717,18.97702085,2.347145952,0.015759231,0.371099483,2.321736963,1
0.000839153,0.244925241,4.030272071,19.2531125,2.360048349,0.012550316,0.613052152,6.924363671,1
0.001702632,0.241389125,4.028049876,19.29948607,2.362207304,0.01111161,1.580948152,7.207421776,1
0.002144603,0.246407479,3.878118051,18.15963803,2.360866874,0.010735408,1.22509577,8.857716317,1
0.000840467,0.245334618,3.843426065,18.243783,2.363468552,0.011249326,1.415919684,9.168554673,1
0.000342845,0.24317537,3.918027188,18.80348545,2.366123199,0.011405356,1.353002133,10.52644447,1
0.003257682,0.252519297,3.76409391,17.36098367,2.368704496,0.01210995,1.34133364,13.36381925,1
0.002842137,0.255444879,3.751543443,17.17712276,2.370431137,0.01158597,1.823875454,13.00867011,1
-0.001332642,0.23574674,4.064609718,20.35058574,2.368332345,0.01103649,1.33055995,8.709840107,1
-0.000357311,0.232961848,4.078425072,20.58327861,2.367408589,0.011351862,1.300612681,11.26699265,1
0.002788539,0.242441428,3.997501628,19.32660897,2.364952959,0.011571235,1.33094126,10.12182824,1
0.002945546,0.242899198,3.971994739,19.17336622,2.361587579,0.010627595,1.336028612,10.14920829,1
0.002282593,0.248730448,3.798572193,18.06390415,2.361478424,0.010983312,1.579661982,9.616176351,1
0.000319938,0.245431309,3.870312332,18.76364785,2.361519405,0.011310733,1.248696372,10.14139134,1
-0.001554775,0.240871812,4.09423956,20.13524855,2.35863424,0.011360292,0.920853438,10.01093023,1
0.000753819,0.244520403,4.086481951,19.73300803,2.357134138,0.011280873,1.325403403,9.390800283,1
0.00279555,0.253337174,3.822033151,17.63504313,2.358583232,0.011582476,1.540275552,10.93239196,1
0.000155587,0.242523122,3.824057711,18.44363727,2.358173043,0.011478857,1.723334542,13.60879393,1
-0.000625632,0.240845311,3.883013463,18.89576867,2.356392234,0.011177455,1.782664492,11.92663353,1
0.002312491,0.253397371,3.736586047,17.17956751,2.355105482,0.01102515,1.873899125,9.664829632,1
0.002827083,0.253372871,3.744007486,17.13157454,2.356012399,0.01127771,1.760955793,11.69226042,1
-0.000394514,0.257304019,3.736417856,16.98993326,2.355558068,0.011386953,1.513011425,10.88125369,1
-0.001106212,0.251922366,3.861443145,18.23070431,2.352046095,0.011250299,1.141710666,10.60405092,1
0.00156325,0.255517608,3.815981108,17.50561668,2.351759829,0.011365242,1.31694776,11.63173463,1
-0.000106829,0.247730717,3.856285579,18.25435788,2.35406674,0.011370524,1.684391175,9.583482859,1
0.000541868,0.241564669,3.883219396,18.90235046,2.35440979,0.011173292,1.222084514,9.67153483,1
0.003252339,0.250046201,3.694446889,17.12587299,2.352946799,0.011756167,0.575766638,18.64205307,1
0.002168132,0.249906102,3.725600509,17.31969626,2.350371443,0.011693171,0.823163364,16.56387481,1
-0.00071657,0.248102776,3.804232794,17.89102298,2.34997842,0.011193073,1.068653488,7.63717665,1
-8.79E-05,0.247993343,3.738835602,17.51740714,2.361198425,0.015089201,0.347459272,2.179665981,1
0.001199092,0.253441293,3.629128432,16.79242185,2.372689492,0.011269066,1.145235748,7.573055161,1
0.000302922,0.253022235,3.713496693,17.23732964,2.373946926,0.011191385,1.684683093,9.473832444,1
0.002779861,0.24686948,3.820789845,17.93684971,2.370525905,0.011684227,1.593114082,9.236993908,1
0.001374265,0.239988991,3.877663587,18.88098349,2.367031479,0.011035573,1.671648172,9.142242798,1
-0.000102068,0.241127119,3.842118666,18.65753705,2.365432903,0.011427555,1.647131587,8.883986697,1
0.001971359,0.248107931,3.779963817,17.73249434,2.36473465,0.011556901,1.567458209,9.447009995,1
0.002550156,0.248916617,3.781838723,17.71592371,2.364936774,0.011204903,1.389011789,8.443645023,1
0.000142868,0.251177051,3.725756525,17.38403014,2.364670072,0.011286424,1.436021749,11.19566966,1
0.000416284,0.258511811,3.689585644,16.66054963,2.362419564,0.011313587,1.458987539,9.819085821,1
0.001628285,0.256494904,3.771528472,17.13872121,2.359482574,0.01102445,1.675578963,9.457781453,1
9.65E-05,0.250988593,3.778902736,17.74901971,2.359731947,0.011354532,1.962860159,12.76431011,1
0.000617987,0.254605816,3.728072484,17.42326071,2.359377234,0.011094245,1.773487118,10.7997063,1
0.001900406,0.259857093,3.743290833,16.97727789,2.357809666,0.01082226,1.32899787,5.912422366,1
0.001548915,0.257537437,3.722782539,16.87631207,2.355632237,0.011210899,1.598323914,7.564414771,1
0.000167358,0.252441578,3.741349762,17.36259657,2.35255443,0.011261311,1.823270823,9.896285145,1
0.001149026,0.256584567,3.632455756,16.69090205,2.348970413,0.011386994,1.69399081,10.39161138,1
0.000575285,0.26757015,3.54401572,15.63487109,2.345602689,0.011304582,1.529931922,11.20599587,1
0.001596431,0.270267989,3.606326364,15.47056668,2.341063472,0.011834546,1.348624607,7.268664018,1
0.002057013,0.25898167,3.634175485,16.28831263,2.3344847,0.011794575,1.491130075,7.482814463,1
0.000993262,0.259672038,3.479335664,15.99226282,2.330117634,0.011428819,1.369612458,7.81033954,1
-0.00077655,0.267347965,3.350688617,15.07427984,2.324969591,0.011990075,1.015429393,5.623892605,1
0.001291554,0.260899144,3.366647021,15.16758874,2.318645532,0.011743064,1.079958853,8.502538959,1
0.004328417,0.2535688,3.479410642,15.83578296,2.315998895,0.011632756,1.774035099,14.21105675,1
0.000132732,0.251041562,3.661610858,17.04829838,2.315391976,0.011380882,2.065017664,14.08281971,1
-0.000295042,0.252506334,3.661876961,17.08026672,2.315559006,0.011262719,1.463379422,11.25112424,1
0.002018816,0.2573442,3.558741417,16.32293283,2.316288212,0.011566011,1.276205081,10.79483212,1
0.002975588,0.262924043,3.567029291,15.94953882,2.316361673,0.011477645,1.274106645,10.88519543,1
0.000825963,0.261259238,3.661688067,16.57041958,2.318069077,0.011803572,1.406005501,9.916620485,1
0.000435144,0.262301855,3.684597195,16.74778781,2.323401751,0.012191969,1.179263432,6.604611402,1
0.002235012,0.257476379,3.800424509,17.56931288,2.326562718,0.011335753,1.490988034,9.083749173,1
0.000364439,0.230741814,4.166304464,20.98719271,2.333346067,0.01817106,1.130370904,1.630944474,1
0.000922492,0.210670427,4.457048138,23.486703,2.354671151,0.021970347,-0.278603298,-0.096678227,1
0.001209457,0.20307666,4.743542243,26.18800357,2.366420146,0.011475907,1.315435706,7.20534837,1
0.000369749,0.211255476,4.69523146,25.53248165,2.363279833,0.011079814,1.410741366,9.329204266,1
0.000494581,0.22254209,4.468391319,23.13814802,2.364163916,0.012453949,1.589745599,9.726725844,1
-0.000519006,0.249997954,4.012984571,19.05506874,2.360931996,0.013211312,1.34563947,7.075106149,1
0.001279286,0.26471996,3.852637865,17.26622241,2.354416003,0.011248004,1.156654939,7.084017016,1
0.003872138,0.246908041,4.070394866,19.3676261,2.348094995,0.011954858,0.78508582,6.133840297,1
0.000498158,0.240932094,4.008212565,19.56443054,2.341794968,0.011147458,0.614287486,8.078941897,1
-0.000807698,0.246111632,3.864852085,18.55343262,2.337800053,0.011362704,0.879595163,8.515488156,1
0.002261464,0.247136126,3.85897075,18.46693511,2.33371206,0.011483786,1.260068075,9.853991752,1
0.000624239,0.246196819,3.952109143,19.00542302,2.331073489,0.011431531,1.41467536,9.159026808,1
0.000547675,0.252450457,3.930729217,18.29506006,2.330156817,0.011175498,1.43866428,8.339222468,1
0.002067941,0.251786692,3.984604109,18.62438052,2.329147993,0.0112928,1.800061554,12.02680745,1
-2.26E-06,0.245198114,4.143550543,20.17441457,2.328378078,0.011326915,2.106142938,12.9692009,1
-0.00056214,0.244487784,4.118628699,20.05740261,2.328014537,0.011251815,1.762519512,9.850878866,1
0.000956621,0.245251168,4.028817918,19.43450026,2.32606163,0.011179554,1.493893352,9.708342209,1
0.001708583,0.245980587,3.976105276,19.08529343,2.325873021,0.010933962,1.347525426,8.281676184,1
0.002307502,0.245874445,3.947348616,18.93228506,2.327444567,0.011105279,1.646353208,8.781568629,1
0.001259249,0.240955498,4.060926098,19.77600898,2.327552577,0.011131983,1.623724933,10.30053998,1
0.000380971,0.235325209,4.196051966,20.82802831,2.325759234,0.010912769,1.329687417,8.98533122,1
0.001195986,0.232237701,4.249078564,21.30843485,2.324234881,0.012151529,0.983944975,7.723461244,1
0.000634147,0.226746216,4.424313993,22.6757177,2.326254708,0.013166507,0.958890443,7.684800407,1
0.001377241,0.234700825,4.448867219,22.05371652,2.329016495,0.013207554,0.979522708,6.427921597,1
0.002710948,0.245597439,4.333842875,20.53314915,2.328192248,0.012648225,0.830369872,7.25074694,1
0.000424295,0.245920635,4.310070609,20.72195542,2.324196352,0.011372483,1.177834497,11.51927686,1
0.001039686,0.244256649,4.40928137,21.43377635,2.322391837,0.011054148,1.615977532,12.32456047,1
0.001966886,0.236807685,4.618425454,23.14584677,2.321919632,0.011366302,1.540430655,13.02944808,1
0.000944458,0.233447649,4.669796174,23.91278335,2.320804923,0.011404427,1.297481115,12.84434168,1
0.000108366,0.23173489,4.684812491,24.10631638,2.321383449,0.011206157,1.184069036,8.921979609,1
0.000490572,0.219833944,4.819612062,26.08835559,2.32417123,0.011322384,1.371757237,8.653145839,1
0.001314338,0.225174467,4.70153862,24.8978424,2.324756459,0.011509246,1.126228308,12.00340564,1
0.000856083,0.243374483,4.413457152,21.42035398,2.323176193,0.011890283,1.217224643,13.64584085,1
0.001665554,0.242050244,4.404685796,21.44604227,2.322635814,0.011634349,1.601338107,11.54297241,1
0.001003183,0.244458694,4.397777331,21.36128562,2.326289913,0.012318974,0.972819799,11.5255015,1
-0.001130768,0.2569875,4.113865081,18.92730171,2.33227926,0.012584125,0.8280314,10.76063499,1
0.000107359,0.251702093,4.033610154,18.71893483,2.338268716,0.012668293,0.934078871,5.368918808,1
0.003554241,0.241480612,4.165204627,19.80870381,2.340590286,0.011292524,0.742705307,22.58088778,1
0.002720228,0.238924902,4.154735515,20.02973522,2.3401177,0.01152693,0.534528436,21.77290327,1
0.002844341,0.236530073,4.136121681,20.35645892,2.341976983,0.011720657,-0.011691974,34.40618789,1
0.0004398,0.229668858,4.203590985,21.51643049,2.342625427,0.011617606,-0.144672321,34.10872733,1
0.000474858,0.232865267,4.163473615,21.03982973,2.344050925,0.011652153,1.254908812,9.223859609,1
0.000227724,0.23982919,4.076574216,19.8403409,2.346316256,0.011332031,1.458428481,8.78210034,1
0.001112536,0.239507602,3.971390861,19.26395908,2.345702744,0.011124632,1.513151442,7.040009983,1
0.002435564,0.243826388,3.918333905,18.77173397,2.345500456,0.011260738,1.29792171,6.262926684,1
-0.000528835,0.245144592,3.992476725,19.17095266,2.349538803,0.011454696,0.93955815,6.783420159,1
0.000371109,0.244514851,3.975876146,19.14362087,2.35401486,0.011399925,1.198979432,9.252830041,1
0.002445053,0.259955768,3.775603016,17.15807688,2.35574864,0.011144609,1.329638402,8.439361969,1
0.002241302,0.263131111,3.819468757,17.03533988,2.356063134,0.011047556,1.271709335,6.486565991,1
-0.001455466,0.235324544,4.147427637,20.56555711,2.358028466,0.011476968,1.568521591,6.96096505,1
0.001498516,0.234595866,3.975995504,19.53232764,2.359821265,0.014221142,1.058913283,4.329234819,1
0.004350795,0.254412833,3.857684182,17.36226029,2.364289692,0.014465749,0.478878968,3.734298485,1
0.000502899,0.243133113,4.236269171,19.95061245,2.367311587,0.010871606,1.206922111,11.30879839,1
-0.000832921,0.221968796,4.578053077,23.29133335,2.365259988,0.011069681,0.55608919,16.9136479,1
0.001049377,0.226979567,4.464701574,22.32904111,2.365370941,0.011309357,0.883205073,16.61032393,1
0.00020275,0.232648687,4.469907266,22.12951724,2.365298571,0.011022919,1.640529712,14.17019135,1
0.001855467,0.236254133,4.397352014,21.36039344,2.369254248,0.015500934,1.803152482,6.276580725,1
0.000710063,0.231949666,4.337759546,21.33785628,2.380983571,0.017929782,0.885583748,2.096795137,1
0.002467183,0.226582964,4.388510282,22.08537253,2.381569835,0.017371262,0.108065726,13.47494964,1
0.002050428,0.217892325,4.63464217,24.34794779,2.374288886,0.014497831,0.232677625,26.57291065,1
-0.000407397,0.205562588,4.851470953,26.76666269,2.373291724,0.011373805,1.257824791,12.8691623,1
0.0019031,0.213551376,4.676035909,24.74226669,2.373101425,0.011421531,1.380168132,11.46722704,1
-0.000653242,0.220807337,4.625883249,24.16407904,2.371709061,0.011184717,1.556308641,10.88784283,1
0.000751341,0.241940879,4.362773224,21.15139543,2.376624407,0.012848521,0.785416082,5.933629702,1
0.002133323,0.251419566,4.198836551,19.47751192,2.38398868,0.011514786,0.883195712,9.383080668,1
2.03E-05,0.235081441,4.423407217,21.94181861,2.393305751,0.019471189,2.604808921,11.23597035,1
0.002662027,0.232017267,4.491801459,22.4860439,2.398460279,0.017940961,2.774597892,13.14581251,1
0.002749518,0.234125882,4.515215063,22.45200228,2.393531363,0.011318778,1.472747153,13.03933865,1
-0.001306353,0.229100187,4.682641667,24.1883205,2.390710286,0.011567683,1.871863442,21.12785428,1
0.002007536,0.236867107,4.515174767,22.37672234,2.389960534,0.011663328,1.426619969,19.53530015,1
0.001702881,0.239141772,4.475288361,22.04692203,2.394015993,0.0122075,1.107410189,9.960449862,1
-0.000221545,0.240815987,4.470719957,21.93774518,2.394806998,0.011840181,1.515693986,8.676652656,1
0.000589658,0.239317632,4.492100249,22.13584537,2.388674218,0.0116063,1.805098052,12.30854466,1
0.00069259,0.231379198,4.658579294,23.91245705,2.386333411,0.011496303,1.937072804,17.27024439,1
0.004177342,0.242035937,4.472071947,21.83754422,2.38681973,0.011342935,1.448729236,13.76707072,1
0.0029849,0.242318903,4.398509285,21.34412385,2.38750703,0.011223594,1.252862889,10.33167676,1
-0.000803329,0.233993478,4.545636669,22.98620472,2.386925997,0.011543427,1.623293345,12.68831466,1
-0.001671243,0.235727052,4.600887963,23.32151302,2.386259133,0.011551356,0.917564056,21.57185829,1
0.000249017,0.233992159,4.62111817,23.52233593,2.386239243,0.011671542,0.901509689,25.34156459,1
0.003387981,0.241014457,4.478185701,21.88369064,2.385722896,0.011246778,1.602278931,17.77826474,1
0.000768938,0.233605322,4.598342702,23.36210718,2.386333248,0.011014001,1.101012409,13.16895632,1
0.000215522,0.224640163,4.719933603,25.08396516,2.39021056,0.014489503,-0.194823537,32.55401867,1
0.001304711,0.235914816,4.353327111,21.63080281,2.404360744,0.017884221,-0.559307465,15.3313252,1
0.002476089,0.241880406,4.165477843,20.03152086,2.415274538,0.017502766,1.526807269,9.920828394,1
0.002025578,0.237303167,4.309839508,21.27122089,2.415957642,0.017392144,1.495487636,9.649233725,1
0.000784836,0.226025718,4.514631308,23.26340195,2.41825992,0.011481219,1.303652389,13.47420145,1
0.000171406,0.222315583,4.584101756,23.87308737,2.420203291,0.011551807,1.035312902,11.42775225,1
-0.000465304,0.224720444,4.568411838,23.67754914,2.424627577,0.012014345,0.987421559,7.984344193,1
0.001700664,0.225739087,4.553213419,23.508542,2.430806569,0.011637576,1.532327335,14.41205593,0
0.00205772,0.223614595,4.581681336,23.79298146,2.433851624,0.011585115,1.67780896,12.93907792,0
0.00040996,0.236509758,4.003510545,19.30340107,2.441523034,0.018972393,1.380441324,4.244852726,0
0.001322885,0.251464954,3.670108569,16.58872641,2.447638484,0.01950865,0.658203519,4.670054478,0
0.000784071,0.24670883,4.004366484,18.6473813,2.44540438,0.013781182,0.660502406,11.06159572,0
0.000222826,0.242737497,4.155622835,19.63849656,2.445832934,0.014122875,1.262261635,4.606702422,0
0.001080368,0.244340419,4.049155495,19.25997754,2.445022855,0.014441789,1.214502143,5.362316076,0
0.001477432,0.238986529,4.138038625,19.96502198,2.442516,0.011295889,1.659060439,14.6554278,0
0.002544342,0.235483943,4.232241961,20.38781451,2.441626086,0.01133367,1.614814498,13.2715047,0
-0.000403231,0.231551102,4.290859187,21.25933054,2.441253063,0.011306409,1.27448048,11.12557491,5
0.000663391,0.234236144,4.277903921,21.04778955,2.44215404,0.011512562,1.392138507,13.30365378,5
0.002995952,0.228571315,4.327892291,21.59865572,2.442773873,0.011739926,0.888562767,21.56755938,5
0.001324735,0.219020321,4.436033263,23.04099918,2.444397463,0.011602289,0.8544843,19.51674325,5
0.000860177,0.225252485,4.420465823,22.74161129,2.444883837,0.01134312,1.513335576,10.88022602,5
0.000380421,0.225536954,4.485046521,23.15048363,2.443293108,0.011249249,1.622624219,12.3669911,5
3.11E-05,0.22522697,4.542299315,23.56306841,2.444228799,0.011439032,1.709293382,11.66382666,5
0.003470084,0.230798276,4.474503999,22.51501272,2.448347092,0.011492954,1.831496522,12.80231408,5
0.001558384,0.226190762,4.461895481,22.55850837,2.451561574,0.010892498,1.711103414,13.05128946,5
-0.000628268,0.222603106,4.467003198,23.11930386,2.451253619,0.01146464,0.082620518,38.62587899,5
0.001035854,0.223528072,4.527121788,23.50956475,2.448437173,0.011525204,0.290799752,36.11734849,0
0.00063756,0.217967127,4.543777164,23.86745736,2.446496255,0.011378874,-0.413395631,34.5840145,0
0.002100383,0.2154369,4.49416357,23.58747596,2.446834673,0.011648063,-0.242562153,32.67980579,0
0.002043104,0.22184172,4.333923018,22.26545139,2.449841581,0.011199599,1.492964633,7.807425685,0
0.000923041,0.225928522,4.303141187,21.90855361,2.450553458,0.011511925,0.507728727,23.31168003,0
0.001076562,0.234313879,4.230653071,20.83949319,2.452049637,0.014474562,-0.433342396,24.25636936,0
0.002440377,0.230765153,4.186575983,21.01564644,2.45886334,0.014392201,-0.367424113,20.50123267,0
0.001089334,0.219789664,4.310324183,22.48348761,2.460732269,0.011211104,1.752720637,11.95312258,0
-0.001207881,0.217660492,4.366171123,23.03637253,2.45859533,0.010773714,0.947737474,18.49392932,0
0.000523139,0.21838699,4.295602669,22.57146312,2.45877642,0.010748932,1.037335562,15.52432796,0
0.002118151,0.224021914,4.234922688,21.47744072,2.461489378,0.01117085,1.389009079,6.066501552,0
0.001286375,0.225177377,4.251030445,21.58164219,2.462501417,0.010883777,1.152900621,7.236125335,0
0.000361712,0.21772983,4.316058995,22.73311649,2.46026268,0.010785575,1.552653417,11.99534595,0
0.002162201,0.216605863,4.324502781,22.78629429,2.461796624,0.01118513,1.925253026,13.91198229,0
0.00075002,0.224808187,4.232783976,21.43136914,2.464431654,0.011012878,1.251687795,14.60748439,0
-0.000206961,0.225083998,4.222610787,21.35071618,2.464316886,0.011063324,1.030622591,13.11866638,0
0.001885914,0.22516724,4.181982625,21.1089851,2.460704259,0.01144731,1.627308832,11.07831445,0
0.001366464,0.224004115,4.192201855,21.21919054,2.457459423,0.011325414,1.516830289,11.76611682,0
0.001011919,0.223179288,4.231752649,21.48094662,2.462917818,0.012914281,0.962751147,6.919992082,0
-0.000324515,0.223819128,4.265507019,21.72742206,2.468535886,0.01129107,1.494394743,11.80962594,0
0.000311024,0.22621919,4.231590099,21.44923405,2.467044285,0.010722398,1.31591444,10.42188927,0
0.001372539,0.227024329,4.200372226,21.18330254,2.465543202,0.010551487,1.456135345,12.77101063,0
0.006544392,0.232333359,4.065846316,19.69802043,2.46579786,0.011170314,0.826254785,31.91914831,0
0.002368214,0.232504804,4.039569357,19.50266473,2.466829027,0.010920421,0.666146019,30.98046647,0
-0.002345058,0.225203886,4.147692137,20.81615494,2.468556922,0.010430662,1.328168013,8.59482431,0
0.001257987,0.224917945,4.169956911,20.997552,2.471416855,0.010736351,1.342697659,8.130800692,0
0.000692086,0.227106886,4.186395003,21.08727984,2.474480765,0.010969854,0.99472098,14.53326184,0
0.001535176,0.22912361,4.17236241,20.88605086,2.47558463,0.010933372,0.186196805,21.1960858,0
0.000409045,0.229220301,4.135148225,20.60731421,2.476909637,0.010972943,0.669100441,14.97860418,0
0.000907824,0.228480493,4.145585611,20.70934243,2.478038025,0.01096668,1.4238263,9.416059101,0
0.000993033,0.230985924,4.147792326,20.6580021,2.478340585,0.010802327,1.481366775,9.922864582,0
0.000305191,0.229721539,4.19951168,21.04506831,2.479951368,0.011515036,-1.736133675,82.34982401,0
0.000592896,0.225285091,4.292846884,21.77874561,2.482869448,0.011409713,-2.145555282,87.05555769,0
0.002316716,0.225548944,4.244092323,21.42418227,2.485276631,0.010622351,0.94912841,9.922286906,0
0.00202446,0.226062945,4.226228509,21.3247076,2.486428888,0.010901601,1.001430957,16.36928899,0
0.00091847,0.226544613,4.182637259,21.02177709,2.486498478,0.010640997,0.971189429,15.38600935,0
0.000683886,0.227518788,4.168208376,20.87001753,2.48694518,0.010612615,1.230365443,10.77737446,0
0.000965751,0.227632737,4.183689657,20.97124409,2.488998686,0.01105503,1.354465124,13.07327458,0
0.000792886,0.234433529,4.14613001,20.45953606,2.492349134,0.011471134,1.197355052,10.63017953,0
0.002256945,0.240925466,4.151208828,20.16795194,2.493451636,0.011343616,1.569703588,9.68346596,0
0.002440606,0.241662631,4.215297349,20.52188156,2.494401278,0.011306405,1.802090402,11.08614578,0
0.001515485,0.236824455,4.288105465,21.31282772,2.496605301,0.010687373,1.854534201,9.922597301,0
0.000552495,0.228544225,4.29124642,22.00711891,2.497049659,0.010454098,1.888558948,10.34442306,0
0.000737895,0.233477914,4.168549334,20.91790869,2.497514398,0.011031427,2.111950172,14.54857733,0
0.002365605,0.239455748,4.068946237,19.77418841,2.504801069,0.016004494,0.295149276,15.7541912,0
-0.000178064,0.230889601,4.153791946,21.03417572,2.518892016,0.016074123,-0.561959346,17.92152426,0
-0.002158984,0.231540297,4.188988919,21.21703998,2.529643467,0.011913719,1.050184672,7.512679824,0
0.000398438,0.251654263,3.9565301,18.34706449,2.531635775,0.012094399,0.858563013,5.220749472,0
0.003375589,0.257228296,3.985151912,18.09209978,2.536706325,0.014357903,0.718053794,4.751381149,0
-0.000782665,0.247705183,4.271196879,20.13917472,2.544693102,0.011706653,1.32677721,10.7797809,0
0.000753943,0.251545985,3.954197462,17.74378405,2.550506864,0.018218357,2.067505535,7.205744382,0
0.00192177,0.261297363,3.847659718,16.71431344,2.555482374,0.017340839,1.835470533,6.654383752,0
0.001123712,0.251270479,4.170994506,19.14268129,2.554558291,0.010559772,1.235385462,6.992814183,0
0.001185562,0.215186891,4.58704164,24.47583696,2.552019337,0.010884841,1.677866046,8.653018843,0
0.001392399,0.209983682,4.68860429,26.18093016,2.551381574,0.011049299,1.32034949,12.25272858,0
0.002204276,0.221139367,4.659267247,24.98912556,2.551314926,0.010813809,0.98838891,11.32894356,0
-0.000827571,0.220003171,4.799503771,26.06072951,2.54955161,0.010453646,1.122234265,6.967770478,0
0.002253289,0.222976665,4.769857833,25.18629557,2.549144527,0.010449533,1.32336505,8.025025199,0
0.001912098,0.213592431,4.970681958,27.52018793,2.546440397,0.011508649,1.024878948,5.395268923,0
0.000379283,0.215896495,4.968526204,27.38622436,2.538284193,0.012163207,0.990021296,3.749247565,0
0.001197327,0.218160026,4.958550178,27.17155189,2.534122413,0.010753552,1.243095351,7.728770747,3
0.000680564,0.229885596,4.585080292,23.60335774,2.537322235,0.010974585,0.384065323,10.99275269,3
0.001273924,0.232882724,4.477757771,22.76986014,2.546309444,0.012210735,0.282268221,6.77381977,3
0.00105644,0.225857747,4.678402281,24.91330096,2.557882527,0.011639923,1.125574102,4.156566085,3
0.001637342,0.231440311,4.553711178,23.35760716,2.571122524,0.013563284,0.63456586,2.842257251,3
0.002008242,0.236615392,4.478035808,22.2505852,2.581015669,0.011030697,1.263516927,9.187411464,3
0.001343111,0.23485959,4.57076925,22.91563073,2.581506021,0.010745173,1.599805023,8.784954821,3
0.000686364,0.225930791,4.775766532,25.09585303,2.580281993,0.010628704,0.462411819,20.44349296,3
0.001161399,0.226025435,4.775353262,25.0834294,2.581576048,0.010715584,0.26565379,20.47676581,3
0.000968164,0.232809256,4.509655857,22.51459688,2.58315724,0.010428403,1.355540669,9.292383793,3
0.000538369,0.225180359,4.583384565,23.71948619,2.583280182,0.010522808,1.655014553,10.21005601,3
-6.66E-05,0.225848011,4.607789929,23.92426989,2.584135165,0.010757593,1.599578042,9.120774315,3
-0.000315229,0.240735652,4.06456943,18.90520052,2.596156747,0.016618155,0.657576361,0.545034416,3
0.002418666,0.248081091,3.928805001,17.60448675,2.619574411,0.017913357,-0.012698128,0.227677371,3
0.005045393,0.230644366,4.438674263,22.21524484,2.63647886,0.011910232,0.692842495,5.316706106,3
-0.000634467,0.226727581,4.307317629,22.31602262,2.645607758,0.012736314,-0.860107565,46.69200833,3
-0.00135001,0.238080135,4.088706269,19.73122938,2.661894117,0.016605826,-0.695694179,18.76238758,3
0.001720093,0.228375941,4.552521493,23.21857592,2.68819046,0.019923916,0.491781442,-0.086161962,3
-0.000148871,0.226182396,4.763074825,25.16744533,2.709982354,0.015061712,-0.105396726,2.634762684,3
0.003927848,0.229809637,4.644359925,23.57290907,2.723516464,0.012627778,0.960145961,3.387323737,3
0.003987403,0.23342591,4.427592401,21.70849031,2.746145303,0.02042159,0.274902768,-0.508718957,3
-0.001488785,0.218813949,4.599248396,24.31790595,2.780631856,0.023540608,0.173024852,-0.539485768,3
0.000841422,0.224208908,4.684378833,24.54149462,2.809442629,0.01731466,-0.310570713,1.144710929,3
0.002649889,0.231933659,4.657898164,23.63916425,2.825322669,0.011864828,0.818863865,2.922420771,3
-0.001339116,0.222824084,4.772193182,25.24060797,2.830878448,0.010261959,1.396406246,6.268019631,3
-0.001065262,0.219097679,4.562390574,24.07862168,2.833378819,0.010556709,1.332185749,7.151931105,3
0.001958817,0.223255278,4.447985356,23.25462463,2.846499634,0.015359842,0.512198007,0.963960053,3
0.00339624,0.23330014,4.474340304,22.41302712,2.859637724,0.011205545,0.901949257,9.422461736,3
0.001590781,0.228958729,4.605203327,23.30901654,2.862250846,0.010348448,1.637575105,13.40995878,3
-0.000179195,0.232750117,4.484127808,22.38653175,2.866707393,0.011322378,1.205321462,8.123572259,3
0.000407259,0.236944517,4.348903736,21.40477862,2.870454243,0.010450023,1.439148386,10.17152211,3
0.002157362,0.239218101,4.35833135,21.32728487,2.867806734,0.010432518,1.249445687,7.502258931,3
0.003410902,0.241052901,4.32286227,20.66732432,2.863424083,0.010215019,1.319291768,7.219793968,3
0.000224095,0.221357488,4.640856224,24.29730975,2.862705885,0.009836111,1.550486142,6.778453772,3
0.000255844,0.225618768,4.695040155,24.48516408,2.862017822,0.009956326,1.503023553,7.172755646,3
0.001360336,0.231651914,4.611083863,23.34459418,2.861311831,0.010222167,1.605970167,9.363398654,3
-0.000226998,0.222451759,4.765742508,25.21479053,2.861998422,0.010919272,1.238317931,7.516151851,3
0.000747633,0.224339419,4.716778428,24.78488617,2.855654362,0.012329284,0.836500961,4.174189995,3
0.001986583,0.231741202,4.456082986,22.37538882,2.850351824,0.011230412,0.948555193,5.987687375,3
0.001495507,0.220326028,4.55090203,23.8205099,2.851751164,0.011141581,0.557504563,9.227198099,3
0.001446004,0.215944983,4.598222081,24.26968078,2.853269087,0.010184143,0.602423632,12.26759242,3
0.00115002,0.218011013,4.662520203,24.67723833,2.852205385,0.010333466,1.132924526,6.877606481,3
0.002077672,0.222906186,4.659260315,24.52232058,2.847188786,0.01078875,1.162815823,5.979468369,3
0.000761856,0.225695582,4.567704184,23.74814967,2.842933164,0.009878824,1.242469536,7.489168429,3
-0.000325418,0.220950419,4.663334917,24.9555394,2.840280315,0.010052985,1.150546964,6.932857497,3
0.001630025,0.22434921,4.588118923,23.87156199,2.836018644,0.010309946,0.78530111,10.47800302,3
0.000718905,0.212997325,4.819905049,26.4290438,2.831556811,0.010343472,1.067328218,10.81965227,3
0.002307691,0.224463232,4.702494959,24.56585058,2.829296984,0.010363653,1.751549126,10.35997283,3
0.001114177,0.232790769,4.531068667,22.74032078,2.828044292,0.010349687,1.687444115,9.362313106,3
-0.000731009,0.228081476,4.545019651,23.4912384,2.83042717,0.011083847,1.161573257,4.478393318,3
0.001439366,0.225640665,4.61440148,23.97699584,2.834328352,0.011334547,0.74545233,4.339878619,3
0.002371438,0.226204167,4.635712221,23.63825903,2.83007709,0.011926713,0.867644435,3.03380939,3
0.001902695,0.215693455,4.817795527,25.79494577,2.821630042,0.010935723,1.40558452,5.709514893,3
-8.87E-05,0.212788045,4.877272647,26.91637077,2.818217577,0.010168096,1.705263465,9.015306425,3
0.000363981,0.22362998,4.6694088,24.45909196,2.819991302,0.010264982,1.627578761,9.129247974,3
0.002057929,0.231103447,4.587431998,23.12045708,2.821340234,0.010188445,1.775669572,8.918097049,3
0.002006489,0.239574621,4.401758043,21.331464,2.821527372,0.010220008,1.428487977,6.032185714,3
0.000112904,0.22650109,4.495576696,23.21276316,2.824240385,0.010634795,1.486352061,9.856885028,3
0.001113831,0.227561645,4.406506558,22.40389405,2.826195962,0.010184401,1.709382709,10.93829333,3
0.001328986,0.230729714,4.427449842,22.05518172,2.825898579,0.009832873,1.177146339,5.306291152,3
-8.52E-05,0.221586471,4.74418235,25.0385396,2.824154173,0.010155352,0.964407502,5.9587603,3
0.001071697,0.223252523,4.792645411,25.28925447,2.820749119,0.010108383,1.334297757,7.851036448,3
0.001930448,0.22827357,4.637340861,23.69979855,2.817605264,0.010189509,1.543577477,8.365782955,3
0.002268768,0.216583181,4.760515018,25.46669663,2.817376491,0.010191688,1.38831869,8.963510414,3
0.001206783,0.212376039,4.806782848,26.39429296,2.817334747,0.010279165,1.308186061,8.325921044,3
0.000557452,0.220567238,4.61332269,24.68656933,2.811742619,0.01115833,1.164844194,5.856552103,3
0.000597493,0.221311606,4.642195856,24.81142453,2.807859639,0.010267775,1.251082588,8.281878902,3
0.001209268,0.233901821,4.331515073,21.25241594,2.811987032,0.011767986,0.783817312,4.025748559,3
0.000358056,0.239197727,4.160269961,19.9910656,2.821640287,0.013446946,0.523177351,2.160557491,3
0.00157659,0.241296669,4.319887643,21.0957644,2.837536839,0.015551157,0.291800573,1.366079329,3
0.001893683,0.235254927,4.602407363,23.17213179,2.850531496,0.011005272,1.208209052,6.79079096,3
0.001215833,0.225878756,4.603845168,23.66802512,2.856031908,0.011842091,1.206271144,5.419016768,3
0.001491394,0.222505114,4.533834302,23.29418132,2.864510454,0.012989321,0.722539369,3.977498255,3
0.000406128,0.222089544,4.598539108,24.01534508,2.870680073,0.010329033,1.56613783,9.272095502,3
0.002844655,0.229012386,4.4746467,22.44468061,2.871775218,0.010091926,1.351798761,8.283835914,3
0.000987677,0.227647784,4.586598971,23.28541083,2.86993103,0.010611757,0.177553308,20.73146061,3
-0.001317974,0.238188514,4.266868637,21.28488649,2.868375288,0.010928561,0.089615694,17.07062735,3
0.001632836,0.237486973,4.204080437,20.89146657,2.879084233,0.014573315,0.341647702,1.592852366,0
0.00120811,0.231198392,4.440788185,22.22773193,2.88450955,0.011423681,-0.363217158,27.29205672,0
0.001412384,0.232985305,4.248577512,21.02586814,2.881291798,0.012898048,0.212160182,15.42376897,0
0.002155838,0.23443598,3.925163377,19.356887,2.886080442,0.014564261,0.26826121,9.071528305,0
0.000547152,0.247989596,3.812555261,17.77569228,2.887097931,0.012289204,0.202203625,20.1856865,0
0.000302621,0.247486756,3.862290677,18.03662653,2.882428959,0.010629872,0.331849142,18.45291347,0
0.002103274,0.244204456,3.829923239,18.21087018,2.874862725,0.0118108,0.082574805,11.42157086,0
0.001163655,0.243067928,3.95525871,19.03380831,2.867580795,0.010451553,1.097527039,10.88874423,0
-0.000602509,0.232632278,4.164277569,20.85192947,2.869043568,0.01103117,1.309511983,9.991130869,0
0.002138777,0.234071075,4.17641027,20.90285694,2.873417773,0.010494636,1.097325884,10.31093754,0
0.002362531,0.238094451,4.16903047,20.6339459,2.875619016,0.009999083,1.103949984,11.37686371,0
0.000793998,0.229348994,4.332679806,22.01918612,2.875532423,0.009981029,1.35072679,12.65218681,0
0.001511163,0.228697491,4.393603189,22.45817861,2.873669543,0.010230303,1.142763155,10.89399499,0
0.001466989,0.238904364,4.130187645,20.507635,2.884521266,0.017554132,0.566410014,0.870670121,0
-0.000372286,0.232054998,4.132712999,21.52850443,2.899751282,0.013560214,0.28689696,4.047449196,7
-0.000625253,0.231038502,4.265594601,22.17012292,2.911780984,0.014454508,0.734200624,4.430133852,7
0.002683273,0.239112431,4.236179164,20.55334496,2.924164636,0.012453144,0.073781042,13.86118662,7
0.001102609,0.230067163,4.374729937,21.80347606,2.9836289,0.061059588,0.234624989,-1.725867759,7
0.001843996,0.239600728,4.30407616,21.02821989,3.051975795,0.028400409,-2.418535213,7.055349769,0
0.001160908,0.235117585,4.452080676,22.53364003,3.070248631,0.014765295,1.123518971,3.116159973,0
-0.000636363,0.218079545,4.560044753,24.42920453,3.093397249,0.022749782,-0.104829077,-0.582385796,0
0.002935972,0.222879218,4.286155544,21.95954077,3.118835667,0.013786612,0.375083723,1.614611812,0
0.001099509,0.231227544,4.063470091,20.30906152,3.128118733,0.011053646,0.746907701,5.909222531,0
-0.000290824,0.231487128,4.1001421,20.87225932,3.124778639,0.012083791,-0.599159973,36.15178231,0
0.000470182,0.229798555,4.199363066,21.37352913,3.124358095,0.011581784,-0.707329746,42.43489349,0
0.001515871,0.230555711,4.166437676,20.71611474,3.128176989,0.010441398,1.030864808,10.39452519,0
0.001596346,0.229144119,4.216238847,21.20327053,3.132515826,0.011704026,-0.04770724,18.88759608,0
0.001795519,0.232095866,4.139347478,20.57306072,3.135338647,0.010467432,0.250241948,30.67989072,0
0.001959359,0.231554326,4.124554614,20.43812764,3.142419488,0.013950541,0.831841097,3.664431764,0
0.001707517,0.229379868,4.1670056,20.84228792,3.149774606,0.010914537,1.300944773,8.150936484,0
0.000760156,0.222293116,4.223699292,21.89189036,3.142349897,0.011860626,0.946251973,4.722417032,0
0.00185682,0.222280774,4.231541935,21.88664303,3.13358732,0.010594943,1.015939208,10.62474206,0
0.001087352,0.229801202,4.184618226,20.94972889,3.129835783,0.009948301,0.628547095,9.377460391,0
0.00131951,0.230184236,4.197646638,21.05768954,3.122233691,0.012629044,0.531497387,2.921571737,0
0.001235707,0.230287523,4.130225831,20.57756017,3.109728677,0.011785929,1.069599911,5.976083284,0
-0.001278789,0.223465949,4.186473776,21.60928233,3.099625887,0.011190783,1.258746707,9.324080938,0
0.000390969,0.223825803,4.241124687,21.94857341,3.088031823,0.012762334,0.728524037,6.989573916,0
0.001274754,0.229703475,4.157883497,20.72281289,3.082689449,0.011079689,1.008460844,9.888271878,0
0.001872325,0.2294179,4.106771431,20.4280064,3.081577791,0.01115025,1.266575848,9.813885578,0
0.000959394,0.230424616,4.128347313,20.58521476,3.079866137,0.012038987,1.043008528,6.285141301,0
0.00066192,0.230775491,4.189953677,21.00798583,3.08298378,0.012317367,0.67056174,6.103738499,0
0.001086116,0.23062598,4.189704932,21.05329064,3.080825152,0.011436209,1.091751427,9.091964665,0
0.001241579,0.231285766,4.134286005,20.62681835,3.072592981,0.011310416,0.218507825,18.81681403,0
0.002327506,0.232801237,4.101401784,20.29169051,3.063576017,0.0119262,0.191477915,14.62115882,0
0.001260269,0.235858452,4.07970071,20.0671773,3.055880301,0.010448098,0.995213512,12.09965246,0
0.000640693,0.23670828,4.121971823,20.27375199,3.053985596,0.010074173,1.646502754,12.83355266,0
0.001840125,0.230021015,4.245290533,21.30817689,3.051020541,0.011039649,1.512375789,11.68729327,0
0.001237911,0.220802292,4.359854452,22.79868474,3.044631468,0.010598252,1.278985275,10.23480352,0
-0.000336391,0.216794567,4.389854955,23.56026106,3.037882396,0.0109865,1.157405961,7.41809891,0
0.000460033,0.225169278,4.224987486,21.71424383,3.030295672,0.010715629,1.314670467,8.725853516,0
0.002224261,0.233168764,4.040209919,19.7434868,3.026835687,0.010068939,1.005532106,9.60084832,0
0.002463351,0.238947354,4.007383399,19.1125583,3.026774706,0.013940468,1.753436899,8.301528702,0
-0.000574435,0.255031468,3.702119756,16.84897138,3.032864543,0.015925885,0.948120513,3.430100186,0
0.000582047,0.262016755,3.65945933,16.30662173,3.054739216,0.020094379,0.200227309,0.003155439,0
0.002510389,0.254580455,4.08040948,18.75339747,3.069560296,0.012218679,0.170997326,20.07102887,0
0.001428765,0.240605991,4.380376682,21.42333492,3.066332081,0.01084221,0.294163821,32.23674925,0
0.001599027,0.232447729,4.445206192,22.52061203,3.06248,0.009993124,0.672716142,13.22132882,0
0.000131071,0.230426411,4.512150909,23.07040565,3.060051291,0.010614068,-1.912481376,76.97033983,0
-8.25E-05,0.226416268,4.651324682,24.23771842,3.054872731,0.011722285,-0.874771944,51.33579617,0
0.001287722,0.229823665,4.486709206,23.05467555,3.048606219,0.011534716,1.235289177,10.76021638,0
0.003718781,0.24628734,3.994823075,19.03226884,3.04271213,0.013160366,0.446630279,6.573318432,4
0.001462012,0.244395334,4.112189348,19.74822876,3.032567324,0.013581262,0.631431504,4.500642682,4
2.16E-05,0.235776959,4.488471743,22.31675978,3.021121924,0.011948547,0.989967067,6.186914411,4
0.000998232,0.219299888,4.798488808,25.98752947,3.010673632,0.011867269,1.274803916,8.121530043,4
0.00025107,0.202660655,5.118402816,30.26664109,3.003884888,0.010355441,1.662555946,16.10931337,4
0.002506668,0.220282887,4.767756248,25.61721022,2.999724034,0.010592234,1.481951575,13.55461462,4
0.001347846,0.22265021,4.720576668,25.22096967,2.996249662,0.010553146,1.698748544,17.17510903,4
0.00061802,0.215335302,4.827953414,26.82161439,2.994324384,0.010562818,1.537087875,18.21694063,4
0.001131088,0.214859152,4.852908687,26.92523357,2.992046629,0.010222919,0.905234838,16.86234222,4
0.001416197,0.223353013,4.677757629,24.82587762,2.989013999,0.010385181,0.341498855,15.47143411,4
0.000750536,0.223032989,4.670980974,24.83731225,2.9843647,0.010481282,0.63840487,10.40966794,4
-0.000644387,0.215198843,4.83377428,26.84128547,2.980378396,0.010237563,1.162533674,13.20009112,4
0.002596861,0.220894807,4.673855835,25.1175558,2.97754582,0.010780634,0.859823715,18.03473562,4
0.002449801,0.229221491,4.478717686,23.21507012,2.973696027,0.010931327,0.617352959,17.3725475,4
0.000231164,0.225065142,4.572716196,24.24097648,2.972267587,0.01052825,1.133430953,14.63401256,4
0.000813276,0.221164643,4.656461341,25.01762048,2.972721863,0.010659429,1.436270523,12.40705955,4
0.000425341,0.229200746,4.518739993,23.45461735,2.968837302,0.01112878,1.265146283,10.02574029,4
0.001490649,0.235403637,4.41705648,22.28376859,2.964128876,0.010256363,0.900378873,15.09513468,4
0.002372308,0.226180804,4.602013534,24.19341415,2.96249515,0.01031238,1.243967263,18.76388631,4
0.001257895,0.227115986,4.615475543,24.24239189,2.961291994,0.010450722,1.575235236,15.69465042,4
0.000733187,0.228150411,4.567797605,23.88999179,2.958670861,0.010256718,1.078044937,10.37598765,4
0.001196457,0.225046577,4.617176046,24.35054508,2.956837736,0.009980818,1.422914371,12.00007705,4
0.000872504,0.226810963,4.586695061,24.0660367,2.956034579,0.010481992,2.104539409,19.46516136,4
0.000439146,0.22683716,4.575010922,23.95676947,2.954770824,0.01051387,1.752210554,19.68200571,4
0.000467377,0.228569799,4.523141743,23.50953646,2.953272792,0.010368323,1.152869348,13.97450261,4
0.00191873,0.231131677,4.434748418,22.8112538,2.951113783,0.010121627,0.87464642,13.22558854,4
0.001505938,0.227547871,4.526642549,23.58390399,2.946754074,0.010685806,0.542460785,8.091569928,4
-0.000185891,0.225177022,4.641123133,24.52103267,2.938878196,0.01162437,0.922971453,6.662852817,4
0.001335074,0.23449202,4.481094757,22.60416257,2.927266584,0.012955213,0.715656965,5.026131302,4
0.001594195,0.237154246,4.399668464,21.94770676,2.91896989,0.01090383,1.354993367,12.42767677,4
0.000501245,0.228096888,4.55976823,23.8174068,2.9165602,0.010750356,1.557676673,13.1897943,4
-2.41E-05,0.227678561,4.588914142,24.01671779,2.913256781,0.011086954,2.465391193,21.76284454,4
0.002556669,0.23812985,4.370152465,21.69481096,2.911070088,0.010446039,2.578604123,24.56671922,4
0.004359218,0.241030066,4.306089074,21.14992073,2.912298257,0.010220482,1.736554357,12.26848259,4
-7.59E-06,0.223715041,4.63314453,24.913336,2.913018908,0.010539445,2.207588408,19.29759251,4
-0.001597857,0.224209475,4.624687495,24.87464537,2.911743164,0.010715493,0.933532132,27.07152152,4
0.002967597,0.231378484,4.481031191,23.12288692,2.912215533,0.010785874,0.900638338,24.09477158,4
0.001077092,0.223333639,4.620838558,24.81932049,2.916809028,0.011246725,1.683151212,13.38866256,4
-0.000824714,0.226410712,4.566151,24.28792884,2.919066402,0.010606301,1.673879184,14.31908501,4
0.001440746,0.224899726,4.578553121,24.43702005,2.917501068,0.010184462,1.266097235,10.83731425,4
0.002166857,0.234505479,4.38866725,22.29059836,2.918041447,0.010526868,0.859621864,27.86112305,4
0.002783321,0.23155877,4.434047743,22.76681655,2.92069615,0.010990248,0.861396951,30.03132048,4
0.000149218,0.223039334,4.609458594,24.77955126,2.922710146,0.010771394,0.930472424,19.76628612,4
-0.000223251,0.23792725,4.316039968,21.77442131,2.925573349,0.011122289,0.894128864,12.40473726,4
0.003285906,0.235819379,4.326903716,21.93164451,2.929767936,0.011073241,1.338603936,8.994056452,4
0.00176139,0.217354512,4.733780346,25.8945555,2.928990555,0.010878632,1.865322027,10.77153787,4
0.001375116,0.226050696,4.596996086,24.21037396,2.925693512,0.010396167,1.595955333,15.74430335,4
3.21E-05,0.225716597,4.515067646,24.12164845,2.926174872,0.011071982,-1.332120275,71.52815006,4
-0.000439872,0.217301209,4.691693924,26.05861034,2.925354494,0.011075158,-1.07385627,70.71368124,4
0.001489393,0.231590149,4.551013192,23.50406683,2.924970354,0.011208796,-2.127069218,104.2995904,4
0.000798608,0.230117822,4.587777315,23.86343055,2.92543493,0.011184727,-2.040926801,104.6231959,4
0.000959983,0.234682502,4.435018441,22.63262471,2.925473022,0.010407335,1.895281838,14.04798772,4
0.00216619,0.238543725,4.308801273,21.57669435,2.928230831,0.010601163,1.047606175,12.00026819,4
0.001169187,0.225405355,4.577706038,24.29717476,2.931170327,0.010529602,0.896972645,10.87926279,4
0.002137181,0.233415121,4.453084106,22.76511441,2.933364868,0.010995244,-0.439944007,54.90509252,4
0.002630022,0.244403764,4.225525736,20.50007051,2.933499799,0.011050706,-0.569557394,55.35497164,4
-0.000286809,0.227332269,4.484603949,23.6580056,2.934961482,0.010599644,1.289491986,15.33340692,4
-0.000527658,0.220605278,4.60717728,24.90484694,2.937566594,0.010819064,1.252733471,20.33646393,4
0.00070716,0.227856589,4.517502635,23.54620171,2.938063594,0.010746285,1.14171665,20.47878445,4
0.002413559,0.231863705,4.466725481,22.8990038,2.938139561,0.010391283,1.079897739,16.94003158,4
0.000572414,0.2310052,4.505137382,23.28120189,2.939911052,0.01056479,1.213288048,11.85923969,4
-0.000449648,0.225789196,4.608591926,24.66983546,2.942466245,0.010406737,1.552260766,13.65479961,4
0.001287774,0.22821458,4.544689714,23.97994017,2.943414307,0.010360191,1.43998629,17.79357108,4
0.002825344,0.232988886,4.487436503,22.98515413,2.944753211,0.010548516,0.405014522,24.74136615,4
0.003661586,0.237730328,4.381780971,21.77790062,2.947321974,0.010547382,0.182863656,24.33837166,4
0.00049152,0.231207972,4.448773398,22.86592877,2.950394549,0.010682815,0.680236362,14.91164633,4
1.63E-05,0.232603025,4.514692663,23.25536942,2.951293618,0.010366164,1.220372317,16.06043651,4
0.000394278,0.241362523,4.409267827,21.82096888,2.951733126,0.010199269,1.957403491,15.02072459,4
0.000704178,0.234013077,4.475095518,22.896007,2.954113661,0.010201547,1.529072031,14.57670822,4
0.000966673,0.234936664,4.433287,22.60041057,2.955888912,0.010471012,1.517783112,19.7106329,4
0.000641517,0.23659357,4.340122646,21.90016997,2.95562548,0.010628489,2.26541602,23.24538973,4
0.00224055,0.23654807,4.318090632,21.67729025,2.954260581,0.010627182,0.431708797,46.23934221,4
0.001071514,0.243078338,4.268524016,20.800775,2.955729185,0.011406648,-3.367423184,109.6431603,4
0.000352805,0.233612093,4.389133305,22.32743177,2.960735212,0.011510239,-2.476375494,92.09355359,4
0.000897217,0.228359473,4.434346615,23.17314834,2.965370287,0.010468088,0.71144333,15.05125321,4
0.001286996,0.238575697,4.297830918,21.54518297,2.970017624,0.01084947,1.107298039,10.06302427,4
0.00249198,0.24667085,4.215592842,20.38028086,2.97204786,0.010608425,1.337515174,11.95102065,4
0.000589874,0.23762828,4.403089578,22.23913366,2.9720338,0.01063241,1.03663341,11.28341019,4
0.001977245,0.239411415,4.29171886,21.5207241,2.975495802,0.010705661,1.171735618,11.1269007,4
0.003424909,0.237447128,4.3331866,21.82387214,2.975829315,0.01074251,1.069687791,24.11677554,0
0.000723737,0.240677963,4.359952296,21.44584324,2.977352851,0.011625278,1.102513158,17.69717408,0
0.000675182,0.247132077,4.234208623,20.16017767,2.979458291,0.011243899,0.96855818,12.71153955,0
0.000968634,0.245501927,4.347727541,20.9879014,2.979305758,0.010401967,0.962347512,17.19652743,0
-0.000626809,0.24607,4.353853642,21.09228626,2.980573218,0.010072203,1.564910792,15.8210079,0
0.000900088,0.245624728,4.135367362,19.71122064,2.985063607,0.012656731,1.389194696,8.02387785,0
0.004413385,0.246506097,3.898816345,18.22253363,2.99186276,0.012114737,1.100717814,7.445628359,0
-0.000227188,0.235257204,3.980860599,19.73915422,2.991038568,0.010808598,1.572757239,14.34895534,0
-0.000297716,0.235127447,3.976194322,19.6125968,2.987208721,0.010126088,1.947978288,17.89312666,0
0.001426032,0.234076964,3.986688233,19.72660386,2.988304247,0.010218582,1.080805412,11.89346849,0
0.001876328,0.233789801,3.9982196,19.82076547,2.989807074,0.01026602,1.580696369,14.64617415,0
0.001737795,0.241252538,3.928654455,18.82458981,2.988437871,0.010214869,1.960548418,17.77288754,0
-0.001045048,0.23444504,4.025764987,20.01410126,2.986520222,0.01010798,0.834710828,24.78760806,0
-3.91E-05,0.234292154,4.033247011,20.04250152,2.987716784,0.010389298,0.75631433,20.85049331,0
0.000986657,0.239841209,3.964876578,19.08029957,2.988285392,0.010305165,1.27786379,15.2410081,0
0.004185719,0.247512138,3.854102628,17.87682886,2.983713913,0.010813336,1.161930057,12.36351377,0
0.001032198,0.24373075,3.875543752,18.44121563,2.978553772,0.010587586,1.166032852,15.09041909,0
-0.001456545,0.235943782,3.964240064,19.5770586,2.97682675,0.010045952,0.942822242,14.32352687,0
0.001308635,0.241133272,3.921009025,18.80006853,2.975740869,0.009911091,1.093634356,11.75588882,0
0.001102687,0.240648679,3.906022519,18.74392717,2.974151175,0.009923452,1.186396399,13.41799995,0
0.001529637,0.240136286,3.929264923,18.92302863,2.974091993,0.010074291,1.607937843,16.17521397,0
0.001442453,0.240686682,3.920452363,18.84158024,2.974604688,0.010016547,1.708875767,15.47567994,0
0.002146415,0.240792205,3.898606574,18.66104966,2.974678639,0.009898357,1.419584451,10.95045339,0
0.001652658,0.24358693,3.923122059,18.42349809,2.974032375,0.010037064,1.833577371,14.97021757,0
-0.000141024,0.235168603,4.068757237,19.95557258,2.972748784,0.010281435,1.786372605,17.0606441,0
0.000357213,0.230582553,4.163904442,21.08399256,2.970423998,0.010272384,1.052672479,12.89537517,0
0.000215639,0.241293088,4.010730733,19.40577286,2.971117238,0.010517792,1.515149798,14.9993905,0
0.000309572,0.245092164,3.901958252,18.64083839,2.973133523,0.010533546,1.707102142,16.60915084,0
0.002741377,0.234301511,3.996656509,19.92137795,2.971071952,0.010539922,1.210452995,13.29766101,0
0.002565536,0.234341226,4.000820925,19.86340612,2.971299035,0.012390246,1.599100811,7.623504961,0
0.000658931,0.253345114,3.695729694,16.75620077,2.972148895,0.013621479,0.949566915,5.110490074,0
0.000713699,0.25959458,3.789645961,16.87573272,2.970817893,0.012694662,0.923598282,6.391817261,0
0.00526319,0.262780296,3.70454456,16.10658991,2.972653089,0.014956329,1.364019924,3.916823847,0
0.004056604,0.265785858,3.44861417,14.6396848,2.974583381,0.01413113,1.063684805,3.76625599,0
0.006000347,0.335508925,1.420236739,5.583947774,2.978142003,0.011205606,1.036467283,8.173476689,0
-0.001796297,0.32462299,1.441074268,5.888201394,2.986219515,0.011677018,1.146887749,6.156269562,0
-0.008767325,0.224279882,4.355338541,22.22608445,2.991507939,0.010120102,1.32541211,7.194340053,0
-0.001532364,0.218741377,4.605977395,24.75325148,2.996400942,0.010644192,0.86705871,4.973945118,0
-0.001892565,0.224888906,4.64425268,24.36177205,3.004337474,0.011148704,-0.772795298,44.29790454,0
0.000928351,0.233668842,4.605412021,23.2573008,3.013647079,0.012475714,-0.586157419,32.4006008,0
0.0036708,0.236395582,4.536782041,22.48526574,3.021561704,0.010839159,1.02993132,6.588828936,0
0.001159731,0.228675119,4.598284478,23.55391996,3.021835763,0.010191664,1.16783459,7.554862335,0
-0.000714079,0.226914746,4.54848835,23.2428021,3.023159245,0.010600088,1.029588888,5.752270202,0
0.002409308,0.2326744,4.403069888,21.7106249,3.027300698,0.010048767,1.180034005,7.256402881,0
0.002371288,0.23722597,4.413570819,21.58509016,3.028629303,0.00993208,0.976646035,7.337297357,0
0.000464931,0.239158393,4.391460304,21.27989766,3.03066428,0.010388912,1.0890435,8.914270276,0
0.000815401,0.236165832,4.436819197,21.62625179,3.028729194,0.010740442,1.14508451,7.450154835,0
0.000180339,0.230578337,4.617810121,23.14302008,3.023507527,0.010197767,1.32375009,7.45798934,0
0.000500977,0.229072144,4.628203939,23.32818485,3.024345834,0.010953346,1.048755393,6.320846276,0
0.002947665,0.230209207,4.585758156,23.04349682,3.02698773,0.010370859,0.703893283,6.483684761,0
0.002652132,0.229532815,4.399405529,21.9439822,3.031642042,0.010970895,0.78346209,4.48872047,0
0.000284566,0.228786807,4.302624703,21.2522988,3.035358265,0.010274634,1.442923791,8.613268638,0
0.001259386,0.233549271,4.350305788,21.346611,3.034031623,0.010120565,1.622377056,10.47386989,0
0.001831329,0.233504607,4.256017317,20.81414999,3.033797455,0.010049557,1.5099981,7.201747673,0
0.001258065,0.233694886,4.180623649,20.40771593,3.035962405,0.01080003,1.254380819,6.269343842,0
0.000126657,0.231357108,4.352037744,21.52388921,3.037838745,0.010414595,1.082746414,8.018744286,0
0.002244474,0.238434024,4.20966391,20.00357245,3.034625898,0.010822312,0.792087324,6.721224395,0
0.001997975,0.229587736,4.245905703,20.75461459,3.031669453,0.010652962,0.926766127,9.886436764,0
-0.001681641,0.216676998,4.475412133,22.69006344,3.031285422,0.010212945,0.811514632,10.48683525,0
0.000825734,0.23145785,4.094487992,19.81380015,3.031043516,0.010503783,0.983708982,5.95952558,0
0.000577148,0.239542225,4.018126744,19.24702786,3.033138221,0.010781717,0.940436825,5.81057017,0
0.001789078,0.223883026,4.29316201,20.97750164,3.036913245,0.010471198,1.169688483,10.33452364,0
0.002329062,0.194247058,4.726389752,25.20613334,3.039580427,0.010120442,1.114937783,11.71629404,0
0.001111875,0.195823874,4.849791614,26.67611428,3.041779872,0.009880214,0.907992734,9.113776166,0
0.004359401,0.203417407,4.721644726,25.15814535,3.042562376,0.009587543,1.246049004,8.238955384,0
0.000595184,0.197765969,4.772387569,26.37185985,3.043006951,0.009618204,1.370741957,9.080337817,0
-0.001188917,0.214232873,4.497070564,23.50779213,3.048313849,0.010716309,1.122006723,7.027584468,0
0.000323175,0.220555896,4.475803639,23.10063263,3.056237357,0.010854236,1.111394879,8.955466333,0
-0.001214741,0.207520387,4.640775036,25.01940238,3.06265455,0.010273839,0.939170856,11.19602412,0
0.001016543,0.212953649,4.545773854,23.71679028,3.066154752,0.010141348,-0.742143637,53.21896812,0
0.003409679,0.218899979,4.548544332,23.12615587,3.068568965,0.010170933,-0.435457871,51.05214147,0
0.007113549,0.226551066,4.081817749,19.88904167,3.072025408,0.010855336,1.746357768,8.104876928,0
0.001175563,0.215900576,4.190844315,21.26616469,3.102848925,0.03090922,0.028243686,-1.487473422,0
-0.004616501,0.200085875,4.930836271,27.35207011,3.130896105,0.01012443,1.817801343,10.98337529,0
0.001669124,0.214187591,4.764698985,25.19247308,3.132068634,0.010350227,1.664365733,10.23576976,0
0.001703025,0.215289892,4.719068403,24.83316612,3.135949544,0.010023006,1.37881122,8.816199159,0
0.001009957,0.210220179,4.755151543,25.40272279,3.137715748,0.009778263,1.459454861,10.64660167,0
0.001400861,0.212173729,4.689529073,24.59649394,3.138074112,0.010099585,1.450518837,9.740782661,0
-1.77E-05,0.207515489,4.791899307,25.6405029,3.142573602,0.010847658,0.955542884,6.872332265,0
0.002949862,0.209748969,4.761033906,24.94496068,3.149177606,0.010163957,0.966647283,7.613201585,0
0.001221647,0.213816662,4.732317638,24.70104122,3.15266522,0.009861468,1.373134609,9.638437013,0
-0.000329989,0.221492276,4.516668796,23.2072378,3.151213782,0.010315397,1.39982186,12.1068387,0
0.001314318,0.22466457,4.346882646,21.5719892,3.14929875,0.009898245,1.246647405,13.46266092,0
-0.000171661,0.215501699,4.590907187,23.26266052,3.14940033,0.009382409,1.324599058,10.23597916,0
0.00170806,0.21429621,4.710668222,24.12726002,3.148105894,0.009462108,1.569859152,10.22571001,0
0.002585874,0.219576355,4.496664802,22.26262418,3.147401919,0.009945106,1.722824067,13.10699131,0
0.000668041,0.204851957,4.65753132,24.62806256,3.152734157,0.011234184,1.121430498,6.132360763,0
-0.000213377,0.188943138,5.01075888,28.58292916,3.162537983,0.011026067,0.998860151,5.395485373,0
0.001188858,0.194274642,4.970467132,27.47786781,3.16701246,0.009920973,1.011983158,9.410137478,0
0.001092237,0.207907914,4.763360078,25.10478877,3.167830494,0.009714253,1.169167878,9.581834174,0
-0.000430736,0.225976288,4.301761564,21.2764511,3.1671972,0.009826558,1.4253297,8.075113452,0
0.001178388,0.21760541,4.279867814,21.87459546,3.169436373,0.010370333,0.868937367,4.381272587,0
0.001984739,0.216321428,4.111973283,20.54800761,3.191481236,0.027766049,1.183006078,0.531214873,0
0.002275014,0.224221999,3.880887804,18.00313184,3.237394006,0.035068459,-0.491220417,-1.146408385,0
0.002434361,0.224171385,3.86973543,17.87509155,3.25983478,0.012227794,0.199259762,7.31444091,0
-6.69E-05,0.244550685,3.431014865,14.93552897,3.261230305,0.017972466,0.882285487,5.52592885,0
0.000546858,0.260117529,3.146468744,13.06733043,3.280784498,0.021330393,-0.320472242,1.743960462,0
0.0017667,0.251018011,3.448054977,14.78852201,3.309420831,0.020566523,0.338648333,0.182430552,0
0.003614868,0.239036029,3.859446431,16.86942979,3.317778233,0.01466594,0.716953766,4.186985634,0
0.002885605,0.236923749,3.92692128,17.61172921,3.310398538,0.010794784,1.119140535,37.19179055,0
-0.000742264,0.237140919,3.83645421,17.46423967,3.311935316,0.011099705,0.978390015,32.63326077,0
-0.00112296,0.250806241,3.592134771,15.77163119,3.31726859,0.012099806,0.903992954,6.839688354,0
0.000504953,0.267849759,3.403609081,14.12381764,3.325012915,0.013085181,0.596225412,3.473834019,0
0.001562504,0.255675362,3.637065823,15.76887181,3.320153318,0.014575394,0.736858478,2.602362214,0
0.001085364,0.24127632,3.895422556,17.47764647,3.31084453,0.010093093,1.463743343,16.57291415,2
0.001031721,0.24834824,3.647191851,15.94650458,3.310772215,0.010403756,0.952746959,14.98630162,2
0.000216006,0.250875571,3.580368235,16.14973288,3.319180025,0.015285044,0.763651289,3.61517049,2
0.000920236,0.250863706,3.649026328,16.27297265,3.340762711,0.019341994,-0.049554971,0.814284395,2
0.001753732,0.255702055,3.495889755,14.85201763,3.36504037,0.020256306,0.696550335,1.386150035,2
0.001006256,0.252118224,3.528331715,15.37766377,3.373924364,0.017515876,0.599722574,2.522812524,2
0.001911131,0.252523231,3.597109139,15.62011858,3.371613857,0.012759975,1.152494816,7.816447508,2
0.002083806,0.254950577,3.48157363,14.69187044,3.37231102,0.01193466,0.912752139,8.36734267,2
0.000861812,0.252618147,3.555687792,15.43015805,3.382256644,0.013900413,0.68592544,5.35998913,2
0.000965214,0.252059666,3.588385906,15.68786617,3.401492037,0.016831282,1.011319317,3.386360544,2
0.002085983,0.251409155,3.439485532,14.41044763,3.440683692,0.035596166,0.537224337,-0.541871653,2
0.001038273,0.235554383,3.55850619,15.33139405,3.48386492,0.02466875,-0.475068218,0.565830299,2
0.014175868,0.234639496,2.83929533,10.9998366,3.487694277,0.016855676,0.274142983,2.053902101,2
0.001342555,0.276772363,2.433390825,9.325920532,3.506148693,0.036123104,0.56750904,-0.603324346,2
-0.013302965,0.282106352,3.049635011,12.74015848,3.532001768,0.020728124,0.833476748,1.077437981,2
-0.000656387,0.248927629,3.521170678,15.62882362,3.540816116,0.020107595,0.61561707,0.768437843,2
0.001183417,0.237761235,3.582175521,15.6487457,3.594421932,0.045285701,-0.053363709,-1.388059622,2
-0.000227607,0.238857793,3.801485003,16.79102562,3.643385914,0.032920646,1.688424319,2.610023166,2
0.001322577,0.236686802,3.719856394,16.48207139,3.72772898,0.093010207,0.342168698,-1.180150195,2
0.004192572,0.23970885,3.671664576,16.16170643,3.790459769,0.047983078,0.702195079,-0.352133491,2
0.00142356,0.233226104,3.752329612,16.69961712,3.80967598,0.039548024,-0.035225014,-1.237961143,2
0.001009925,0.226125125,3.65993532,16.28699579,3.852565711,0.019723134,-0.996622037,4.183178208,2
-4.30E-05,0.22029291,3.585557261,15.93537351,3.898806272,0.050856938,1.177160154,0.925450805,2
0.001363214,0.217318416,3.658111496,16.15328647,3.947458649,0.041711549,0.303696141,-0.186406856,2
0.001190473,0.230909755,3.669313473,16.49984352,4.001680701,0.0655276,0.936258299,-0.251178013,2
0.00133909,0.233193351,3.739581356,16.71046347,4.054762759,0.051287666,0.015231224,-1.078345934,2
-8.85E-06,0.211476914,3.919685934,17.70387697,4.212739508,0.185029279,0.727792279,-1.136659978,2
-0.000262606,0.20393945,3.812343709,17.02997297,4.365712738,0.120604142,-0.350714346,-0.866729689,2
0.005031719,0.209342109,3.920058105,17.53612348,4.395738384,0.063784381,-0.114684924,-1.105309739,2
0.002741193,0.21578364,3.996603476,18.7089107,4.447934341,0.058918667,0.164060936,0.135069387,2
-0.001169835,0.239884201,3.693033529,16.5274671,4.576352801,0.16920422,0.964870459,-0.48477655,2
0.001171031,0.239710739,3.628768798,15.99273215,4.667795236,0.140004877,0.222997097,-0.693355426,2
0.000582557,0.223474806,3.745439077,16.86056428,4.612969044,0.070462481,1.51789872,2.045443545,2
0.000998252,0.228517746,3.80587071,17.25306443,4.61254109,0.056584173,0.497895991,-0.704966287,2
0.003057724,0.241185461,3.708013094,16.40234302,4.643075289,0.035160706,1.032254578,0.239441148,2
0.0009656,0.252622893,3.441556218,14.44744313,4.68146613,0.085550571,1.524259479,1.215851981,2
-0.000790296,0.249170288,3.503802453,15.05772875,4.798933956,0.093825535,-0.557381169,-1.22003533,2
0.002302067,0.245489916,3.575220615,15.94660513,4.970471028,0.130961426,0.630456337,-1.026272497,2
0.001795238,0.254370491,3.236055924,13.96800558,5.159713146,0.142492476,-0.116931028,-1.087487186,2
0.001841773,0.26444462,3.097323838,12.81710444,5.172352491,0.120325531,0.331850016,-1.280004581,2
0.002170382,0.25716415,3.450036323,14.77613892,5.087259565,0.043650442,1.450272287,1.726710137,2
0.000793246,0.231300132,3.83582075,17.73350111,5.118769564,0.068122521,0.421211718,-1.50039431,2
0.00076336,0.234837099,3.614465836,16.32412558,5.233770098,0.125645559,1.055749484,0.532464775,2
-0.001367419,0.241513297,3.553988255,15.80667399,5.334578868,0.104112531,-0.041258101,-0.882997849,2
0.000859105,0.22819283,3.741220103,17.22527781,5.345605959,0.040297421,0.271463765,0.064074038,2
0.003098301,0.226677318,3.864046285,17.89134758,5.395885359,0.097136957,0.969903422,0.086844259,2
0.002790429,0.232219983,3.744764303,16.99905088,5.523601205,0.08705758,-0.389449758,-1.125289798,2
0.001836084,0.2280334,3.715950654,16.88045835,5.581750979,0.061558615,-0.128360455,-1.257282291,2
-0.000587285,0.218159223,3.898741415,18.18259997,5.610821915,0.065165343,-0.849443526,-0.516984036,2
-0.000190717,0.219323568,4.053192105,19.4846082,5.659506389,0.087537117,1.161986007,0.09970902,2
-0.003173394,0.224446886,4.228092199,20.79895802,5.729187393,0.112191819,0.316045158,-0.507460704,2
-0.000502965,0.241689187,3.849935075,17.51836992,6.010996192,0.259505097,0.169353326,-1.601079666,2
0.006510531,0.253352448,3.519679243,15.19645327,6.307966886,0.148598748,-0.075391902,-0.433282093,2
0.00489505,0.249094614,3.591624487,16.01282001,6.312512806,0.148397027,-0.002113907,-0.595819904,2
-0.002454208,0.241277859,3.758223494,17.09145268,6.066126851,0.213900417,0.400771292,-1.330622213,2
0.001323879,0.234945256,3.923879618,18.00369359,5.829045159,0.073685609,0.022787136,-1.355226939,2
0.006734116,0.240708318,3.853819849,17.49299893,5.789542007,0.066596555,0.340698619,-0.938990731,2
-9.14E-05,0.243856092,3.815948658,17.37355093,5.779965864,0.087173554,0.130233282,-1.509088349,2
-0.000913402,0.238944295,3.855428028,17.57005988,5.79812039,0.084385006,-0.249190993,-1.27104005,2
0.000311757,0.228740146,4.06651472,19.29278246,5.789169965,0.05726059,0.658987448,-0.605180595,2
0.000138127,0.224167568,4.282055917,21.26623171,5.778063147,0.088135129,1.43393049,0.582525464,2
-8.23E-05,0.228671298,4.25346889,20.95178722,5.895524652,0.115500771,-0.804911444,-1.183357844,2
0.001258255,0.236410911,4.143024789,19.65387769,5.985364696,0.034179313,0.700277991,-0.067788176,2
0.001996177,0.23882242,4.121257965,19.43094842,6.00080501,0.03729055,-0.279657714,-0.380367184,2
0.002083197,0.230584412,4.277282964,21.03804289,6.000502341,0.021410148,0.074408374,7.242846976,2
0.001163079,0.227628184,4.280889246,21.07962961,5.965633174,0.032067965,-0.322643861,-0.733595932,2
0.001211275,0.226778676,4.294729413,21.09649767,5.906793976,0.039523311,-0.031623441,-0.994269096,2
0.00072753,0.234989409,4.166165793,19.74299531,5.834814181,0.055185822,-0.794599292,-0.42146408,2
0.003030448,0.245139876,4.041661049,18.3869331,5.733654404,0.073179056,0.416439594,-1.261726814,2
0.003040381,0.246928976,4.023990466,18.24641392,5.63856926,0.039861893,0.09368222,-0.841210873,2
-0.001909143,0.24691829,3.985356256,18.04825316,5.57322949,0.038785523,-0.134046373,-0.822325831,2
-0.001126334,0.242213878,3.917882449,17.47048912,5.510256195,0.038863108,-0.115772562,-0.863664264,2
0.003006768,0.243314905,3.8561465,16.75944793,5.459003394,0.033423365,0.678050363,-0.009891525,2
0.000760313,0.261885259,3.417022843,14.20552839,5.387016787,0.077196435,-0.169680719,-0.737249713,2
-0.000338542,0.267435317,3.287133793,13.53552458,5.272564697,0.083708754,1.360927237,1.578135847,2
0.001337886,0.248799752,3.526082841,14.95530126,5.180522592,0.033926013,0.009900086,-0.827451379,2
0.000229261,0.247069944,3.514692531,14.60909381,5.117286355,0.039245904,-0.126426451,-1.083905003,2
0.001690757,0.249244791,3.685252518,15.71002139,5.062479128,0.027230728,0.425838477,-0.424822343,2
0.002346928,0.247589647,3.781752829,16.52818338,5.019451414,0.027385001,-0.163002364,-0.492963894,2
0.000976855,0.252805445,3.755161948,16.24082343,4.965904781,0.036363445,0.00344308,-0.993857825,2
0.00185616,0.245440839,3.828514967,16.75853476,4.905981227,0.034157388,0.109908655,-0.91400775,2
0.00083194,0.25239254,3.646608066,15.57169852,4.869072669,0.018369539,0.350302164,1.846516488,2
0.000935133,0.264894814,3.583763527,14.92110546,4.828349195,0.047766282,-1.3195921,1.190827234,2
0.000894804,0.265405187,3.582463554,14.95487616,4.759195437,0.052575788,0.358423596,-1.279684539,2
0.001923543,0.25703386,3.532320306,14.96348057,4.714395578,0.031800215,0.351071461,-0.392758908,2
0.002246783,0.249657933,3.597888132,15.45954207,4.688802283,0.037817949,0.505662057,-0.581550583,2
-0.001731426,0.252393281,3.739073907,16.44180846,4.646354675,0.035512487,0.77548958,0.028789449,2
-0.000323168,0.252078549,3.765886753,16.84881728,4.59688361,0.03017155,0.043253672,-0.777052138,2
0.000493227,0.250647681,3.795774404,17.08658076,4.552577482,0.025697383,0.29740989,-0.117859667,2
0.001727482,0.255100736,3.819433229,16.83541072,4.543796267,0.016593494,-0.307135878,1.655512256,2
0.001966389,0.250768441,3.864864681,17.11694585,4.54125448,0.019926823,-1.011678429,11.73676369,2
0.00254922,0.247835039,3.958022738,17.70585094,4.504884665,0.027200058,0.201929232,1.364827234,2
0.001553114,0.23862461,4.08924507,19.31280146,4.471551677,0.015261658,-0.857634054,28.70396606,2
0.001599335,0.239451815,4.053633836,19.25334284,4.449899837,0.015046407,-0.830473924,23.03917214,2
0.002278656,0.241928586,4.077673849,19.22114805,4.426800755,0.017456407,-0.475307933,0.614989765,2
-0.00029068,0.235929893,4.190472248,20.17971205,4.394148472,0.0257306,0.098672231,-0.614743565,2
0.000852382,0.235890885,4.187542875,19.88033692,4.358393369,0.019994604,0.53246581,1.999455015,2
0.000385117,0.232093824,4.309134779,21.07653298,4.339782388,0.010808283,0.245321951,22.1209044,2
0.001300474,0.244572727,4.15855989,19.41467634,4.328480312,0.012918302,0.145042724,5.383668111,2
0.00216651,0.243003745,4.205099308,19.79046836,4.307544272,0.017463248,0.081900111,0.981543028,2
0.001000926,0.237877762,4.217076441,20.05615718,4.287852369,0.013087458,0.053471727,16.35569737,2
0.001555605,0.245028771,4.102586745,18.79244447,4.276441574,0.011162793,-0.429563887,23.98979536,2
0.001194325,0.241401811,4.209997178,19.81593962,4.261029271,0.015244847,-0.003095978,3.245118818,2
0.001518585,0.236744641,4.329784288,21.01479548,4.239606149,0.015361407,0.38787987,3.106647445,2
0.001233837,0.237235241,4.328407727,21.03753391,4.225437164,0.010377058,0.986394077,12.61085585,2
0.002449768,0.229928704,4.322489636,21.56697976,4.214642661,0.012293045,0.886026338,6.224366476,2
0.002329383,0.24117513,4.042338688,19.14492024,4.204981995,0.011869909,0.919510983,8.503660593,2
-0.001873888,0.244638356,4.058063638,18.94369009,4.190935843,0.017917653,0.313340537,1.350188344,2
-0.001727875,0.234328307,4.138684463,19.60242489,4.172014781,0.01396952,0.662845677,6.35582775,2
0.001446893,0.237479883,4.111902337,19.27526217,4.158236749,0.013333143,0.550099388,7.632161205,2
0.004783689,0.247344527,4.129381043,19.07034665,4.142240524,0.014632172,0.775159772,4.500520539,2
0.002250033,0.242100934,4.214144267,20.05012597,4.125786809,0.012459281,0.461838839,8.239128719,2
-0.001155036,0.25640501,3.726320576,16.81370219,4.134027154,0.03395126,1.798697249,2.276862308,2
-0.000201508,0.269843388,3.55015992,14.95313539,4.18037529,0.04394161,-0.440755105,-1.345803362,2
0.000895183,0.258292579,3.900538825,17.21893421,4.194195993,0.021365815,0.334529198,-0.284689232,2
0.001796847,0.244234215,4.108717837,19.39783149,4.173928179,0.010341224,0.885726101,13.6654397,2
0.003884739,0.244523038,4.122645473,19.37541567,4.182241331,0.015066175,0.424438038,3.138992235,2
0.001481094,0.245709329,4.143985161,19.47206393,4.188304629,0.012474366,0.261107331,7.495512285,2
-0.001668621,0.238575391,4.271930846,20.83133618,4.17113593,0.016094362,0.31101556,2.827434828,2
-0.000131417,0.237902705,4.272080782,20.8639518,4.151396452,0.012311444,0.311113393,8.458336527,2
0.000201566,0.232210229,4.322055675,21.38874511,4.140868214,0.010304799,1.135207054,24.24424028,2
0.002256134,0.248157745,4.079447447,18.7268337,4.144090108,0.01159024,0.415903104,13.14811693,2
0.00468425,0.2532537,4.035241161,18.26203792,4.143428802,0.011403491,0.280526451,7.282443673,2
0.001866047,0.251152232,3.937989302,18.05002466,4.155667714,0.023466075,0.501861984,-0.337723747,2
-0.001437757,0.243685421,4.117211706,19.59523729,4.168096924,0.018049798,0.256355413,1.178155925,2
4.75E-05,0.231732309,4.425844573,22.07519096,4.155427606,0.014851679,0.819740869,7.657369548,2
0.001730183,0.240806656,4.228089435,20.29050351,4.146446392,0.009710445,0.009050325,35.09699458,2
0.003681329,0.245336543,4.214059529,19.90426129,4.141559873,0.009288383,0.665302477,17.4718823,2
0.000593347,0.230956037,4.45681561,22.3215876,4.135480172,0.010169172,1.053009103,12.78411876,2
-0.002192878,0.233270161,4.351497496,21.43270284,4.12682239,0.010818546,1.200420454,17.38569794,2
0.003415695,0.256545973,3.834455939,16.96404401,4.122839573,0.024228029,0.430276119,2.174580691,2
0.0014407,0.262919069,3.724265271,16.3367548,4.099789047,0.03617052,0.606106634,-0.070893352,2
8.76E-05,0.2629332,3.831210705,16.90773459,4.052875519,0.028157665,0.397569964,-0.837237858,0
0.001689684,0.261307954,3.80480033,16.59513602,4.023629706,0.012678708,0.942813661,11.64963938,0
-4.02E-05,0.251267945,3.943766785,18.13125635,4.013458742,0.010461357,0.423662267,21.00106226,0
0.000787458,0.242660058,4.136766819,20.05377882,4.003342547,0.011692339,0.01605631,10.86062328,0
0.004344288,0.260500539,3.438477555,15.13727249,4.008104706,0.021392511,0.554887613,0.274174511,0
0.00193411,0.265240979,3.21749354,13.38410037,4.0310306,0.021684095,-1.030659532,1.12480387,0
-0.001782702,0.260175943,3.271614823,13.34051692,4.045349666,0.012325878,1.342121045,4.364454529,0
-0.000618413,0.276763665,3.063994222,12.1433179,4.057970592,0.018278418,0.544292673,0.735542148,0
0.002630297,0.271940373,3.362320824,14.20614122,4.051172202,0.02284037,0.353861802,-0.098485477,0
0.001920508,0.247282574,3.898387857,18.18691463,4.020309067,0.019126401,0.643477114,1.64978258,0
0.00059009,0.239320357,4.054400173,19.49459943,3.997430256,0.013889582,0.58775171,4.692319067,0
0.001901341,0.23296858,4.192930791,20.82004298,3.983550753,0.010899552,-1.851485774,68.09604071,0
0.000433195,0.22634438,4.31162638,22.0941001,3.976420266,0.009660721,-2.713389174,96.04072627,0
0.001221876,0.227066163,4.152551674,21.05434271,3.975911713,0.008957248,1.158444675,16.27924887,0
0.00075225,0.235249849,3.892968414,19.33816226,3.977742713,0.009237734,1.517836665,20.73274791,0
0.002290028,0.243229344,3.930042807,18.87399863,3.973874392,0.010193095,1.019831567,14.92015884,0
0.000859726,0.228563802,4.232066744,21.49400215,3.969136592,0.009035009,1.166556509,16.96672829,0
-0.000255511,0.226753153,4.21909116,21.60154777,3.965323966,0.00952102,0.392208111,14.1564701,0
0.000543804,0.225162021,4.239263343,21.85170201,3.959379796,0.009563569,0.348095518,15.76515364,0
0.001008826,0.228218639,4.130720921,20.96433794,3.95352478,0.009448018,0.65603063,10.81360537,0
0.003066729,0.236258444,3.998226791,19.40477313,3.947818756,0.009295211,1.150917335,12.20508788,0
0.003140494,0.231946893,4.045365009,19.85739175,3.943945476,0.008994201,1.484564944,21.09891694,0
-0.000986402,0.22806159,4.143433437,20.70699675,3.942554855,0.009062066,1.363042003,20.61898215,0
-0.001225603,0.228474862,4.23810028,21.33004059,3.939404079,0.009805752,-0.87842783,42.82413438,0
0.001545933,0.229831209,4.262364272,21.38214472,3.934361213,0.00963982,-1.41358734,39.06611833,0
0.002323628,0.228244126,4.268157391,21.46032375,3.927726582,0.010621964,-0.306771472,16.73822007,0
0.000585369,0.2215549,4.342458541,22.61854396,3.919062805,0.010693426,0.383053743,15.42353556,0
-0.000111158,0.224357766,4.334740355,22.46026247,3.909310096,0.011221026,1.104990916,8.36535905,0
0.003223624,0.232074998,4.267473069,21.28808257,3.898627908,0.010934919,1.016262664,12.703192,0
0.000720219,0.221780221,4.376721167,22.84555894,3.889968981,0.009679523,0.611355134,15.09040292,0
-0.0004086,0.221757075,4.292833558,22.25091705,3.881695938,0.010155686,0.720184962,13.67557978,0
0.002316703,0.228801034,4.167220204,20.75122778,3.871089281,0.01116385,0.64600057,6.996933686,0
0.003472229,0.227412343,4.244629685,21.32344402,3.860551017,0.010743906,0.987870528,10.16612822,0
0.00122183,0.221892768,4.287167908,22.02675094,3.851739338,0.010286831,0.942947205,14.30209548,0
0.000960682,0.225761045,4.187543355,21.04600157,3.844380787,0.010188624,1.198432573,13.24658225,0
0.000311698,0.224855741,4.242013485,21.56888785,3.83619521,0.010784129,1.12202783,12.70045937,0
-0.000852166,0.222060332,4.317122492,22.40102072,3.827040209,0.010585697,1.032182006,12.39963265,0
0.002445308,0.232385824,4.128300439,20.39496347,3.812213135,0.015359581,0.19424325,1.741020825,0
0.001509306,0.232095809,4.11022422,20.31070185,3.793621118,0.013619155,0.630730117,3.108002576,0
0.000284062,0.223336998,4.309176453,22.3205051,3.781759099,0.010465253,1.370725702,10.67702895,0
0.002517504,0.230390031,4.186517224,20.77614099,3.777404131,0.009193078,2.116473501,20.68779917,0
0.002802691,0.233711592,4.132121198,19.95228769,3.779474694,0.009952391,1.343038606,13.82354706,0
0.000296173,0.223971323,4.255055466,21.47094213,3.783766065,0.010325665,-1.342717048,70.71414659,0
-0.000523832,0.230968112,4.045085178,19.95620353,3.78437124,0.010023898,-1.389190149,80.73560803,0
0.001888432,0.233211349,4.038116705,19.82315732,3.780184392,0.009986223,1.029047667,13.41787901,0
0.002082792,0.224434593,4.173251137,20.81465262,3.774387632,0.009982271,-0.127145338,27.27059696,0
0.001214611,0.219312165,4.19816252,21.13419835,3.76699137,0.010959544,0.202644333,17.33667406,0
0.001598851,0.217473225,4.301847641,21.98942453,3.759051895,0.010038801,1.231002143,11.83097039,0
-0.000455547,0.216798865,4.377201591,22.98207893,3.75172081,0.010313647,0.835150816,9.995773507,0
0.000222382,0.222569987,4.307418378,22.26622473,3.741791425,0.011402226,0.443149085,6.387188422,0
0.001265998,0.22024008,4.324524562,22.46070835,3.73213283,0.010867087,0.455277123,7.226184483,0
0.001320472,0.218542269,4.341895757,22.66046937,3.723572758,0.011222168,0.857986671,6.98328986,0
0.000906352,0.219384451,4.36108349,22.75006955,3.712434169,0.011773742,0.417911331,7.630009789,0
0.002205329,0.224528412,4.276701511,21.62208949,3.699969319,0.012145062,0.578633227,7.870320461,0
0.002468765,0.22910118,4.198254986,20.61962345,3.687703541,0.011966366,1.246979928,8.828959787,0
-0.000797392,0.229840857,4.143677249,20.70990177,3.677098792,0.011929419,1.433967429,8.054194058,0
0.001252526,0.241625083,3.979635993,18.76940878,3.667755072,0.013161292,0.946429831,6.012122034,0
0.00124035,0.241811219,3.988380624,18.40729629,3.66283602,0.011243976,0.805720089,7.470100471,0
0.000194399,0.245442543,3.966388286,18.3276595,3.656799207,0.01269098,0.489715067,3.10738163,0
0.002210665,0.253232606,3.988307966,18.19409464,3.643754632,0.013181988,0.913416308,5.11004717,0
0.002045412,0.246978625,4.109685222,19.15492988,3.634399305,0.009927393,1.624426642,18.0320771,0
0.001135267,0.241530992,4.099354777,19.58144083,3.62612005,0.011027133,1.027816231,9.823493061,6
0.000541188,0.236688644,4.225013539,20.84110717,3.619799641,0.00935183,1.53035134,16.4672681,6
0.001016765,0.235314717,4.297547715,21.03212654,3.615843201,0.010118371,1.445287933,12.05352273,6
0.001036102,0.22831976,4.341452847,21.90980277,3.610826056,0.009620851,1.00946418,16.52387683,6
7.72E-05,0.223657253,4.350964324,22.60859434,3.60802863,0.009512485,1.089748956,17.61450805,6
0.00140555,0.230767553,4.264971362,21.42976954,3.604163688,0.009746043,0.85458727,14.99223251,6
0.001226951,0.236125227,4.331757967,21.57348383,3.596769932,0.010656533,0.464397578,9.095524441,6
0.000835085,0.239184252,4.283305646,21.08599847,3.585805511,0.011098905,0.407917925,6.760187451,6
0.001312899,0.23461962,4.302346662,21.45993595,3.575706046,0.010114709,0.354673555,8.463550371,6
0.000844724,0.234145074,4.370632423,21.92331865,3.569669941,0.009477553,1.069354845,13.14956624,6
0.003078461,0.236363195,4.326194403,21.46042571,3.567452403,0.009465704,0.716354246,22.7522457,0
0.001958123,0.23305108,4.283347739,21.41640103,3.565927288,0.009602123,0.277930123,20.07832098,0
-0.000373502,0.222283501,4.308182346,22.44247775,3.561228561,0.010231493,0.541357355,17.25612652,0
0.002893943,0.220254056,4.040889393,20.91356886,3.570279857,0.035664655,2.263086286,4.407685984,0
0.002522461,0.238124901,3.858886773,18.5339247,3.630810274,0.061031792,-0.249537646,-1.654152657,0
-0.002373727,0.251897796,3.78860341,17.39816053,3.628523091,0.055941572,-0.027882043,-1.462332288,0
0.000235094,0.257041759,3.807562865,17.17318552,3.583405304,0.017927052,-1.002245505,5.093287568,0
0.000981203,0.25129698,4.184927781,19.6304576,3.586318534,0.009750064,0.911051904,10.47732865,0
-0.000495013,0.237960206,4.49303993,22.47766254,3.583407811,0.009475463,1.146792224,13.35865255,0
0.000991235,0.226084778,4.610005933,24.17887994,3.582125037,0.009643296,1.204683384,14.57874848,0
0.001666829,0.219062392,4.522924204,24.31864955,3.616217422,0.044460713,0.36470287,-1.579705731,0
0.001383859,0.223459837,4.304426899,22.47483387,3.653477642,0.028573522,-1.837226261,3.678046144,0
0.003518149,0.228422981,4.239935765,21.77615685,3.632232721,0.028395547,-0.048214123,-0.990041696,0
0.002673804,0.226900827,4.261895437,21.99527097,3.595743888,0.01927921,0.968926615,2.094150486,0
-0.001741143,0.226337524,4.260958604,22.01080138,3.578197588,0.011112804,0.736935004,9.390732718,0
0.00029461,0.243026458,3.983428299,18.8896645,3.575818253,0.011276012,0.131895109,24.02941432,0
0.00072277,0.260243854,3.771492013,16.79042827,3.590106801,0.027329048,3.101570282,13.58049953,0
0.001272603,0.261153861,3.744709265,16.65272188,3.579500416,0.036251852,1.453926152,4.698585696,0
0.001896364,0.259161051,3.676169608,15.82541747,3.569961057,0.024063122,-0.073312997,0.276260474,0
0.003704453,0.25413945,3.819878552,16.7750551,3.60181912,0.03173476,0.75251332,0.386753259,0
0.001325854,0.237493411,4.20401503,20.45743502,3.618962315,0.027127304,0.327581767,0.330083603,0
-0.002069412,0.226062765,4.35897867,22.56722672,3.606782368,0.022540025,0.364941346,0.882538813,0
0.001276225,0.231870405,4.307831237,21.63637472,3.592031588,0.015797196,0.743038138,4.647059303,0
0.001816576,0.228203656,4.387972705,22.36007151,3.599775423,0.020464461,1.001519676,1.060451287,0
0.002190438,0.225390334,4.418807457,22.62682059,3.607019261,0.017749872,0.833684111,1.668884916,0
0.001995974,0.225463972,4.439919905,22.75936955,3.598547799,0.011092046,0.890860573,9.939249046,0
0.002990152,0.226226399,4.427641302,22.61513308,3.605720466,0.018347487,0.836898381,1.68687332,0
-0.000161976,0.22503802,4.442498216,22.8272345,3.60327628,0.0230292,0.206079389,-0.112250666,0
-0.001834364,0.224888246,4.444487916,22.87534199,3.584769385,0.015789248,1.031813085,2.9739972,0
0.001564649,0.228544167,4.405914995,22.35538912,3.579782595,0.009340555,0.322055756,18.620066,0
0.003701078,0.232022124,4.322413403,21.61344004,3.577863639,0.010515632,0.468523135,11.00911723,0
0.001022415,0.232218195,4.280397145,21.42091472,3.585918372,0.016183344,0.187180474,1.208919043,0
-0.001921012,0.223003618,4.473986879,23.56438558,3.598854501,0.01234181,-0.141736825,7.459402692,0
0.001474614,0.23329652,4.273974413,21.29746413,3.595655877,0.011632975,0.877977344,9.827217146,0
0.002852463,0.234867031,4.212445133,20.77490543,3.587923268,0.009968891,1.595063152,20.1291129,0
0.003464781,0.228627597,4.379017654,22.23960868,3.585976846,0.009583169,2.116589901,29.55858611,0
-0.000287992,0.226553465,4.470238692,23.11855726,3.584377561,0.009735903,1.86927002,26.81255999,0
-0.000883059,0.222638549,4.445441879,23.45880283,3.588400378,0.019309601,2.235231395,6.889883575,0
0.001191919,0.239496432,3.967442026,19.12384522,3.617837143,0.031629229,-0.001862174,-1.055298576,0
0.000730767,0.235687612,3.991362906,19.88378682,3.627362878,0.019684538,0.679748197,0.947060551,0
0.000388072,0.221820466,4.308854527,23.1930685,3.609810693,0.010732412,1.656198724,23.50517531,0
0.000522223,0.225215916,4.238993899,22.11856122,3.600106539,0.012184818,0.677193428,16.90445628,0
0.001714331,0.233005336,4.096539109,20.48675659,3.58958277,0.010685347,0.655504156,19.92337596,0
0.001569737,0.233674648,4.064895523,20.25549,3.58482072,0.009578669,1.112339457,20.35209513,0
0.002805418,0.232280382,4.029823688,20.10973667,3.581867273,0.009870325,0.607789542,18.13250091,0
0.000861609,0.233255228,3.997460287,19.85455528,3.575449153,0.010732231,0.852406441,14.06270509,0
-0.002541896,0.236177043,3.930734502,19.45030516,3.564179938,0.014103808,0.083376874,5.735569929,0
0.003291537,0.249415222,3.952290775,18.3286833,3.544794028,0.018522852,0.368799087,1.393745519,0
0.00532608,0.241318925,4.314569132,20.68672394,3.524421964,0.013995972,0.797300469,4.067398739,0
-0.000568026,0.221084851,4.693563139,24.95782293,3.512754822,0.010299021,0.755338253,10.26248277,0
-0.001051581,0.220972913,4.589362824,24.24284104,3.525380925,0.039700625,1.960733283,3.346239805,0
0.000340112,0.225129266,4.398918754,22.87309678,3.54091023,0.036434169,1.356764529,2.537638969,0
0.003878952,0.222520898,4.347350467,23.06736837,3.528338351,0.016100387,0.019279414,2.021675465,0
0.002925404,0.222717466,4.287931506,22.61559036,3.513777978,0.01075053,0.312983911,14.18894335,0
-0.000594615,0.221462409,4.327644225,22.98033135,3.508503614,0.010613449,1.279084748,25.93964514,0
9.00E-05,0.223641601,4.26366539,22.44531731,3.507182693,0.010525541,1.367745568,27.81285114,0
0.000352177,0.224650687,4.230721527,22.13910794,3.502834484,0.011752108,0.556427175,13.55285139,0
0.003092717,0.229446488,4.183054775,21.34065461,3.495137732,0.010440025,0.249519602,26.3886488,0
0.00142424,0.223605171,4.234493374,22.30501428,3.492012678,0.010034145,0.782830607,25.64719372,0
0.00099287,0.225563216,4.167557194,21.56386957,3.490080534,0.010485566,-1.160655694,73.90423612,0
0.001247334,0.232420219,4.046060984,20.1867319,3.489357921,0.010534958,-1.117369378,72.84531528,0
-0.000536126,0.224160585,4.139914752,21.58696846,3.488093349,0.010113208,1.783671353,24.10462142,0
0.001150354,0.232727589,4.028210046,20.05307375,3.486386217,0.010000163,1.77866604,35.37881619,0
0.002762466,0.232492859,3.992828963,19.78495515,3.484953853,0.010109659,1.29129202,34.72625259,0
0.000742767,0.224098622,4.145839776,21.49600982,3.483751896,0.010581344,-2.759523388,117.1056016,0
0.000507228,0.232158927,4.048867852,20.14704622,3.484347534,0.010761654,-2.14085918,108.7815745,0
0.001936177,0.239379867,3.89338926,18.57757703,3.48587532,0.010144457,1.482364425,22.59839441,0
0.002551477,0.239276228,3.931267685,18.80734242,3.507056318,0.044088372,1.949823231,2.487082047,0
0.003690491,0.248984579,3.970593373,18.17009959,3.561794281,0.053441809,-0.355931139,-1.389992878,0
-0.001819918,0.243904317,4.23268431,20.27472315,3.574986485,0.027307816,0.329703251,-0.22997966,0
-0.000833097,0.233170541,4.449689695,22.60764839,3.542025648,0.019079267,-0.173225793,12.44107599,0
0.003294447,0.241313102,4.247799078,20.46613014,3.530844716,0.018188529,0.253522137,14.11113861,0
0.000195249,0.234680837,4.360602078,21.75787135,3.517277799,0.021684882,1.040849662,1.657831158,0
-0.000537715,0.223294437,4.591433788,24.24418687,3.500611932,0.010866825,1.244523062,21.2042546,0
0.001208921,0.219582582,4.613801698,24.70486139,3.494276428,0.011012565,0.859257963,18.36859417,0
0.000951285,0.219692707,4.578070928,24.43960404,3.487118966,0.010639739,0.769607573,15.21817716,0
0.000158628,0.232218501,4.366349214,21.95516572,3.483610208,0.009735593,1.077350861,18.15403824,0
0.003528881,0.240070684,4.218329709,20.37243519,3.484050696,0.009670413,0.591587332,14.62244682,0
0.001258817,0.229980948,4.41772223,22.46765827,3.484802682,0.009645492,1.476317331,23.04241903,0
0.000218824,0.228289106,4.467089959,22.8700787,3.482701274,0.010260665,1.772957378,23.83234721,0
0.00245154,0.225795351,4.479154337,23.12317622,3.47982423,0.010179693,1.872653409,23.34321604,0
-0.000150081,0.218441566,4.616600186,24.85440479,3.479610825,0.009992443,2.088298672,24.22331842,0
0.000222676,0.219369765,4.652611541,25.09057528,3.476576451,0.010818755,0.720630331,26.20267815,0
0.002204472,0.22854765,4.477679366,22.96340378,3.470455061,0.011005219,-1.165189935,57.41435607,0
0.001090628,0.229530289,4.410596413,22.48427736,3.466267559,0.010336164,-1.050444575,59.29622744,0
0.003154822,0.229350106,4.394358503,22.41188243,3.465315519,0.010078082,1.652407377,22.02034085,0
0.002852875,0.230244445,4.40625008,22.37858338,3.466864014,0.010189187,0.43575287,38.08642804,0
-0.001326351,0.222178273,4.555357019,24.02967822,3.470400075,0.010345051,0.310331265,36.71137615,0
0.000474021,0.226491269,4.496303001,23.15508725,3.471757671,0.010028127,1.231744709,19.35370951,0
-0.000278235,0.224663692,4.562079262,23.89654128,3.469593757,0.010118403,-0.499385991,31.99976136,0
0.000408554,0.216667893,4.708274742,25.63849578,3.467399924,0.010005361,-0.552120605,33.02759507,0
0.001712854,0.224272355,4.540917299,23.6571494,3.46485405,0.010079265,1.108117397,25.36028724,0
0.001452765,0.2253062,4.494654027,23.30259314,3.462087468,0.010330564,1.418277365,25.60624246,0
0.002965622,0.225382475,4.485308814,23.20717471,3.460827201,0.010077965,1.638963773,23.78168055,0
0.000821875,0.22546306,4.488721819,23.24086858,3.459341594,0.010512688,0.145838566,43.87733222,0
7.48E-05,0.225295125,4.478963583,23.21403354,3.456233978,0.010350607,-0.218168391,37.77683374,0
0.006585408,0.230946882,4.340299816,21.60606768,3.466405378,0.041129652,3.373230046,11.83325711,0
0.002028881,0.236714759,4.116719113,20.14333987,3.527495139,0.07261608,0.925174332,1.582793137,0
-0.004366686,0.235578507,4.133431121,20.81650624,3.55275928,0.044535543,3.277395711,14.48573661,0
0.000578653,0.233836748,4.2326578,21.43705875,3.518226406,0.015474125,0.51986702,3.013664665,0
0.002474219,0.231507555,4.199613553,21.27683566,3.503641619,0.012271636,-1.727152696,69.57397448,0
-0.000261887,0.223842572,4.252811192,22.40108779,3.496480996,0.011777165,-2.07553818,78.14994211,0
0.000129416,0.226086546,4.173005857,21.73292663,3.492964935,0.010074405,1.046624468,28.64833995,0
0.000971414,0.227421628,4.128468163,21.33411813,3.491933659,0.009704224,1.574208588,23.20628745,0
0.00302487,0.235941228,4.033675176,19.94977487,3.490005439,0.009689315,0.703142726,19.35158001,0
0.002452443,0.237302279,3.997449195,19.66964204,3.488843754,0.010155453,-0.611554042,44.10465676,0
-0.001713508,0.229432352,4.087711657,20.99024872,3.491033009,0.010575666,0.11809272,45.56927677,0
0.002147108,0.237522203,3.98923668,19.60687831,3.49270183,0.010061289,1.84590064,35.37574032,0
0.001469153,0.23850714,3.978624096,19.49673111,3.492091751,0.010639935,-2.476385298,117.358241,0
0.000569203,0.236069452,4.020797962,19.91999257,3.493024717,0.010424631,-2.543123409,121.9837881,0
0.002103202,0.24384895,3.903951427,18.55639902,3.492189462,0.009795645,1.756593808,23.0687374,0
0.002982435,0.244888897,3.90693596,18.54995725,3.489971815,0.009917597,0.746999705,26.26004154,0
0.001025109,0.236128892,4.04400621,20.12137067,3.490052468,0.009938453,0.031382607,38.60083698,0
-6.83E-05,0.227702218,4.138386383,21.42360428,3.489224843,0.009845715,-0.133418256,38.75738268,0
0.001715757,0.234931165,4.017776748,19.91485329,3.48860005,0.009779162,0.501302228,29.07584365,0
-0.000407913,0.235812953,4.004342598,19.8566391,3.488447298,0.010034609,0.804426464,29.85547234,0
0.000557805,0.227917872,4.103593155,21.18815201,3.48569919,0.010421932,1.181993723,24.825747,0
0.000977783,0.226676313,4.162128431,21.5839103,3.481245041,0.010571475,2.165350992,25.32081464,0
0.00242722,0.235486488,4.036170895,20.00531635,3.478489413,0.010179682,2.033375437,26.24817901,0
0.001407349,0.23632839,3.999834954,19.71429955,3.476754434,0.01009647,1.229347381,30.09989858,0
0.001278259,0.236340342,3.978788586,19.63860538,3.473503167,0.01010754,0.953717254,28.83940193,0
0.000307892,0.237046755,3.982462317,19.61343195,3.472823388,0.009799252,1.149485905,24.05469956,0
0.00014995,0.237724695,3.992741937,19.63078776,3.473780877,0.009743769,1.863563927,29.98064279,0
0.002675838,0.239302823,3.961925967,19.22708898,3.472625732,0.010088761,1.236899532,31.83774878,0
0.000905607,0.240525761,3.949736397,19.04492627,3.47868576,0.017510599,1.13921563,3.345258626,0
0.000258447,0.245471235,3.881750635,18.28050155,3.49073688,0.016902603,0.092785722,0.655370183,0
0.001334963,0.244009521,3.903762567,18.29047002,3.500025831,0.024271002,2.349882353,12.00150255,0
0.000318976,0.23727999,4.082203697,19.74917644,3.509137562,0.027409197,1.264519046,5.754171789,0
0.000112564,0.238552181,4.309264516,21.07212341,3.509173911,0.016705634,1.246971369,7.592841358,0
0.004810449,0.253178381,3.888799388,17.63742128,3.502433559,0.01681969,0.052985147,11.83616001,0
0.002090822,0.246155654,3.832102717,17.67612367,3.498016684,0.017238375,0.524252068,11.18324008,0
0.000751314,0.23757386,4.141026051,19.80872882,3.497127478,0.01106331,1.06496946,15.48858784,0
-0.002185488,0.239112862,3.910482077,18.47523814,3.500729588,0.021140757,0.68979426,6.647420575,0
-0.001149549,0.236396994,4.048966482,19.79167328,3.49963319,0.021131348,0.816758482,6.71229412,0
0.003129207,0.23182053,4.47628862,22.72878829,3.494085148,0.011004595,-1.246113737,63.48154919,4
0.000262599,0.221623942,4.702787189,25.10969111,3.49114794,0.010424546,-1.97724807,75.22969568,4
0.004622086,0.223256628,4.704456389,24.87787885,3.489687129,0.010394391,-1.319506615,76.85742975,4
0.00333573,0.22615923,4.620504823,24.21623625,3.489470836,0.010292894,-1.427961568,75.81803964,4
-0.001239173,0.210315668,4.919256683,28.20010365,3.491729191,0.009942245,1.4483468,19.6734837,4
0.000921236,0.205805791,4.999906221,28.99200625,3.492684228,0.009772614,1.72830104,20.59744182,4
0.003315432,0.214184725,4.818551007,26.5954922,3.491273935,0.009830108,1.433364366,20.93497651,4
0.000983695,0.217245462,4.745483567,25.86960318,3.48976544,0.009612989,1.52221664,19.60363731,4
-0.001291358,0.219074501,4.702882569,25.5195612,3.490280315,0.009229227,1.265432266,13.48562748,4
0.00213637,0.224216593,4.640454746,24.42362088,3.489823696,0.009561197,1.303926138,14.12036404,4
0.000279524,0.223452392,4.653359807,24.61514296,3.48696616,0.009792951,1.051827456,19.07076704,4
-0.000519398,0.217280388,4.750065271,26.05234539,3.48589107,0.009506324,0.575979398,18.09423193,4
0.001598995,0.223606829,4.654958168,24.8989441,3.48633619,0.009670185,0.970135932,15.28056776,4
0.001214159,0.234831884,4.420945549,22.40126516,3.485504968,0.00971282,0.904206783,14.19201973,4
0.001243103,0.222011359,4.629955114,24.90938107,3.487241255,0.010196413,-0.091202485,30.21601251,4
0.001883632,0.220572752,4.633630873,25.40554172,3.496337128,0.012233387,0.263689308,20.38834121,4
0.001830087,0.229293422,4.458293074,23.26844879,3.502857753,0.010422649,1.121918512,19.93244807,4
0.000181418,0.224594113,4.574872292,24.27291704,3.509785625,0.012403054,0.748719166,12.00749527,4
2.60E-05,0.225538076,4.576929355,24.23701986,3.514118631,0.010088572,1.205313765,22.97642497,4
0.001111496,0.225032195,4.623440799,24.57523909,3.511835262,0.009350461,1.140061164,14.43702216,4
0.001821867,0.222522795,4.658016189,24.97483879,3.513862937,0.009907855,1.002190993,14.94084719,4
0.001381348,0.230198298,4.453321234,22.83024927,3.515089144,0.010080466,1.104719762,18.55779819,4
0.001405727,0.222985469,4.630714228,24.78868262,3.512887791,0.010266444,1.425003734,17.97456705,4
0.002169152,0.221101252,4.712466605,25.46707153,3.513291822,0.009908751,1.512582409,13.14602944,4
0.000667014,0.225619474,4.587630325,24.35503327,3.516830281,0.009865121,1.941677048,17.66238581,4
0.002872997,0.227562568,4.535558665,23.75808034,3.518409729,0.009815671,1.457432469,20.52964787,4
0.001419394,0.225726919,4.536209244,23.89233283,3.517667007,0.009521701,0.687325616,14.95999506,4
-0.000909733,0.225867168,4.541162912,24.01757303,3.518815449,0.009580393,0.642906235,12.70733103,4
0.003039963,0.236197764,4.373015653,21.95092538,3.521151624,0.00981453,1.240609412,13.66246987,4
-0.000129044,0.220389705,4.668320105,25.5147275,3.521728897,0.009962176,1.371947339,19.48009523,4
-0.001029157,0.217404011,4.747965254,26.3336978,3.522950309,0.00989619,1.427798903,24.49231419,4
0.001650127,0.230608063,4.527169544,23.26696324,3.524004963,0.00954514,1.664270959,17.70658371,4
0.002344038,0.243174028,4.280056781,20.71805778,3.526806041,0.01001411,1.35527498,11.51901723,4
0.001778549,0.229501822,4.520027971,23.55835806,3.5324646,0.010147458,0.787742177,12.93464951,4
-0.000421156,0.217511136,4.801094475,26.61397681,3.53468568,0.009868466,0.464811336,22.95212665,4
0.000994433,0.227850014,4.575334764,24.10914018,3.535673087,0.009949374,1.036184327,22.23996455,4
0.001027006,0.230913338,4.483691958,23.30970325,3.538924898,0.009648985,1.848863858,17.78144536,4
0.000119581,0.221500795,4.627517468,25.22620788,3.540392685,0.009870377,1.4497293,21.21285596,4
0.002024682,0.22076046,4.634820891,25.25471204,3.53973078,0.009884238,1.166408366,16.65123442,4
0.002772675,0.239723781,4.301703756,21.31477929,3.539726639,0.009814029,0.989993339,13.63265928,4
0.000970237,0.228819461,4.514832571,23.63738693,3.539374488,0.010274476,0.127696465,41.75662739,4
-0.000467906,0.216289576,4.759866604,26.38816029,3.537007468,0.010280873,1.077367618,45.13547035,4
0.004325487,0.239817292,4.303196781,21.28611522,3.53726714,0.009655888,2.247126537,20.34078598,4
0.001173268,0.23230875,4.436736247,22.91303254,3.536906324,0.009982702,1.991115455,16.6989608,4
-0.002301675,0.232410776,4.450316817,23.10080865,3.53617472,0.010055792,2.336220209,20.94000894,4
0.002256611,0.241735574,4.309802779,21.2721962,3.536883,0.010277465,1.137540426,36.82441455,4
0.001229364,0.226396196,4.599982155,24.26202434,3.536225346,0.010163185,0.335122552,35.37856459,4
0.00048245,0.226945629,4.547614827,24.0435937,3.538729313,0.009940217,0.84887936,14.7977328,4
0.001725396,0.228591952,4.484690958,23.41745514,3.541850608,0.010881793,-3.647543669,146.2721997,4
0.001717438,0.225779207,4.561845736,24.02775161,3.540790667,0.010727748,-3.905873021,152.1707069,4
0.000288698,0.22491849,4.595640314,24.40322854,3.53717902,0.009482919,1.160847139,16.7490224,4
0.002160893,0.233738899,4.388718586,22.19869959,3.535775321,0.009753445,0.75078125,23.47986732,4
0.002518106,0.225097366,4.556240237,24.06561161,3.53660747,0.010098021,-0.222447815,31.09132889,4
-0.000493365,0.217042738,4.761207292,26.33670965,3.537711716,0.009910669,0.815369919,30.75045282,4
0.000980386,0.232445293,4.473324656,22.79799132,3.53854866,0.009727085,2.140387069,20.87141069,4
0.002777017,0.229106247,4.548719554,23.49490042,3.538724518,0.009768579,1.025682931,22.13315396,4
0.002129248,0.228371399,4.471555981,23.45452609,3.542898614,0.011017307,0.235915405,15.25006782,4
0.000722959,0.227629137,4.489368774,23.53814344,3.544114195,0.01079105,0.921370081,14.41458079,4
-0.000608773,0.218559657,4.755405551,25.81466079,3.545588575,0.011085568,1.233577295,9.429101426,4
0.000619237,0.226225866,4.609872004,24.10945609,3.555623736,0.011513509,0.752016196,6.310838356,4
0.001513779,0.236532522,4.435566551,22.13486076,3.564315414,0.01026028,1.593589511,14.82362207,4
0.00277344,0.229544301,4.58122657,23.70742485,3.568998664,0.009943532,1.939080991,19.43944843,4
0.001833415,0.225387558,4.674563287,24.63290414,3.572626277,0.01003031,2.575336295,26.0614501,4
-0.000670114,0.228845149,4.554698923,23.59927943,3.574938365,0.01012489,2.673940562,33.79242032,4
0.002889954,0.229556095,4.522711232,23.16474003,3.574814333,0.009948992,2.048624051,29.45524269,4
0.000335063,0.225980113,4.620098339,24.14383815,3.572739247,0.009819939,1.261400539,19.45692233,4
-0.001297021,0.225177233,4.650661407,24.46220091,3.569140571,0.009843147,0.640145451,16.27368915,4
0.002187868,0.229618092,4.568925314,23.64434818,3.566115897,0.01008424,0.701132357,18.94449336,4
0.002140202,0.225342884,4.621123631,24.52173228,3.564355632,0.010407866,-0.350231636,44.51310685,4
0.000648697,0.222002746,4.668491431,25.03013663,3.570123291,0.01302879,0.123187397,17.08995697,4
-0.000709102,0.229669278,4.549036876,23.49642944,3.581220736,0.01168137,0.419250324,7.563623625,4
0.001518409,0.238466261,4.412068049,21.79273179,3.586327362,0.010181156,-4.080655151,167.0800075,4
0.002073552,0.239448715,4.400094565,21.62531212,3.587091064,0.010165841,-3.847296604,166.5077007,4
0.00037194,0.246848787,4.292894577,20.60856532,3.592452567,0.012008311,0.801181079,8.01451663,4
8.54E-05,0.246115901,4.294808597,20.63792641,3.597258704,0.010879119,0.982979688,11.82567983,4
0.001485142,0.244577715,4.32767858,20.9135657,3.596770041,0.009352852,1.461766259,14.68844946,4
0.001360964,0.235649838,4.499439856,22.7948057,3.597772326,0.009547602,0.836149068,14.5848407,4
0.00134731,0.225723992,4.650136159,24.7306222,3.597614942,0.009672073,0.535453819,14.68875443,4
0.001002169,0.217969621,4.782930287,26.54816251,3.595026616,0.009502231,0.356721473,12.7663091,4
0.001414699,0.222368413,4.710613274,25.26820276,3.595238222,0.009435617,0.467108896,14.9572576,0
0.003515161,0.228659459,4.58569756,23.70597376,3.595912225,0.009801205,0.986833827,20.36806403,0
0.002408857,0.230944734,4.420168923,22.60227647,3.601648331,0.016439173,1.350650394,8.82885463,0
-0.000502886,0.237620484,4.300138907,21.48575952,3.634144211,0.032163464,0.128465874,-0.5478093,0
-0.000267197,0.235561731,4.432336781,22.43888336,3.681869725,0.02714221,-0.288320106,-0.235173353,0
-0.001875746,0.248384649,4.065127729,19.01658006,3.67675002,0.043251041,-1.160297883,0.314694783,0
0.00242085,0.255863339,3.737206298,16.68576575,3.6056827,0.055569554,0.692558526,-1.018898502,0
0.005406025,0.255297523,3.793376037,17.14256282,3.560170146,0.010778294,0.159679156,12.75721941,0
0.000779794,0.24867109,4.009761522,18.78262752,3.557816914,0.009652583,0.349558293,18.7400611,0
-0.000956805,0.233892457,4.216929926,21.13803564,3.554448645,0.009841326,1.471448522,14.04484635,0
-0.001043636,0.234181634,4.171709485,20.82557452,3.551752853,0.009609439,1.481658015,17.86342681,0
0.003781906,0.244265443,3.989146669,18.91245087,3.54844393,0.010174802,0.68532399,11.43608791,0
0.002554583,0.24656568,3.998085506,18.84218595,3.543897629,0.009992912,1.153022317,16.94080787,0
-0.0008501,0.238347388,4.137772479,20.3837107,3.539281409,0.010235998,0.643623906,15.62369297,0
0.001789503,0.236798278,4.117622617,20.33442457,3.533128684,0.010052908,1.058539566,13.24785687,0
0.001924609,0.243397177,4.030318039,19.19524227,3.526211875,0.010469277,1.262887391,13.08746677,0
-0.000991457,0.235862074,4.132191821,20.4816096,3.519421223,0.0101329,0.954761406,9.88013877,0
0.000794462,0.235661441,4.107617677,20.36720256,3.513234384,0.01017653,1.272980211,14.67200077,0
0.002871323,0.242073281,4.031579766,19.31109182,3.509229115,0.009671081,1.638955424,17.30535825,0
0.000804533,0.241280531,4.07448136,19.65482833,3.506865365,0.009559533,1.595738973,15.44203995,0
0.000517443,0.240455331,4.120652261,19.98481381,3.504276984,0.009593246,1.321239375,20.16774307,0
0.001643319,0.240253199,4.124135547,19.96401427,3.505269187,0.009966011,1.13286451,16.09216915,0
0.002102025,0.233494558,4.175425699,20.88401633,3.507629068,0.009813683,1.584938697,17.91072293,0
0.000885766,0.241073566,4.077730604,19.70599892,3.508092117,0.009757892,1.531863279,20.62589332,0
0.001428752,0.24029484,4.096712266,19.88936153,3.505670493,0.010039321,0.896819584,15.15983572,0
0.000664451,0.224832693,4.306812774,22.57055187,3.502858625,0.009528886,1.576995127,18.30044314,0
0.001089137,0.232286857,4.160772375,20.87655468,3.50139449,0.009463604,1.791215633,20.50903014,0
0.000275109,0.232917112,4.146996667,20.77490702,3.501480103,0.009414233,1.822553621,24.62807192,0
0.000828696,0.236090198,4.131274998,20.46273273,3.504970496,0.010537199,0.360397992,40.28076439,0
0.004167938,0.241735708,4.052668434,19.43892459,3.507313265,0.010196293,-0.11952314,39.95266317,0
0.001105225,0.231910548,4.188302925,21.09510393,3.505212729,0.009798705,1.783872352,15.69930274,0
-0.000650561,0.225212435,4.272041831,22.27512915,3.502790342,0.010576171,-2.169041515,116.6519293,0
-0.009378021,0.250037462,3.305448843,14.38420501,3.505850329,0.011635848,-2.138413043,85.9924272,0
-3.46E-05,0.258364458,3.270501164,13.82519856,3.505651311,0.012491545,1.01300365,11.21901547,0
0.005603132,0.240111387,4.125196023,20.13979492,3.50418832,0.012414917,1.484329866,8.330180705,0
0.004243999,0.246079582,3.852143874,18.07042198,3.510506494,0.017554343,1.855796255,5.614670419,0
0.006520549,0.262206605,3.481679471,14.72498462,3.516207722,0.016521758,1.612281165,5.45241603,0
0.001503911,0.26746616,3.137893116,13.11364472,3.519575119,0.010076759,1.280614507,11.52274415,0
