mean_ecg,std_ecg,skew_ecg,kurt_ecg,mean_eda,std_eda,skew_eda,kurt_eda,Label
0.001605678,0.303403669,3.275819006,12.68341197,1.353255354,0.010230318,1.725842113,10.28460586,0
0.000146517,0.298966452,3.440349702,13.69479957,1.356628309,0.010343901,1.239460062,9.402779403,0
0.001511647,0.298331983,3.536324848,14.25711506,1.361461094,0.010572812,1.282215919,7.947828624,0
0.000296271,0.299981944,3.542598755,14.18746066,1.365400096,0.010433165,1.968960941,10.1274592,0
0.000494725,0.30655347,3.301903627,12.87277912,1.367440033,0.010456251,1.838514336,10.07333507,0
0.000529364,0.305006876,3.290003973,12.88383265,1.370359203,0.010595677,1.758438445,10.14057799,0
0.001274035,0.299318377,3.514137485,14.09087452,1.375183214,0.010545954,1.359981802,8.495480272,0
0.001539603,0.300301018,3.511711526,14.06364558,1.379498836,0.010300423,1.3088174,7.643515174,0
0.001322381,0.300569381,3.519032571,14.07305742,1.383066014,0.01044702,1.476933773,6.874292239,0
0.006012301,0.305623006,3.466435813,13.40311552,1.385562788,0.009897176,1.637653616,7.944937307,0
0.001043629,0.304087278,3.510276343,13.74713977,1.387185505,0.010066904,1.478100104,8.115201054,0
-0.001035939,0.293747869,3.710155085,15.42700338,1.390794046,0.010721912,1.211409338,6.969109736,0
0.003622644,0.311792688,3.472695573,13.11736301,1.398574012,0.011593847,0.983943623,5.091145037,0
-0.000660017,0.317993982,3.326419668,12.24608124,1.403716169,0.010035522,1.059126231,15.40765967,0
0.00290128,0.298202652,3.469347833,13.9738342,1.404684557,0.010169463,1.067326912,15.91527331,0
-0.000286678,0.280877746,3.681091705,15.92627069,1.40184773,0.011268946,1.0137399,6.322573185,0
-0.003567496,0.270957327,3.884842238,17.7395717,1.402986472,0.011585011,0.493883159,5.238620786,0
0.001270137,0.272635387,3.90301992,17.6956232,1.409628623,0.010239965,1.189976083,11.64552247,0
0.001947144,0.282636949,3.750042977,16.21734402,1.411801311,0.010294156,1.22025467,12.17439241,0
0.000562166,0.293651121,3.655229784,15.04865703,1.413211169,0.01040759,1.182766174,10.37069731,0
0.000299561,0.285131919,3.747821453,16.04621472,1.41744303,0.010991586,0.854775193,9.810494317,0
0.001143461,0.285663394,3.67699175,15.65274458,1.422680174,0.010123703,0.980182274,13.89947596,0
0.000307643,0.296686205,3.558928267,14.41232875,1.425997816,0.010081799,1.582450867,8.579752411,1
0.002818386,0.287432734,3.628735893,15.32396872,1.42998085,0.010555839,1.60542338,8.71891554,1
0.001417243,0.286666074,3.617548964,15.28031133,1.434639849,0.010355462,1.389350205,8.690449148,1
0.000826832,0.285911385,3.65056016,15.47858064,1.438673455,0.01001297,1.209361942,8.252071398,1
0.001386475,0.287297812,3.651209129,15.43322874,1.441873714,0.009981705,0.954640167,8.422604579,1
0.002943224,0.298584883,3.549577145,14.26842435,1.445049013,0.010195594,1.05309857,9.971479528,1
0.002259639,0.300935984,3.489825512,13.91564785,1.448590851,0.010154109,1.586303865,10.19061755,1
-0.001836633,0.30947057,3.14962301,11.95220232,1.451748058,0.009969002,1.614531115,10.2102833,1
0.000359665,0.306498037,3.249400509,12.60999559,1.453468159,0.009932982,1.418673452,9.427902585,1
0.004691437,0.301555506,3.567129712,14.06404678,1.455371257,0.009926817,1.522334596,7.750794832,1
0.000349542,0.292035276,3.588884879,14.6413332,1.459073421,0.010078646,1.625690662,8.698919605,1
-0.002540248,0.286338902,3.659981925,15.57290638,1.463104684,0.010225074,1.591823273,9.636446631,1
0.001712958,0.295215444,3.609262133,14.65668581,1.466797365,0.010421978,1.553352263,10.22138792,1
0.003594387,0.292163438,3.686268707,15.17173822,1.46978302,0.01035802,1.460364401,9.497050623,1
0.000897001,0.272111605,4.004668714,18.28234926,1.473532649,0.010595143,1.45256643,9.747879281,1
-0.001386475,0.276079635,3.91217174,17.55568576,1.477351706,0.010225723,1.896029192,12.1128164,1
0.00106041,0.286464764,3.762363352,16.03817118,1.479742868,0.009996799,1.75232272,9.683701143,1
0.001760873,0.286912848,3.778852244,16.11348492,1.481689181,0.009978763,1.771297066,12.20087339,1
0.000417239,0.298741963,3.642565241,14.74345261,1.484163829,0.010027027,1.633169594,11.83344109,1
0.000531503,0.298486055,3.549317687,14.37334436,1.485673305,0.00975575,1.24004943,7.785082045,1
0.002160605,0.294345807,3.596804182,14.78082352,1.487333298,0.009982104,1.337109194,6.994286079,1
0.001278554,0.299538987,3.626380878,14.63702558,1.490839222,0.010178443,1.738897755,9.397786775,1
-8.01E-05,0.304323617,3.582070466,14.27125766,1.493780845,0.010158061,1.171655273,18.63285682,1
0.000194654,0.297917703,3.615723457,14.75632801,1.498939732,0.011010036,0.379064174,23.43628786,1
0.001024612,0.288463117,3.699535807,15.7351301,1.50246048,0.010513568,-0.0759245,35.38305243,1
0.001462797,0.29292012,3.639808861,15.23088061,1.504418782,0.010488476,0.486290208,23.61165018,1
0.002326852,0.292244296,3.613128278,15.14399122,1.508613695,0.010126618,1.542862339,9.287928173,1
0.00116355,0.290172793,3.695434204,15.64364976,1.511591884,0.009954267,1.306696003,9.42183036,1
0.000831678,0.301762026,3.603238933,14.54627197,1.514477812,0.010004496,1.106331609,8.536199745,1
-0.000107267,0.304079042,3.581608396,14.32567641,1.517903246,0.010164466,1.243012014,10.13501819,1
-0.000283487,0.30484892,3.528013903,13.97948721,1.52147244,0.010224127,1.363853771,9.525383487,1
0.00099867,0.305396422,3.510836924,13.85547637,1.525056349,0.009990033,1.416052968,8.406169251,1
0.000424949,0.305432275,3.544554063,14.04571886,1.528543963,0.009997066,1.027657983,8.629568584,1
0.001454779,0.305892193,3.527629057,13.94931607,1.531948253,0.009856572,1.22483097,9.678064553,1
0.002165856,0.306252658,3.51618096,13.89439032,1.534381866,0.009739085,1.452605915,9.457790478,1
0.005241139,0.307051278,3.575337219,13.89795637,1.536002023,0.009908979,1.336146132,9.392048155,1
0.001263192,0.292179755,3.756691478,15.47107484,1.538476236,0.009958307,1.440255958,8.467330217,1
-0.000864722,0.303163444,3.583403427,14.20442774,1.543357032,0.01040638,1.325327143,7.233792521,1
0.001514603,0.317062297,3.416271971,12.77309918,1.547926004,0.010028087,1.24089924,9.082891471,1
-0.000296291,0.302719368,3.526011779,14.02859585,1.551214382,0.010069966,1.461246063,12.18357322,1
0.00149879,0.288187863,3.692056091,15.63536246,1.554294532,0.010162394,1.55370713,10.6883328,1
0.003648049,0.286446904,3.759013657,16.04007866,1.557655498,0.010377625,1.124114156,7.922326976,1
-0.000592529,0.289323485,3.744783699,15.8599495,1.561570304,0.010113579,1.100788217,8.716907357,1
-0.001997452,0.290967847,3.72131859,15.70909527,1.564774268,0.009825506,1.088038782,8.301717799,1
0.002100645,0.299495544,3.645105716,14.76881625,1.568232618,0.010016946,1.451261948,9.595971964,1
0.000960846,0.288504851,3.813691723,16.25120053,1.571956308,0.010118294,1.8758245,11.4047685,1
-0.000813727,0.289479192,3.836770893,16.35586895,1.574005617,0.009823312,1.614891701,10.69966234,1
0.001928617,0.297863222,3.728784132,15.24525207,1.574560874,0.009774052,1.245283796,8.090549186,1
0.001826196,0.297871311,3.702729808,15.07032278,1.576383482,0.00967038,1.069425871,7.510508775,1
0.000586833,0.300196339,3.657712125,14.74987939,1.579075623,0.009325716,1.244111819,8.580945725,1
0.001111071,0.300686616,3.631742906,14.59456953,1.581383133,0.009498104,1.596161382,9.802489646,1
0.003630524,0.300746758,3.63911772,14.65090069,1.584247753,0.009934434,1.871164323,10.3657472,1
0.003146981,0.301710205,3.633025648,14.59350487,1.587498638,0.009715168,1.59424204,8.469346652,1
-0.00215264,0.303909531,3.610326319,14.39959289,1.590893882,0.00955168,1.181969009,8.492425035,1
-0.000361417,0.301922215,3.627627718,14.54067508,1.594085148,0.009810309,1.423226929,9.270867614,1
0.001008957,0.303631521,3.59263565,14.32886751,1.596220071,0.009724529,1.711932323,9.692132296,1
0.000899891,0.307215734,3.540535414,13.99476907,1.598947961,0.009874886,1.550501387,9.188504232,1
0.002001088,0.310755638,3.507214291,13.45901774,1.601428659,0.009679634,1.432038409,9.579201551,1
0.001664076,0.296837218,3.682512419,14.96808791,1.605293601,0.010390057,1.352424063,7.732474099,1
0.000487505,0.290562673,3.745686783,15.78931609,1.611434773,0.010305699,1.251386608,7.274335453,1
0.000847621,0.303243258,3.587863485,14.33914715,1.616453607,0.010008038,1.133431943,9.09834573,1
0.000997787,0.300469299,3.651955134,14.79746984,1.618756975,0.009812762,1.636517494,11.13346629,1
3.11E-05,0.287792393,3.840736094,16.42164849,1.621058982,0.010257127,1.266199768,13.16805841,1
0.001361115,0.290093208,3.816535774,16.18214765,1.624938311,0.01061098,-1.334234623,73.56027807,1
0.000698737,0.30086074,3.673699758,14.92058313,1.619898823,0.0166475,-0.989104955,10.90792789,1
0.004044918,0.29523846,3.746707454,15.45752608,1.611749704,0.015232742,0.255345727,2.040280122,1
0.001695275,0.284735111,3.908231328,16.91082447,1.615197699,0.011439402,0.797123113,8.55905957,1
-0.000842481,0.288420457,3.888529829,16.73236112,1.621945517,0.009830619,1.465879366,11.66896745,1
0.002166295,0.287712499,3.87461433,16.72278274,1.625052261,0.009513606,1.593155374,10.84369479,1
0.002568741,0.30198319,3.559213857,14.27990428,1.628966577,0.01024155,1.219874649,8.577481317,1
-0.000292132,0.313990485,3.436519026,13.14442903,1.634360068,0.010224123,0.948480086,7.769871527,1
-0.000884256,0.312096022,3.499572238,13.52492956,1.667058672,0.034685659,0.223514279,-1.577570378,1
0.001566762,0.308970625,3.50082151,13.47454694,1.69592465,0.017656679,-1.648095728,5.685132734,1
0.004058219,0.293302267,3.691346761,15.11368749,1.689817592,0.011173984,0.980218841,5.434303108,1
0.004402719,0.279500765,3.915423043,17.18515624,1.683885956,0.009596458,1.438653681,11.32456897,1
-0.002321915,0.275734736,3.969879237,17.87875864,1.685463224,0.009944936,1.391261755,10.83317567,1
-0.000756101,0.290554893,3.76487571,15.78257949,1.689031764,0.009753303,1.43601956,11.40199166,1
0.001163576,0.296017375,3.762084554,15.54960233,1.679451043,0.021428098,-0.833674597,0.424713156,1
0.000741459,0.283539469,3.892180748,16.96797985,1.65729114,0.022534065,0.743650506,-0.290468534,1
-3.79E-05,0.288644777,3.613967988,15.16013086,1.660970524,0.0187323,0.082278569,-0.392230683,1
-0.001370185,0.299758102,3.47202201,13.79613478,1.679415131,0.010200485,1.191958461,7.360190779,1
0.000393127,0.300582778,3.660353191,14.83998155,1.684682356,0.009890379,1.389095262,7.896379054,1
0.002157205,0.302626126,3.687968918,14.93643183,1.689920643,0.010702674,-0.992335882,54.29820491,1
0.002155197,0.302269029,3.665945515,14.71450447,1.694434902,0.010194018,-1.192050474,71.36946441,1
0.000859491,0.304979825,3.656076879,14.59436677,1.696881757,0.009586138,1.426450652,9.766191652,1
0.001177381,0.303773746,3.619121069,14.43630527,1.699300875,0.00940657,1.418051817,11.11161137,1
0.001504695,0.305738791,3.510407018,13.80809374,1.701701627,0.009491883,1.352113534,12.73923511,1
0.001400698,0.320397948,3.286620684,12.07336419,1.704615784,0.00982011,0.960901352,10.77402788,1
0.000883092,0.31856791,3.304043066,12.26659859,1.70605011,0.009596775,1.123220054,9.459249342,1
0.00667989,0.315907659,3.382203289,12.68983813,1.707426889,0.009940896,1.237545908,8.952449848,1
0.003532392,0.325357192,2.991162642,11.27549895,1.712613351,0.010597821,1.440183763,9.291418582,1
-0.004697362,0.302791821,3.190519642,13.4430972,1.717881666,0.010075424,1.561591866,10.58865066,1
-0.00177269,0.290195803,3.793006574,15.99745108,1.7222726,0.010220972,1.142412094,10.15811775,1
0.002313963,0.302195661,3.503941288,13.92904642,1.726423264,0.009748872,1.163702856,10.82905163,1
0.002720601,0.301944579,3.49402045,13.90433257,1.728083583,0.009278311,0.992756253,9.939507214,1
-0.000564874,0.301401486,3.628437282,14.61081973,1.730522428,0.009488078,1.104422421,8.121943287,1
-0.000613894,0.302018875,3.599122771,14.43140492,1.734537452,0.009587766,1.5567543,8.447377646,1
0.003284402,0.299855249,3.631971108,14.62917799,1.737512153,0.009624434,1.714165656,10.32832179,1
0.002078077,0.29057184,3.731127416,15.73129146,1.739816012,0.009318113,1.654524104,11.81243992,1
0.002804692,0.300135347,3.625976882,14.5971104,1.742399543,0.009590433,1.703112054,11.3354113,1
0.000164069,0.30472266,3.438448945,13.60257824,1.74565446,0.009565398,1.836776482,10.44219789,1
-0.003377387,0.298518484,3.459968563,14.15890745,1.748260062,0.009327143,1.697641895,9.438455743,1
0.00086518,0.303714252,3.564820919,14.19979517,1.750057711,0.009668709,1.188706864,8.103315094,1
0.00113118,0.303000829,3.578662055,14.26450496,1.752581133,0.009992991,-0.203792602,30.14831137,1
0.001458344,0.300690246,3.599078687,14.46122236,1.75552281,0.009836393,-0.10664668,33.88317533,1
0.00523936,0.296935785,3.60458939,14.63171413,1.756860842,0.009635719,1.385184296,9.51135513,1
0.001012429,0.286661088,3.741526995,15.88435698,1.759035383,0.010250274,1.013702213,11.3103608,1
-0.002286183,0.289467733,3.76406749,15.89574375,1.762960543,0.010150456,1.167233955,14.95378139,1
0.001012645,0.300039955,3.625654992,14.66780389,1.767703138,0.010219552,1.360133162,10.87615466,1
0.005330213,0.296944879,3.706898669,15.11961655,1.774773135,0.01085899,1.164846108,10.55032568,1
0.000978633,0.288974138,3.813132132,16.13939826,1.781537955,0.010035631,1.002054742,10.72822059,1
-0.002876881,0.292110855,3.762276846,15.84401355,1.785846383,0.009297966,0.795367716,9.701776498,1
0.003894817,0.300894934,3.670116324,14.78024534,1.789651108,0.009760258,1.274185685,11.66238499,1
0.000994923,0.29200188,3.750229108,15.75239847,1.79319349,0.009988066,1.299059738,11.44210344,1
-0.001273819,0.304630439,3.570538578,14.20057283,1.795781217,0.009704556,1.15818361,11.50249287,1
0.000469162,0.315150727,3.428284309,12.99192718,1.799851881,0.009852116,1.187040497,8.840776635,1
0.002902634,0.306679561,3.457903045,13.46584458,1.804270717,0.009553545,1.63539157,9.804656947,1
0.007225204,0.317658612,3.149627915,11.51022293,1.805768912,0.009405582,1.667391093,11.39487479,1
-0.000683892,0.316309321,3.232899982,12.26157305,1.810324478,0.013612828,0.667677174,2.946082742,1
-0.005132584,0.290681194,3.745340656,16.19809261,1.819191197,0.013767856,-0.315099446,6.551304429,1
0.000155208,0.287660052,3.793039632,16.3584288,1.822751563,0.010185753,1.207058452,26.76165618,1
0.004757217,0.304839119,3.55717552,14.07949726,1.822221701,0.009968198,1.809860029,18.20067964,1
0.001657523,0.28652997,3.768406915,16.24671586,1.825549752,0.010494015,0.252326933,26.31024326,1
-0.003069305,0.279935881,3.91186291,17.56013541,1.830502483,0.010152736,0.424656447,31.30677695,1
0.000650057,0.28939849,3.81871697,16.39199192,1.83306269,0.009769187,1.714635151,14.58792805,1
0.00244763,0.293292065,3.677501972,15.59496253,1.831515939,0.011413367,0.86626886,7.56527658,1
0.005762506,0.303092674,3.536963299,14.29033857,1.829393278,0.012200881,0.776331529,5.193175817,1
0.000629543,0.281953505,3.829639173,17.02478103,1.834326172,0.012028682,0.508899742,10.1034104,1
-0.002856838,0.283009332,3.802370727,16.8500751,1.840098463,0.009830824,1.064147763,21.47514044,1
0.00070871,0.291827798,3.73922176,15.9074048,1.842102214,0.009370805,1.321591716,11.01682407,1
0.001510005,0.291245388,3.748483485,15.9587655,1.844371632,0.009643831,1.659613398,18.66854203,1
0.00184259,0.296976159,3.62091461,14.77995563,1.845976203,0.009847223,1.815763191,17.6579727,1
9.79E-05,0.285409804,3.786597796,16.30337439,1.847167478,0.010850417,0.356555984,18.42826721,1
0.00121259,0.288188883,3.80156119,16.31228661,1.842458943,0.012185388,0.266762729,10.75323837,1
0.001749037,0.297762673,3.666311632,15.00664855,1.843154689,0.012006112,0.763730489,5.266446114,1
0.000211735,0.287768768,3.811472352,16.36445688,1.852869361,0.01074955,1.06962742,8.441857162,1
0.002780986,0.288260896,3.791067718,16.23374426,1.857799094,0.009835698,1.474091136,12.55532044,1
0.000842292,0.288945431,3.753262572,16.07792564,1.861613464,0.010146353,1.69791847,15.47851515,1
-0.00148577,0.279453267,3.858588776,17.34559097,1.86586756,0.01012704,2.217836425,17.49460568,1
0.00100948,0.301392474,3.585472963,14.57655574,1.867353058,0.009746519,2.136531952,15.55383849,1
0.001850111,0.311413293,3.492302671,13.56216045,1.868614796,0.010369263,1.338887737,9.184225705,1
0.001776862,0.301712336,3.614218851,14.59394215,1.875410952,0.011467478,0.695922015,6.748500358,1
0.000485576,0.301953283,3.614088334,14.59045516,1.882512774,0.009757287,0.928216582,12.41850296,1
0.001118931,0.291639694,3.697691931,15.69937321,1.885367421,0.009556127,1.015184896,12.55025962,1
0.000609872,0.294716512,3.583883004,15.22818395,1.879504885,0.011990793,0.45607352,6.560655001,1
0.001274434,0.306890892,3.443512144,13.91917194,1.877772522,0.011183041,0.64637282,9.533841889,1
-0.000702196,0.305016936,3.540772822,14.37023515,1.883621434,0.00967885,1.135651275,13.57277469,1
0.001211674,0.303197126,3.626671309,14.66706385,1.885058103,0.009595786,0.959571908,11.727769,1
0.004081565,0.311272611,3.518444818,13.43863967,1.892312459,0.011900376,0.604073971,4.020385176,1
-0.000286763,0.31435689,3.498421125,13.33742664,1.901222665,0.01000234,0.84886299,8.262443987,1
-0.000149113,0.306347762,3.582180254,14.24879703,1.905481175,0.009685297,1.087836175,11.5538815,1
0.001651618,0.303614067,3.578162955,14.29074152,1.909932055,0.009748216,1.583678982,12.62213257,1
0.001286551,0.305193111,3.572585169,14.21915658,1.913945389,0.009437401,1.733159725,11.42597853,1
0.000283715,0.307195154,3.546053911,14.02854392,1.916837093,0.009288948,1.347714652,8.95416473,1
0.001468584,0.306759641,3.526492435,13.97590574,1.919431141,0.009503022,1.40614025,14.45087933,1
0.001329607,0.306618549,3.539419768,14.06595355,1.922642572,0.009999161,-0.15973092,48.80202043,1
0.000595289,0.305782058,3.572792981,14.26316532,1.925282996,0.009766635,-0.416579803,51.46727568,1
0.001170214,0.304845558,3.601468829,14.40811723,1.927492469,0.009593682,1.148024664,10.98687735,1
0.000966725,0.305413086,3.602601981,14.38879241,1.930891854,0.010100681,0.156063644,24.10692693,1
0.003098668,0.305254052,3.572590379,14.25301393,1.934271567,0.00995246,0.499749207,28.66015658,1
0.001488916,0.305801485,3.560825581,14.18594229,1.936499459,0.009908872,-0.60753145,58.91178719,1
-0.000680852,0.305439545,3.565556104,14.18487399,1.93897389,0.009867882,-0.976911558,59.17774295,1
0.000606164,0.304366025,3.557213461,14.16165065,1.941665595,0.009235221,1.724877585,10.55841412,1
0.001729902,0.303678811,3.569640997,14.25184695,1.943884931,0.009268111,1.503564646,9.84559267,1
0.001777601,0.292397934,3.709533619,15.57785418,1.946567263,0.009763385,0.804505852,28.3448807,1
0.000488931,0.292501267,3.725644843,15.67382574,1.949668339,0.010075802,0.638885972,28.12133796,1
0.000616366,0.303285081,3.588475865,14.35110077,1.952865001,0.009702916,1.089120401,12.22228672,1
0.001269438,0.304302692,3.556141746,14.1649718,1.955217634,0.009697786,1.127998936,12.14143424,1
0.004393805,0.306595622,3.492299283,13.7428404,1.956576484,0.010106256,0.618168622,24.49682441,1
0.001475412,0.304318088,3.477254339,13.6661307,1.959233039,0.010167034,0.647969551,23.84385148,1
7.86E-05,0.313597094,3.422383811,12.94714152,1.963172858,0.009938941,0.791801063,22.45496688,1
0.002654075,0.315286787,3.442691737,13.05830177,1.965583256,0.00982018,1.12117325,25.26731347,1
0.002214373,0.300002439,3.618631235,14.70552206,1.967770004,0.009487063,1.807023854,12.08494952,1
-1.80E-05,0.305276976,3.538147403,14.0178758,1.970108087,0.009094762,1.314898427,9.90385443,1
-0.000598264,0.307192923,3.515770562,13.74455794,1.97142443,0.009108426,1.09871048,9.477345391,1
0.000169981,0.302447149,3.540633508,14.09505894,1.974325997,0.009656939,1.19550959,10.5431292,1
-0.00040499,0.302172763,3.518813583,14.09881706,1.97978314,0.010507315,1.41122573,9.944751355,1
0.001480022,0.301964835,3.568490075,14.34539128,1.985248402,0.010180428,0.96653799,9.259608817,1
0.002247181,0.31416661,3.459024441,13.14138896,1.986926542,0.009443087,1.023851393,10.86552745,1
0.000590097,0.322906238,3.225587771,12.02118846,1.984442629,0.010293596,-1.647512659,72.83211256,1
3.27E-05,0.310600164,3.287953877,12.81515428,1.984404046,0.010509745,-1.46554396,67.73968581,1
0.001518481,0.307411128,3.507723017,13.51146772,1.986419732,0.011069471,0.97698513,6.834931689,1
0.000736241,0.296110739,3.739767643,15.32836096,1.985537611,0.010833551,0.96167767,7.273529985,1
0.001219777,0.28621419,3.859804943,16.55014771,1.988402666,0.010547715,1.096835329,8.137307582,1
0.004664363,0.296265688,3.692249642,15.03169058,1.996293259,0.010713254,0.884511159,8.015608355,1
0.000344225,0.287064204,3.799147713,16.13097008,2.003170885,0.010210388,1.303269964,10.60309349,1
-0.002246024,0.288935563,3.815987728,16.22058763,2.008972059,0.010016774,1.647166892,10.86961186,1
0.001245071,0.300172983,3.698500785,14.97347593,2.015199661,0.010462492,0.635317995,26.89230846,1
0.002332953,0.301089923,3.669269432,14.74417262,2.020760291,0.010206234,0.538059073,32.32892069,1
0.003077709,0.29925809,3.674732316,14.8303204,2.024815641,0.009828596,0.879776949,23.69567873,1
0.002438056,0.296063095,3.620371251,14.63418926,2.028304182,0.009852539,0.37223403,24.38225068,1
-0.002089521,0.305271136,3.531068747,13.86475435,2.031634304,0.009565577,0.901299696,11.22261454,1
0.00080123,0.317004656,3.409085745,12.67410571,2.034476689,0.009457496,1.267886853,11.20121766,1
0.003643269,0.301338687,3.511766075,13.82287903,2.037470191,0.009443298,1.557506568,11.36852416,1
-0.000742185,0.289769725,3.673572824,15.44915383,2.04121666,0.009053639,1.548963016,9.611505352,1
0.000263123,0.30015478,3.564853799,14.46125347,2.043827547,0.009194019,1.416660837,13.76738324,1
0.00336043,0.300446756,3.552535831,14.29168238,2.04749794,0.009972968,1.265025678,12.11624509,1
0.000247827,0.288880391,3.703924863,15.63589007,2.052370398,0.00941047,1.16643475,9.583344856,1
-0.001269673,0.291654981,3.711178398,15.60542613,2.056025914,0.009135071,0.780179911,10.37225282,1
0.001202271,0.301892829,3.612133868,14.45578841,2.058767809,0.009124866,0.985758554,10.74334956,1
0.000952914,0.302256396,3.634608177,14.57586712,2.06134273,0.009345945,1.274373435,10.67780682,1
0.001488798,0.301833521,3.622526849,14.5840439,2.065844182,0.009564169,0.979918476,8.529176675,1
0.001818996,0.304338748,3.440377695,13.6483445,2.072198704,0.009686471,0.833241986,7.222556523,1
0.002180649,0.304906128,3.405719611,13.4304741,2.073717771,0.009572287,0.94533677,10.29452287,1
0.00076935,0.314037844,3.392328653,12.82747062,2.073121098,0.009507031,1.121142385,11.12942073,1
-0.000210722,0.315307905,3.394312263,12.79959467,2.075559889,0.009356143,1.27133486,12.62930623,1
0.000356827,0.303353734,3.546851367,14.12778649,2.078466742,0.009412312,1.436543381,13.12888552,1
0.001364822,0.301072073,3.579616359,14.39579841,2.081361171,0.009253171,1.588190603,13.26530765,1
0.003882902,0.310635786,3.489214984,13.43957621,2.08462568,0.00947183,1.659711247,12.77463137,1
0.000917012,0.3013375,3.624809367,14.59274113,2.087964303,0.00936148,1.131953478,11.63576999,1
-0.001510712,0.291430894,3.761118765,15.8382394,2.090763038,0.00921898,1.024188354,13.60005369,1
0.00064376,0.302583113,3.639606948,14.60112977,2.093309239,0.008954407,1.600829377,14.58240895,1
0.000280413,0.303144405,3.638054592,14.66900611,2.096434293,0.010111123,1.163003231,8.184477308,1
0.002118295,0.299840237,3.661585619,14.87160513,2.109295654,0.014966528,0.278270198,1.676266552,1
0.002666199,0.307254162,3.570608343,13.84853112,2.122737449,0.01014008,1.076101747,11.06526091,1
0.00195779,0.310724149,3.487290061,13.35855453,2.119152069,0.012159736,0.38077539,4.302100088,1
-9.46E-05,0.290180965,3.69179074,15.53922853,2.109370749,0.011124947,1.037346741,5.804798062,1
-0.000813851,0.290332293,3.727162779,15.76230852,2.109656579,0.010092951,1.306357198,7.967247315,1
0.00493755,0.315881012,3.483689297,13.19039584,2.115973009,0.009681304,1.013782919,16.16835538,1
0.001852831,0.305463652,3.633995968,14.42573483,2.119191088,0.009537622,1.068566579,20.24757599,1
-0.002350904,0.290017082,3.850597709,16.49825438,2.11777638,0.011043559,-2.590117958,82.80020017,1
0.000691635,0.305197775,3.643886202,14.35837356,2.11741393,0.011357847,-2.407564295,71.99293269,1
0.002014212,0.302991337,3.515007875,13.62160019,2.123035921,0.010479897,0.843756207,5.486934231,1
0.003054912,0.294500366,3.608850797,14.63334352,2.129283469,0.009601049,1.535686886,11.27217534,1
-9.84E-06,0.285500519,3.829414277,16.38380846,2.132122149,0.009707943,1.612189983,11.57916171,1
-0.00024903,0.275890062,3.971935254,17.82210512,2.124491555,0.012967223,0.514783992,2.621449712,1
0.001237322,0.288887799,3.783628958,16.00520217,2.121988514,0.011205559,0.759389409,4.193200934,1
-0.000956674,0.289651729,3.772455503,15.91423932,2.128802218,0.009095886,1.570439441,9.073027978,1
0.004442139,0.288463497,3.819300911,16.21087677,2.131787218,0.009247826,1.265080898,10.69066683,1
0.002090528,0.290537156,3.767745626,15.88259247,2.134579522,0.009113518,1.339019578,11.92260968,1
0.000643223,0.291032996,3.747550981,15.78192402,2.136063058,0.009164035,1.610278291,11.4459211,1
0.00186198,0.29144515,3.725759311,15.64885497,2.138067681,0.009544004,1.000565548,15.15195056,1
-0.002656815,0.29424208,3.644449028,15.17857782,2.141358675,0.009651072,1.268742404,16.97147454,1
0.003947035,0.303231827,3.556889263,14.23400352,2.143751035,0.009396887,2.240606055,14.56200488,1
0.000572159,0.306607749,3.551020368,14.20736793,2.14474569,0.00946828,1.492612542,13.58363125,1
0.002127686,0.305611956,3.497045801,13.82712187,2.145709664,0.009554886,0.98688436,11.77020685,0
0.001624884,0.301985971,3.552899236,14.11605521,2.148410089,0.00974371,1.617675583,12.64696149,0
-0.004931141,0.29863061,3.488672011,13.95967065,2.150699071,0.009584069,1.908770202,13.36323239,0
-0.001678502,0.305953177,3.253867309,12.51326692,2.152474867,0.016115321,0.86951144,2.348323771,0
0.004202768,0.316898826,3.301101843,12.25647204,2.153974588,0.016189877,0.800634249,4.061170617,0
0.005064194,0.32290917,3.368072638,12.10405713,2.15239236,0.010549195,1.624537311,25.77292859,0
-0.001163845,0.303099931,3.557217947,14.00458315,2.153673226,0.011778724,0.490383869,12.50369405,0
0.00148027,0.273115708,3.892962107,17.47958976,2.150523267,0.012415601,0.615673456,7.229494241,0
0.001191461,0.283841386,3.767192156,16.08324691,2.146922847,0.010548313,-1.797954491,90.39172173,0
-0.001639337,0.296574835,3.639160989,14.81586242,2.151129314,0.010546601,-2.155100044,94.78683425,0
0.001339567,0.297068806,3.678538785,15.00538283,2.152938897,0.009756761,0.714920571,30.60026797,5
0.001717869,0.297828558,3.670208639,14.93664677,2.153499113,0.009762259,0.004354727,35.86402587,5
0.000937834,0.298211978,3.642672189,14.82425922,2.154956382,0.010142143,-1.724651664,75.7813365,5
0.001157475,0.297749839,3.668478473,15.02693988,2.156744003,0.01046459,-0.809670518,64.29330577,5
0.000313006,0.298699362,3.669101744,14.99839102,2.15995418,0.009903749,1.170605738,10.41317941,5
0.001805701,0.297817796,3.645071607,14.91192925,2.164300701,0.009715114,0.96023479,14.81401689,5
0.001239284,0.288577791,3.751577436,16.02721317,2.168495287,0.009772944,0.808840013,16.45833163,5
0.000802983,0.28714335,3.783685695,16.24498203,2.170548739,0.009426992,0.928228488,21.28420372,5
0.001444872,0.286309348,3.788368921,16.35254594,2.172871562,0.009854062,0.702141294,18.98463693,5
0.001527021,0.276162856,3.921066295,17.79855023,2.17686833,0.009554332,1.263300517,14.33296001,5
0.001091466,0.283946652,3.829519286,16.66797394,2.179922485,0.009448913,1.588742438,11.67612163,0
0.000612599,0.297662427,3.661471574,15.04283346,2.183005742,0.01071289,1.37681367,11.21110673,0
0.003856417,0.301532375,3.397576617,13.75502242,2.189470073,0.011669195,0.77671401,8.357531023,0
0.000157732,0.288971257,3.476103266,14.67358784,2.194892611,0.009622898,1.142753339,13.09813093,0
-0.00183985,0.276821421,3.842639275,17.11722406,2.196152496,0.009774921,1.15288691,12.69433951,0
0.00224314,0.287844336,3.738539472,15.99351706,2.198824692,0.010362338,-0.37487628,37.40658651,0
0.002327486,0.286915292,3.753668383,16.09711653,2.198867362,0.010275404,-0.255283895,39.47008481,0
0.004302678,0.27409215,3.940313553,17.80577952,2.197554561,0.009716869,1.362113994,16.38042073,0
0.000691851,0.264460306,4.044992015,19.18956626,2.199280003,0.009693766,1.120796924,15.41106498,0
-0.001948451,0.265413048,3.994902374,18.9078776,2.20115994,0.009680204,1.721947262,15.47655541,0
0.000381631,0.277065694,3.832630894,17.12651941,2.202585929,0.009635771,1.78586291,14.9299533,0
0.000679256,0.27781074,3.819460724,17.04109621,2.203369086,0.009568214,1.410394627,13.89910542,0
0.00158173,0.276852993,3.847506268,17.24724666,2.204475784,0.009711818,1.554530679,14.87594366,0
0.004353319,0.286238399,3.745831171,16.01529465,2.207765143,0.010041211,1.672200488,15.68272572,0
0.003226972,0.286584997,3.74366238,16.00475653,2.212004089,0.00952938,1.366780057,15.25530053,0
-0.001673649,0.278030806,3.863964634,17.34207125,2.215034921,0.009258794,1.318724527,14.05513923,0
0.003139356,0.275751987,3.93189672,17.7245178,2.217609188,0.009519054,1.64627336,14.79304177,0
0.001226297,0.265996617,4.020990377,18.98441099,2.220887429,0.009810803,1.033345936,14.56865621,0
-0.002956846,0.268205897,3.971002725,18.69150469,2.224289703,0.00974691,1.135514695,16.56272428,0
0.001043453,0.289703334,3.74763885,15.94016308,2.227187347,0.009579227,1.400083473,14.15476229,0
0.001245235,0.288529387,3.754622992,15.99384081,2.231208529,0.009881952,1.440866668,14.08948629,0
0.000533831,0.288292167,3.754633391,15.97514303,2.237045779,0.009951828,1.766302679,13.05417243,0
3.82E-05,0.289812666,3.77199611,16.06610021,2.242766844,0.009695108,1.575339708,12.28203041,0
0.004319151,0.283295642,3.865307893,16.92844652,2.245993532,0.009471195,1.404007182,13.46451219,0
0.003158936,0.288045573,3.738706951,15.93639461,2.249590574,0.01018799,1.171950873,13.76757222,0
-0.000920112,0.283540437,3.761701069,16.40716724,2.256001282,0.010527093,1.198243116,14.08499108,0
-7.00E-05,0.2796259,3.849178898,17.18111282,2.261831284,0.009826347,1.931879806,20.81172919,0
0.000702693,0.279476775,3.858941971,17.22676754,2.265997641,0.009591016,1.778329504,21.72372575,0
0.002757385,0.29178378,3.719406934,15.74323544,2.267130607,0.009868059,1.240294739,18.18097343,0
0.000978601,0.290559741,3.743290316,15.89121029,2.269816698,0.010332638,0.943775608,12.30184104,0
-0.000416872,0.28695711,3.786707146,16.17769856,2.276465116,0.009722371,0.932351369,8.954124617,0
0.000259761,0.286891002,3.826136441,16.39809401,2.281650925,0.009584164,1.05421227,12.47973704,0
0.000362156,0.293668113,3.673482463,15.49829614,2.286097227,0.009969839,1.455425535,13.80596572,0
0.002811212,0.294092411,3.632172265,15.19910303,2.29250036,0.01055333,1.559463003,12.25625077,0
0.002021497,0.285794043,3.786015339,16.1846905,2.294667435,0.009868202,1.643478246,14.62697939,0
0.00257116,0.296328137,3.731526409,15.39039476,2.292079435,0.010458553,1.031033836,9.752863398,0
-0.001112163,0.288344902,3.757245713,15.99112176,2.294629451,0.011619701,1.079091185,12.16221801,0
-0.000598245,0.282486082,3.714160434,16.02931078,2.311792864,0.018063195,0.331380575,1.005916708,0
0.002995082,0.295007218,3.619130327,14.91108043,2.330778939,0.013250286,0.430642135,5.779189152,0
0.0001025,0.299924083,3.638388856,14.79421385,2.337055751,0.011262033,1.00118606,11.19341514,0
0.001490439,0.295919893,3.709936813,15.26853166,2.338760267,0.009942131,1.425711142,16.79841978,0
0.004875059,0.290915077,3.685770652,15.18933276,2.347217778,0.016184434,0.288514814,14.69901908,0
0.000712764,0.281503017,3.806069856,16.41710061,2.367681067,0.019080741,-0.739873641,9.844304989,0
-0.000746456,0.28516005,3.762128231,16.08373584,2.379307502,0.009967428,1.355266949,34.33051827,0
0.004494821,0.282509138,3.783240331,16.28785539,2.378297533,0.009923499,1.629386944,31.56888464,0
0.000599442,0.261875647,4.053363173,19.31190736,2.378758839,0.009792726,1.441152496,26.02184773,3
0.00042984,0.275205494,3.864278647,17.284975,2.380796378,0.009613698,-0.010439808,31.99706366,3
0.000757272,0.285573749,3.745108291,15.98355917,2.383426339,0.009591688,1.174003502,31.76525365,3
-0.001879708,0.27487165,3.87849435,17.45440806,2.38523832,0.009929321,-0.731702104,79.76661052,3
-0.00028365,0.273403517,3.903071326,17.6593869,2.386937496,0.009665066,-1.284085115,88.8361017,3
0.000954163,0.273277141,3.910456039,17.6752467,2.389359719,0.009491817,1.559126061,21.75419725,3
0.006007115,0.282330624,3.814671667,16.43484652,2.392095784,0.009713457,1.707788823,20.66091598,3
0.001550884,0.283502322,3.78500437,16.28570426,2.394197954,0.009456337,1.571717414,19.54610271,3
-0.002696738,0.274783023,3.856518143,17.40286784,2.396206011,0.009465474,1.327195627,18.01542407,3
0.001413823,0.281133316,3.764651124,16.3787797,2.397753579,0.009481521,1.828654215,17.70805454,3
-0.000271735,0.29353556,3.607531754,14.87778814,2.398943329,0.009186523,1.880390031,20.38586745,3
6.87E-05,0.306321906,3.424665411,13.3803777,2.401173619,0.00932618,1.838953607,18.65822368,3
0.001573962,0.298362543,3.472488592,14.08262078,2.403281566,0.0095882,2.157132853,21.73535169,3
0.001863334,0.278875434,3.714550114,16.49069609,2.404404395,0.009337038,2.470630801,22.68827587,3
0.001285623,0.284528407,3.628269546,15.60396803,2.404799271,0.0092654,2.106298048,21.85699514,3
0.002287445,0.285424294,3.634366023,15.56975096,2.407396153,0.009665167,1.813202773,17.30098315,3
0.002759674,0.289793163,3.64359544,15.12339165,2.413179343,0.010275977,2.088724334,13.22833185,3
0.003322488,0.290743534,3.685525866,15.25508525,2.421265684,0.011235732,1.134426343,10.05874964,3
-0.000658755,0.277221236,3.924412289,17.52591377,2.426706696,0.009413986,1.258425627,19.58418304,3
-0.000595426,0.275549803,3.940590592,17.63151866,2.427855028,0.009103581,1.597362682,16.85269345,3
0.003315948,0.279751283,3.844252173,16.77238081,2.429950442,0.009348169,1.471631876,17.60101573,3
0.000158916,0.277183114,3.856933894,17.06655429,2.432540403,0.009183435,1.193460137,20.8946683,3
-0.000561918,0.271821687,3.949717832,17.97165991,2.434856687,0.00912154,1.703419067,21.79659928,3
0.00081907,0.270915612,3.962303493,18.09090993,2.434829712,0.009398526,1.911496182,19.93568085,3
0.001347414,0.271615802,3.917973315,17.80577812,2.434406771,0.009592603,1.601336932,19.3934226,3
0.00322435,0.281678963,3.784258358,16.33466377,2.437109538,0.009974496,1.848820492,20.83721408,3
0.000882536,0.282102826,3.780873572,16.32790879,2.440590395,0.009810646,1.463772867,20.1679819,3
-0.001360258,0.272837574,3.904028427,17.69005494,2.444276592,0.009636496,1.324369906,15.00332733,3
0.000743663,0.272390453,3.904598083,17.69456727,2.448339026,0.009885059,0.673205862,35.80384523,3
0.001800437,0.282718989,3.759099286,16.19854658,2.452442115,0.010048489,0.493736706,41.8458608,3
0.001547104,0.281965179,3.790848034,16.40552785,2.456544658,0.009816402,0.858118122,21.79129805,3
0.001156128,0.270881038,3.945057163,18.00813763,2.460952159,0.009789714,0.578895781,18.14565734,3
0.001447782,0.272209364,3.898592811,17.65687346,2.466128322,0.00977385,1.7668093,19.96700503,3
0.000317328,0.282488844,3.773370987,16.27258598,2.471013805,0.009835102,1.7503047,22.6581435,3
0.001618051,0.302724336,3.550389775,13.93382416,2.476633017,0.010680112,0.924802758,12.78939195,3
0.001577257,0.30367955,3.534542655,13.78646328,2.482047926,0.01019612,1.050823845,13.08014029,3
0.000559224,0.291070594,3.662098744,15.06312431,2.483818872,0.009383774,1.438691348,20.5459187,3
0.001029131,0.279569295,3.807607172,16.54660167,2.485441153,0.009413494,1.868002945,24.90688623,3
0.001057493,0.27028358,3.946353488,17.96959241,2.489065443,0.009482493,2.49628116,25.79873544,3
0.002921703,0.279233212,3.835036235,16.71919327,2.493358612,0.009608841,1.503891645,16.89018834,3
0.000337176,0.279652935,3.756965983,16.30098354,2.499396678,0.009749874,0.860440817,14.05811355,3
-0.000865258,0.261205693,4.014452686,19.09593246,2.503518241,0.00908518,0.838816352,20.00550516,3
0.002386538,0.270151685,3.996456161,18.22150837,2.505853435,0.009315141,1.384215461,21.81391063,3
0.001481304,0.279302081,3.849977851,16.76110454,2.508385195,0.009332992,1.915513743,25.0867876,3
0.000666654,0.269373782,3.972570986,18.17456285,2.510529382,0.00932643,1.257586925,20.82254454,3
0.000894542,0.270431376,3.933112955,17.89353519,2.513930947,0.009331732,1.377435517,18.90999292,3
0.001094049,0.271612949,3.909718977,17.73367972,2.517500523,0.009242567,1.771194717,18.08327852,3
0.001096854,0.28209161,3.833142327,16.58529423,2.520701327,0.009461709,1.445060915,20.87523257,3
0.000602312,0.282710347,3.839971281,16.55433088,2.52391728,0.009530751,1.11483171,21.3512936,3
0.004774279,0.281907182,3.815085753,16.42203319,2.527111271,0.009190217,0.889918482,15.41430954,3
0.001082395,0.282580647,3.785062824,16.30732873,2.531035287,0.009287866,1.233592575,13.26773164,3
0.001481833,0.281941947,3.810576597,16.47259461,2.535956682,0.009502627,1.07503478,13.11099776,3
0.001671504,0.28239763,3.81774688,16.46809869,2.540258026,0.009346823,0.642332354,14.7710951,3
-0.002929858,0.273275631,3.910288906,17.67799252,2.544651685,0.009776875,0.94601012,15.77958839,3
0.004586432,0.279167628,3.857307827,16.82749925,2.549629048,0.009428286,2.025664815,18.45336057,3
0.001472953,0.285143108,3.70716036,15.57190553,2.555099651,0.009873113,1.854482,16.02359339,3
-0.00267489,0.271202819,3.935263559,17.97620714,2.558884484,0.009499707,1.584492897,18.83784032,3
0.001421271,0.274612073,4.022809817,18.21481707,2.560912541,0.009373348,1.98175997,20.40405428,3
0.005353409,0.288093106,3.819593461,15.9617492,2.564565223,0.009707196,1.299371427,28.25985403,3
0.000740694,0.280403497,3.906054252,17.04135494,2.568878174,0.009645871,-0.729580845,44.34987413,3
-0.002381149,0.272271106,3.985162647,18.13711551,2.572016907,0.009120452,-0.226150816,42.61106999,3
0.001232104,0.281512692,3.850360578,16.66902624,2.574535588,0.009286631,0.161344282,32.11697467,3
0.00068282,0.280990348,3.858344376,16.72493662,2.578572791,0.00978347,0.692738259,31.95488374,3
0.000636278,0.282315317,3.836965272,16.56001428,2.58246242,0.009412978,1.822448012,21.23246538,3
0.00112655,0.294563197,3.729022814,15.31518209,2.585980988,0.009478691,1.373753409,19.59357872,3
0.002263432,0.291962478,3.760870087,15.57844218,2.589619337,0.00952607,1.686682876,21.67088407,3
0.003323358,0.29036956,3.737090025,15.46443799,2.592779922,0.009798007,2.151780674,23.76150908,3
0.001126995,0.281081045,3.851188632,16.67200926,2.594406945,0.009349609,2.096710832,23.42357781,3
-0.001114798,0.270121503,3.968315473,18.06974889,2.59671996,0.009344832,1.358201167,17.58811785,3
4.97E-05,0.27003618,3.981986114,18.15873629,2.60118588,0.00975818,1.804668506,19.57179445,3
0.001082729,0.269273671,4.02133763,18.40899037,2.605565371,0.010052425,0.714541905,35.59863659,3
0.001105238,0.269697649,4.030159334,18.4464711,2.609735816,0.009628808,-0.129457192,40.92874635,3
0.00096233,0.270289192,3.948763677,17.94578195,2.613593456,0.009234058,0.778567603,16.79484438,3
0.001455479,0.270044246,3.911797378,17.74845549,2.619178717,0.010035045,0.860583344,15.87450748,3
0.001683112,0.26967302,3.98246051,18.21820003,2.624910627,0.009528187,1.093743532,19.32556476,0
0.000185322,0.270787664,4.021908416,18.46732043,2.628361511,0.009030833,1.548369353,17.01177678,0
-0.005677702,0.304361872,3.352122428,13.09789746,2.642078236,0.017928836,0.580134382,0.155824181,0
0.003415061,0.3296328,2.984539688,10.21034723,2.648096139,0.015997009,0.218818092,1.807345389,0
0.005588065,0.328302923,3.082953768,10.58406616,2.643066515,0.011706275,0.671703854,9.019302029,0
-0.00075325,0.331694614,3.110246311,10.65376925,2.645832389,0.009768986,0.991241744,14.2049376,0
0.001712775,0.322450745,3.235970385,11.72490308,2.651916667,0.013788799,0.89338159,3.304178965,0
0.001621948,0.305049301,3.433474325,13.47369042,2.665968868,0.016424864,-0.258035696,2.167607137,0
0.003237514,0.294440626,3.512513344,14.23870423,2.667653819,0.014000668,0.076207874,4.507404104,0
0.00012389,0.2949261,3.551842511,14.50587475,2.655435453,0.012658463,0.731311917,4.551723263,0
-0.000609467,0.297124061,3.598882034,14.73168484,2.653390666,0.010244489,0.82614523,11.09667188,7
0.00013026,0.295873516,3.627571471,14.87739046,2.654261943,0.008916354,1.606789496,16.51962997,7
0.001895488,0.29742078,3.652308004,14.992351,2.654027121,0.009321484,0.413366936,27.8940377,7
0.002038657,0.296955558,3.648360484,14.95735329,2.654720197,0.009344941,0.623489017,31.06430633,7
-0.000824694,0.29491116,3.648934099,15.0183105,2.652693176,0.008955963,1.80894123,16.6997774,7
0.000688058,0.296618275,3.668916581,15.1084874,2.652847726,0.008876978,2.014039324,15.38320339,7
0.002096767,0.299858878,3.647810563,14.91782967,2.656401716,0.009332695,1.783235701,16.94265731,7
0.002503215,0.295751292,3.674241482,15.1396629,2.658191245,0.009073954,1.252120916,15.07036101,7
0.002609495,0.285385098,3.781026776,16.2753338,2.658920942,0.009312395,1.041592734,12.56134913,7
0.000212749,0.286434065,3.794281905,16.37438942,2.661651121,0.009569936,1.419951605,15.92897149,0
-0.0010746,0.295377036,3.65614798,15.07830605,2.662025179,0.009341816,1.374205562,20.02717968,0
-0.000436759,0.288810599,3.695119975,15.74686741,2.654182053,0.011652666,0.299679555,7.413383836,0
0.001945018,0.28521604,3.682171835,15.88132376,2.658182308,0.015097571,0.44851415,2.045416056,0
0.002602432,0.295838025,3.589085742,14.68414678,2.671192278,0.01069261,0.932123668,8.62055988,0
0.000858222,0.298810373,3.691724113,15.07106573,2.676916177,0.009782039,1.478943711,16.06076995,0
0.002564503,0.294762635,3.73700747,15.42836622,2.683447811,0.009992899,1.388847708,15.31342231,0
0.001591128,0.283882945,3.843569903,16.60811925,2.688526154,0.009186425,1.4824375,14.77591472,0
0.000222153,0.274167693,3.953458348,17.86276359,2.691750772,0.009008418,0.773029888,15.19372007,0
0.001442878,0.284780207,3.799787967,16.27184143,2.693695668,0.008895094,1.321961683,19.79628436,0
0.000966149,0.285385788,3.799996586,16.27145122,2.69424869,0.008612286,1.757068049,16.45159962,0
0.000729211,0.285639206,3.796875235,16.24376552,2.694270161,0.008823394,0.721379178,29.86807113,0
0.002496578,0.295576822,3.658921646,14.94455247,2.69586732,0.009160008,0.878948366,27.41984238,0
0.001403242,0.285836125,3.779672567,16.21610867,2.698528726,0.008520347,1.796703544,11.29286078,0
0.00227364,0.285741008,3.81807113,16.41732693,2.700189481,0.008703874,1.66176069,15.68540569,0
0.001027496,0.285544978,3.799354338,16.3249047,2.701507132,0.009226665,0.478010366,24.32360731,0
-0.001476065,0.275717722,3.909031538,17.61560542,2.70327579,0.009272652,0.355885581,24.35184466,0
0.000938677,0.28678817,3.784314466,16.18868887,2.705258179,0.009169067,1.203298055,16.40065931,0
0.001412312,0.285880171,3.825282549,16.46604153,2.707805252,0.009235422,1.33904622,16.88670031,0
0.001547346,0.286402349,3.829296598,16.46591515,2.710597719,0.009957394,-2.646580023,132.1701243,0
0.001091381,0.286647237,3.786371985,16.22574015,2.713271713,0.01011107,-2.597859579,128.7085514,0
0.002305559,0.285385099,3.799034519,16.41001917,2.715896933,0.008990521,1.573140818,18.33339977,0
0.001667842,0.297273314,3.605736309,14.90412946,2.717979867,0.011132663,0.617734131,9.714402417,0
-3.82E-05,0.288358122,3.683517756,15.79608516,2.723863438,0.012295506,0.238566453,8.559432184,0
0.000408718,0.28665282,3.788856506,16.19163507,2.72780838,0.009349571,2.526237021,24.62063383,0
-0.000519725,0.286036144,3.828416987,16.50540293,2.728310122,0.009773366,2.319947347,20.50474421,0
0.001608856,0.289504703,3.755237559,16.0087479,2.728290231,0.010615744,1.542433953,11.70043773,0
0.002774636,0.299027956,3.648063614,14.81774381,2.728644344,0.01052284,1.112452831,9.169875252,0
0.000965672,0.295958146,3.703468873,15.17857546,2.7327228,0.009626705,1.180691301,10.24750968,0
0.001090543,0.296047417,3.698445044,15.20902239,2.737973676,0.00971856,1.198238217,11.83127514,0
0.001320406,0.286957886,3.784478536,16.25484587,2.743412072,0.009627858,1.135411304,17.89713898,0
-0.000741577,0.280502924,3.750569404,16.56613411,2.745616695,0.009064109,1.175894516,22.55828307,0
8.86E-05,0.290948668,3.661694721,15.46066046,2.748243168,0.011560855,0.647372033,7.786240456,0
0.003276143,0.300943357,3.625255568,14.49548497,2.75722956,0.013011484,-0.331619149,10.97022592,0
0.001441498,0.301666383,3.581952606,14.24157811,2.777566474,0.025846578,1.880776592,5.201645485,0
0.000848897,0.29243764,3.712088348,15.47008902,2.836323493,0.049338553,-0.273194601,-1.631179556,0
0.001912151,0.282855953,3.854624021,16.54991014,2.879852404,0.009168621,-0.711516523,36.58494754,4
0.001119232,0.270992801,4.009918374,18.07260404,2.873184095,0.010880787,-0.072889798,18.40526605,4
0.001524111,0.26178375,4.172275469,19.74269057,2.865944835,0.009071819,1.777841118,19.73262841,4
0.005003108,0.273202592,3.987428502,17.89327101,2.856143897,0.013357893,0.204890151,4.160177518,4
-0.000328805,0.285971191,3.750219582,15.88383475,2.857576316,0.015899658,0.378448435,1.746030738,4
-0.002551195,0.279682056,3.851333209,16.87769434,2.872877393,0.01253818,0.096696965,4.580013416,4
0.002576366,0.264996869,4.116592855,19.28008502,2.876490348,0.008620619,0.915831508,14.84784272,4
0.00271463,0.263060413,4.118323005,19.3644391,2.875848334,0.008340591,0.528486353,16.07949893,4
0.00155979,0.25693994,4.188274533,20.30659976,2.87919802,0.008780711,1.27639102,15.14848952,4
-0.000244243,0.263481885,4.10025396,19.26587644,2.883131627,0.008736886,1.101213742,13.8765549,4
-0.000295827,0.265399702,4.091566226,19.17147997,2.886222349,0.008733844,0.185895782,29.41814284,4
0.000665601,0.256822926,4.205168771,20.55337436,2.889270891,0.009184434,0.14257173,29.53749562,4
0.001502943,0.266487031,4.061978014,18.91766354,2.891804886,0.008928251,1.144611351,19.64906482,4
0.001815366,0.26835383,4.042589529,18.68717839,2.892981175,0.008763237,1.464873725,20.11105769,4
0.001176806,0.256053618,4.231834441,20.70077785,2.894514901,0.008837824,1.096014509,18.34236773,4
0.002221364,0.255862741,4.220787145,20.64735886,2.895718765,0.008796011,1.285631487,17.34555491,4
0.000892829,0.255984927,4.218795344,20.6721782,2.895749228,0.008629589,1.3350894,17.45464942,4
-0.000604915,0.255349791,4.241909777,20.85378427,2.897174726,0.008564298,1.296484464,17.60817448,4
0.003681832,0.267077393,4.059142629,18.80226485,2.89850284,0.008240682,0.748355007,17.98329464,4
0.00108284,0.27009185,4.003299793,18.37508081,2.899802617,0.008515746,1.031333807,15.45600895,4
-0.001148679,0.269022087,4.013389265,18.52638839,2.902002771,0.008707947,1.640357767,15.26163311,4
0.001657601,0.267821023,4.046898788,18.75901623,2.903373173,0.008792772,1.458175364,17.64583163,4
0.002217329,0.270862107,4.012143137,18.37467627,2.903879711,0.009011044,0.998562972,29.64131485,4
0.002861605,0.268619075,4.063927499,18.73784292,2.904516002,0.009077296,0.728830528,27.96821746,4
-1.19E-05,0.255865954,4.254647268,20.89811406,2.90608902,0.008531571,1.074967888,16.44166776,4
-0.000799824,0.257994223,4.198296255,20.4256033,2.907913426,0.008414077,1.095710678,11.92005403,4
0.002875992,0.26890933,4.044565634,18.62524525,2.909779412,0.008633662,1.235076418,15.88538577,4
0.002213654,0.269101806,4.035585118,18.59247682,2.911017881,0.008736834,1.803642568,20.70441375,4
0.000501055,0.269817481,4.027769287,18.53987267,2.911937005,0.009088828,2.388896534,24.59748132,4
0.001795866,0.271448433,3.997781582,18.25665659,2.913850294,0.00921065,1.776165325,19.62455359,4
0.002112324,0.270873981,4.006840739,18.3052793,2.916474806,0.008930785,1.193873422,17.52338003,4
-0.000547283,0.27008533,4.014963339,18.48166243,2.919313267,0.009001031,1.587682131,16.04466666,4
0.001142585,0.268870652,4.045363217,18.75959818,2.921607372,0.008675837,1.213958615,13.89929652,4
0.001162563,0.259410287,4.19623703,20.3621001,2.924563871,0.008887477,0.950316679,15.92813127,4
-0.000928959,0.259284857,4.153303603,20.0894669,2.928773008,0.009296191,0.128834905,30.66254857,4
0.004077693,0.268752407,4.042910951,18.64034018,2.931362861,0.008964662,-0.136149794,31.11367994,4
0.000849086,0.261307497,4.154505488,19.98541092,2.933005088,0.008525801,1.315523601,15.42930313,4
-0.001882174,0.260503984,4.143931706,19.94238566,2.934519686,0.008532533,1.264751784,14.78077897,4
0.001044819,0.269931003,4.023792696,18.50889877,2.937104743,0.008932519,1.21020154,14.18805986,4
0.004861091,0.280289819,3.895705478,17.10283936,2.940866525,0.00890916,1.177705767,15.97815297,4
0.001977264,0.281624514,3.86797067,16.90028946,2.942737089,0.008296848,0.885571208,16.59932115,4
-0.001964872,0.270700445,3.959822247,18.15828349,2.943918555,0.008543172,1.912655631,18.77264914,4
-0.000619779,0.268378934,3.990253005,18.42297231,2.947974287,0.009094337,1.755435779,14.61626,4
0.000492207,0.25913595,4.171018009,20.16851831,2.951142665,0.00830687,1.447989674,18.98793293,4
0.002558252,0.256873121,4.228755795,20.59769311,2.953284618,0.008797563,1.1687363,14.0711572,4
0.001594698,0.258132219,4.166775791,20.20501115,2.957237244,0.008839688,0.975534021,11.54701791,4
0.001886516,0.271124164,3.947052436,18.00242855,2.96067058,0.008509726,1.372971566,11.41160574,4
0.001204259,0.270480336,3.970214351,18.18263632,2.961916842,0.008495929,1.633294436,12.24699549,4
0.000219615,0.261715914,4.120445237,19.73195336,2.96393934,0.008678806,1.547404041,13.67198609,4
0.000922603,0.270238054,4.007241002,18.40412494,2.966080747,0.008545464,1.898602937,21.12494401,4
0.001832369,0.269455933,4.022599209,18.58167162,2.966270447,0.008604906,2.020881398,22.02960268,4
0.000656551,0.271266742,4.004156336,18.36569571,2.968563679,0.008894999,1.893628826,19.39673827,4
0.000348123,0.270160425,4.008136809,18.41266472,2.969959368,0.008882828,2.163422418,24.70998025,4
0.001558254,0.267908715,4.035554227,18.67568104,2.970889119,0.009069871,1.662469558,19.61881176,4
0.000959767,0.269162358,4.065221587,18.79805751,2.970344489,0.009069292,1.239412441,14.39932104,4
0.000966699,0.268712877,4.061465355,18.83412411,2.971328735,0.009362559,1.275642214,15.04585542,4
0.001867525,0.269487227,4.023510463,18.54698976,2.975235094,0.008795204,1.317838058,18.99848431,4
0.000730715,0.270894694,4.010192897,18.39546059,2.977155086,0.00863263,1.444650342,19.06511724,4
0.001551825,0.268707722,4.035335286,18.64747542,2.978524726,0.008825553,1.182846822,22.08176259,4
0.001989035,0.269326387,4.057687279,18.73543762,2.980150005,0.008807528,1.568018811,22.19050179,4
0.001137883,0.269829114,4.047359045,18.64796368,2.98348078,0.008842191,2.507805899,21.08901519,4
0.001043028,0.268197132,4.030180955,18.63305724,2.986215537,0.008896365,1.846874647,20.29344956,4
0.001735035,0.26834724,4.043849329,18.71122292,2.98706834,0.008651516,1.304772819,18.2315592,4
0.001455617,0.269419137,4.056501912,18.6987646,2.989795685,0.008954897,1.438817337,14.52270344,4
-0.000559086,0.267192828,4.111438484,19.10214674,2.994231088,0.009353242,1.743166341,15.59529728,4
1.48E-05,0.279205374,3.971360286,17.52659303,2.994923946,0.00922106,2.138757623,19.76655622,4
0.001612374,0.280429426,3.943889894,17.35429047,2.993092401,0.008651166,1.725337254,19.43315849,4
0.00161911,0.268552452,4.096281532,18.99067128,2.992194421,0.008657407,1.400756112,17.15527333,4
0.003960539,0.27885115,3.944317092,17.33145782,2.993209239,0.0088215,1.598000685,19.86379759,4
0.004840596,0.279962585,3.938677941,17.24957432,2.99440264,0.008687118,1.500142968,19.60083915,4
-0.000945256,0.272827408,4.012976475,18.3348563,2.994188527,0.008848242,1.633529515,22.11782181,4
-0.002053312,0.272286347,3.993300312,18.2425639,2.995131629,0.008558326,1.384716639,19.79865909,4
0.000231524,0.27151912,4.027836682,18.43146924,2.997922134,0.008414809,1.377814057,15.71667306,4
0.001258817,0.281697091,3.89810987,17.02242398,3.000771713,0.008793314,1.557488339,16.06122381,4
0.00194422,0.279788176,3.914451204,17.19032637,3.002286257,0.00899869,1.178926766,15.40407179,4
0.001261924,0.270083758,4.046590367,18.56856665,3.004309736,0.008790338,1.070077903,14.43794375,4
0.000294983,0.270536631,4.016156978,18.29863843,3.008025469,0.008369599,1.921292058,13.12076667,4
0.000175454,0.269461149,4.04208288,18.56929988,3.010706275,0.008517823,1.880990625,16.69481135,4
0.001354856,0.271844216,4.037955344,18.48330541,3.01134649,0.008572979,1.394214187,18.3791828,4
0.004752267,0.283508866,3.864075664,16.70301467,3.015250015,0.009537021,0.925228124,12.73591632,0
0.002266349,0.283206991,3.880402194,16.89824886,3.01890831,0.008848028,1.472794963,20.71011305,0
-0.00523254,0.278178503,3.847019855,17.34182716,3.01481841,0.014902131,-0.535241724,3.544231974,0
0.002090319,0.300018815,3.468602355,13.99025915,3.012088449,0.015510523,-0.237534272,1.331073289,0
0.003270695,0.313786999,3.363847213,12.58257535,3.024140167,0.017567982,0.321257485,-0.16419133,0
-0.001425855,0.313408386,3.500424776,13.26926775,3.035197449,0.01264734,0.267989475,3.716519742,0
0.004964395,0.305554065,3.613634328,14.26867596,3.032383183,0.009494964,1.37558093,15.19740425,0
0.002262726,0.288042001,3.741947194,15.98685788,3.02719198,0.009041944,1.000605106,17.87876005,0
-0.001043047,0.280530816,3.780453164,16.74447098,3.026435253,0.008840943,0.469562666,16.0891081,0
0.000169196,0.281634671,3.781817946,16.62308609,3.028603472,0.008723685,0.996431861,16.27368701,0
0.000621381,0.282228557,3.766336041,16.52088222,3.029860469,0.008809326,1.688537001,16.05667804,0
0.000906529,0.282709433,3.759397905,16.53010962,3.029863794,0.008691009,1.64756535,16.15867207,0
0.000913494,0.292268473,3.680218654,15.47743928,3.030877141,0.00891285,1.722416217,18.36538816,0
0.001379824,0.290012339,3.741119668,15.84715916,3.031975501,0.008855577,1.298361882,19.83932195,0
0.003908458,0.284417532,3.84671009,16.64848888,3.031550544,0.008987391,1.819861652,24.18031158,0
0.000670074,0.288193924,3.748115078,15.87170747,3.032383565,0.009352842,1.947332855,22.25528515,0
-0.00083808,0.300040315,3.604679646,14.52073137,3.032955388,0.009778585,0.79596178,11.71986325,0
0.002340147,0.309679176,3.544933708,13.83892869,3.038881956,0.011999866,0.463529246,5.627934652,0
-0.001193272,0.309680309,3.492181607,13.50295212,3.039094489,0.012626321,0.388221229,7.761963663,0
0.00691609,0.310308086,3.246212996,11.99495914,3.035048621,0.018373822,1.206129284,5.592554914,0
0.001226074,0.314595341,3.137416592,11.49032742,3.029951859,0.019518497,1.398085037,4.501504741,0
-0.003284441,0.335828778,2.978139765,10.3411967,3.032450812,0.014163136,0.051871571,1.631522458,0
0.000378244,0.32345833,3.041995158,11.05596765,3.04336428,0.009331537,1.234573053,14.54686407,0
-0.002238471,0.274336888,3.668607185,16.34597782,3.045902416,0.009168206,1.354212366,17.63488775,0
0.000201423,0.266033274,3.892840074,18.18342184,3.049611718,0.009063682,0.456056905,14.21935037,0
0.001246589,0.292829964,3.452402228,14.21596847,3.055232675,0.008820276,0.576215783,16.5599368,0
0.001971313,0.305597732,3.265815213,12.68806664,3.060518973,0.009507685,-2.231970455,114.1373558,0
0.000422993,0.304512579,3.33363512,13.06191035,3.064279175,0.009589206,-2.445209191,113.842936,0
0.002296221,0.303270357,3.362450629,13.25160665,3.068764932,0.009809342,1.198337626,13.847894,0
6.91E-06,0.313903873,3.315550263,12.58362879,3.078030613,0.011413653,0.908221507,5.496989963,0
0.00075926,0.315222692,3.334374112,12.67630623,3.087691552,0.009785152,0.875068737,9.087054649,0
0.002267009,0.305273768,3.417127688,13.5338744,3.093191637,0.008597689,1.124854315,15.92609545,0
0.001426529,0.314595951,3.338147873,12.6430469,3.0983872,0.008937702,1.132524432,14.23337992,0
0.001487784,0.311632474,3.398388872,13.05667285,3.10662493,0.010421938,1.287180968,8.088245742,0
0.000796489,0.297333638,3.603421772,14.71012178,3.11515977,0.010147121,0.997438428,14.44703382,0
0.001466917,0.295686493,3.615896413,14.8019622,3.12060961,0.009103669,0.794374302,20.42979748,0
0.000941483,0.296481783,3.592874178,14.65602982,3.124727031,0.008686493,0.821706088,12.44018835,0
0.002083485,0.294564552,3.629999526,14.90192418,3.127245113,0.008930669,1.472078074,18.84036686,0
0.003933347,0.293475093,3.608850337,14.80426496,3.129896654,0.009587381,1.486896171,14.37292913,0
0.000548558,0.301803254,3.446399497,13.58214532,3.134828785,0.009169359,0.592616865,8.978068249,0
-0.001168141,0.300434084,3.347411566,13.22592333,3.145746613,0.01496352,0.679054778,1.823575003,0
0.000681689,0.305756403,3.421331004,13.31274601,3.152889088,0.013763629,0.298659181,2.664883226,0
0.000916672,0.315231623,3.510158042,13.21161594,3.150213242,0.010565498,0.934243173,10.38559223,0
0.004871809,0.304283101,3.600333168,14.18441498,3.151867512,0.009315811,1.36804251,18.38953173,0
0.000935865,0.300330919,3.566421439,14.39676202,3.15724193,0.008738514,0.775724087,19.45073078,0
-0.003212049,0.301174193,3.538806506,14.29253227,3.160807419,0.0086464,0.050506143,14.41428275,0
0.000443024,0.297469177,3.599999019,14.70561757,3.165657425,0.00886646,0.59273236,9.83017051,0
0.004936707,0.294498269,3.667168678,15.11846849,3.169930104,0.007959095,1.939229229,19.71711914,0
0.00241779,0.289247637,3.693263218,15.54144988,3.172515488,0.00849855,1.768890651,21.05765774,0
-0.002080229,0.300392098,3.524821628,14.10577506,3.175829261,0.0087872,2.052329797,23.85805674,0
-0.000153514,0.306980261,3.482286336,13.58937408,3.178787831,0.008764455,1.961234509,21.86885983,0
0.000345801,0.300072725,3.567718427,14.38286698,3.182252884,0.00880707,1.254468076,18.65762386,0
0.003033175,0.299378892,3.55515095,14.3133407,3.186755971,0.009013735,1.504454676,23.3985297,0
0.005647927,0.30048612,3.45473098,13.53036216,3.185681207,0.010439179,0.685203863,12.3602328,0
-0.001128806,0.288654039,3.626550112,14.9697471,3.178725815,0.010088856,0.695938232,9.6965983,0
-0.002272993,0.284433308,3.793206873,16.30242848,3.179500689,0.009334823,0.769432007,11.34019713,0
0.002499887,0.303948678,3.538785576,13.85901348,3.191286904,0.012043276,0.502738285,3.386406507,0
0.000865651,0.303275946,3.537869169,13.87392956,3.193443462,0.010674569,0.881462988,6.501754793,0
0.000193314,0.304030289,3.520182585,13.94141683,3.188852583,0.008392337,1.228915432,15.55829284,0
0.000759881,0.30600098,3.526082599,13.90989434,3.186777006,0.008932091,0.855175586,11.20016663,0
0.001524327,0.307174785,3.545501921,13.8543024,3.185737719,0.0086204,1.297190106,19.42945081,0
0.001255999,0.305603648,3.540850447,13.85799615,3.190564019,0.008687297,1.497502742,22.06678265,0
0.001142127,0.295129221,3.645538338,14.94557655,3.195392554,0.008144586,1.611322469,20.79415735,0
0.000989639,0.295406413,3.656328701,15.02904169,3.199818039,0.008590237,1.018104773,13.69164648,0
0.004476556,0.304819765,3.555755529,13.98271007,3.204465921,0.010111361,-4.080241562,151.0979793,0
0.00064117,0.307821263,3.478141892,13.53289564,3.210916792,0.011113912,-3.208748915,112.9439757,0
-0.002014481,0.308531966,3.46178477,13.42052911,3.224852753,0.016868619,0.830478766,0.77126174,0
0.001747866,0.30654997,3.507353922,13.66829253,3.230075891,0.014661105,0.694339103,2.229015026,0
0.000941496,0.296420791,3.626821195,14.83964637,3.226907294,0.009289195,1.144699971,16.89708727,0
0.000874361,0.296609201,3.622183584,14.80513322,3.227978025,0.008484663,1.363701989,18.83299353,0
0.000326242,0.296160994,3.626812313,14.79060754,3.22891971,0.008311203,0.651082294,17.79199065,0
0.002188843,0.307710227,3.351457376,12.88548467,3.228773989,0.00877804,0.6129521,13.36517517,0
0.002250105,0.318158536,3.214695436,11.77938664,3.230127771,0.009839527,1.358264489,12.04726049,0
0.001889845,0.319791598,3.240246169,11.85864279,3.239086206,0.011606904,0.856177823,7.96875216,0
0.000106698,0.327912573,3.166462792,11.26901589,3.245727103,0.009337111,1.443265144,20.56678176,0
0.001382002,0.328962665,3.167217907,11.05764759,3.245117296,0.008745502,1.7477653,17.07849273,0
0.003658683,0.300565396,3.383196593,13.22855284,3.246731131,0.008856134,1.440299819,16.7276129,0
0.003238142,0.290199673,3.494468138,14.35097533,3.254422651,0.010851269,0.940885799,8.785521769,0
-0.001684381,0.312695695,3.350981172,12.59834036,3.261487416,0.010306221,0.537538651,19.1954563,0
-0.004675886,0.313007787,3.207879582,11.8359011,3.23256667,0.036422011,-0.268702257,-1.501424843,0
0.006647794,0.319076346,3.1137342,11.0712249,3.326357705,0.169724906,0.932590409,-0.446006126,0
0.004655064,0.320154377,3.191806965,11.4164271,3.370007706,0.14306372,0.943598746,0.016454199,0
-0.00221128,0.302098095,3.22164334,11.86233082,3.270897239,0.036527996,1.516291067,1.719764047,0
-0.005290859,0.293943761,3.408284428,13.3397864,3.253777749,0.00896944,1.645894908,28.39726389,0
0.000944981,0.290222741,3.647285976,15.25753043,3.253802654,0.008713785,1.918156025,35.18235425,0
0.006177763,0.285085957,3.646448105,15.17640698,3.252313559,0.009148461,0.863209388,60.09298918,0
-0.005787774,0.281148103,3.405339833,13.88331869,3.256521061,0.013454513,1.181287657,12.57418904,0
-0.000753924,0.298577461,3.401412076,13.40381225,3.262041582,0.014462923,1.256213817,4.728647767,0
0.005031967,0.310082517,3.452077949,13.34319701,3.256975228,0.014035387,1.074750415,5.622428928,0
0.000458418,0.309845889,3.353662492,12.78844464,3.253844615,0.010884927,1.109187742,9.805008318,2
0.003278543,0.311119259,3.364589579,12.63105246,3.256462261,0.00885805,1.690530622,23.31200193,2
0.001899301,0.299181401,3.5260874,14.12091041,3.256663295,0.008613549,0.852575627,12.74180262,2
0.000517626,0.301588716,3.491903273,13.87585332,3.255952563,0.009352932,0.880854968,8.939092452,2
0.000366819,0.303231883,3.489501797,13.71134474,3.278787667,0.041533208,1.28682198,0.165879081,2
-6.36E-05,0.297013899,3.53319216,14.2925514,3.310947527,0.034765113,-0.225838169,-0.506002435,2
0.001934875,0.297870847,3.429633964,13.69608812,3.319864982,0.009378386,1.844196134,16.98640466,2
0.000657643,0.303970441,3.315986544,12.83525289,3.31605181,0.011093762,0.735741512,8.913897718,2
0.000931961,0.315733846,3.043508994,11.08961261,3.309698977,0.011886935,0.606630364,11.02062321,2
0.000885099,0.318252015,2.759421777,9.770189632,3.308597074,0.013984081,0.426113321,4.742109816,2
0.002315048,0.3135202,3.046182252,11.14806538,3.307428088,0.01364068,0.42093041,4.004381182,2
0.005380927,0.307123654,3.376714513,12.70553303,3.299467087,0.012186289,0.897263384,6.868089122,2
-0.001116832,0.297293865,3.439257888,13.65550653,3.286341803,0.012736791,0.105307446,3.682871909,2
-0.000907523,0.300449986,3.498505043,13.89906554,3.285261699,0.012400793,0.308886509,5.273594339,2
0.002708202,0.298877311,3.486039167,13.65803628,3.289820589,0.009475275,1.285018545,22.92256436,2
0.001246164,0.28914396,3.582801213,14.70886543,3.290225601,0.009165333,1.131891511,22.30177697,2
0.002170146,0.300733767,3.478047333,13.72527022,3.293523952,0.009403281,1.383980303,22.80300354,2
-4.69E-05,0.301906991,3.479662658,13.74054494,3.29989297,0.012056001,-1.646212127,78.03946261,2
-1.05E-05,0.291552845,3.629377375,15.01429895,3.304976981,0.010737755,-2.628706161,129.1289539,2
0.001458056,0.298355064,3.555975785,14.19388399,3.30547202,0.009798731,1.093426173,12.62047979,2
0.001698153,0.297907579,3.51585227,14.05110152,3.312494823,0.011630955,0.356810808,4.02908297,2
0.000873707,0.291009145,3.571338725,14.6586766,3.319087274,0.008452662,1.453786897,15.72389372,2
-0.000628189,0.301712008,3.479056015,13.62665682,3.312147903,0.011099212,0.407335231,4.840756031,2
0.001390353,0.299077397,3.541005612,14.07871091,3.312928826,0.012090709,0.626263037,5.898940435,2
0.003286946,0.290734808,3.574106209,14.64513909,3.323713739,0.010231364,0.668618242,22.96323996,2
0.00070992,0.304227394,3.422094761,13.28277893,3.323038919,0.010039151,0.435146487,21.05401967,2
0.000695193,0.302589015,3.467236534,13.65687192,3.324502182,0.010547892,0.844261244,7.193531035,2
0.002117661,0.302292856,3.420818769,13.26715505,3.332736588,0.009944128,0.750618208,15.72996903,2
0.000576154,0.302741156,3.442938696,13.35080365,3.338090079,0.009885846,0.477931649,21.36585364,2
0.000620884,0.291983985,3.601000944,14.82665743,3.337784086,0.009810223,1.162701163,17.26406139,2
0.000507111,0.282749171,3.755181304,16.20633968,3.344028909,0.012922399,0.538607718,4.819869696,2
-0.00099918,0.272876293,3.914910874,17.71706858,3.356104769,0.009745107,1.087996104,18.41771144,2
0.004092643,0.285160584,3.660404578,15.49321271,3.37089544,0.022783564,1.366684423,0.927660475,2
0.00331757,0.296014643,3.505593931,14.13680814,3.385637174,0.020485154,0.234848188,-0.10018532,2
2.43E-05,0.303029612,3.414773436,13.18677448,3.404608699,0.029696754,1.340033576,1.429889513,2
0.00083589,0.302914794,3.406216341,13.13636557,3.404064451,0.029984791,1.371570451,1.252889202,2
0.001210334,0.296440075,3.486313141,13.96201527,3.379930496,0.013376462,0.665888771,4.703141109,2
0.000157399,0.306596382,3.399513898,13.00331431,3.373657336,0.009569455,0.69825763,18.86325208,2
-0.001401653,0.305336598,3.478530697,13.5763664,3.373279681,0.009076854,0.32163893,17.38902357,2
0.003174264,0.295659167,3.554108063,14.46018794,3.371453803,0.008981846,0.526343544,16.60598448,2
0.001797546,0.307605288,3.313048465,12.65520608,3.369049726,0.009137825,0.757110474,13.29715577,2
-0.001251251,0.307287631,3.353853836,12.86956284,3.369874845,0.009285068,0.803380335,17.02217299,2
0.001402503,0.293070862,3.624165011,14.91961437,3.376146752,0.009212302,1.390959345,20.42733339,2
-0.000559158,0.294495583,3.577765545,14.70037614,3.380589676,0.008376145,1.548853807,21.07865496,2
0.001787711,0.29625727,3.513291295,14.19194771,3.381073271,0.008394394,0.877437051,17.55261081,2
0.001971307,0.30412693,3.422410685,13.28708024,3.373325457,0.012510992,0.335726165,7.929192806,2
0.000270545,0.307114801,3.395802413,13.10880807,3.372980445,0.011911439,0.335204509,8.27715451,2
0.006166888,0.304108209,3.441654868,13.46686133,3.379419817,0.009021927,0.363227903,51.01392117,2
0.003076702,0.295997246,3.467714543,14.07324028,3.399427141,0.065103781,3.691559509,12.34705056,2
-0.002357594,0.297670951,3.309741915,13.59867425,3.449904851,0.083224882,1.592124815,1.672947378,2
0.000224167,0.303702017,3.370897677,13.46415728,3.449712862,0.05670069,2.553772492,6.51523002,2
0.001289808,0.304802907,3.489233586,13.53751237,3.411883109,0.012844787,-1.042882633,55.87886079,2
0.001138909,0.302012777,3.485271242,13.67238838,3.407028362,0.009872141,-3.369111822,141.288251,2
0.001467702,0.291124429,3.63284747,15.06153267,3.408853858,0.008906569,-0.28369709,23.94718729,2
0.002848317,0.29035391,3.665397148,15.22205887,3.409580285,0.00912687,0.263538912,28.7249772,2
0.000757383,0.279248294,3.786213717,16.59483391,3.411484201,0.008584733,1.517200535,20.45770155,2
-0.000474747,0.28262625,3.732977395,16.11593156,3.413832419,0.008922892,1.142433789,23.9185179,2
0.002674648,0.2930864,3.62479594,14.77619907,3.416432844,0.010050403,1.687000451,21.64768658,2
0.003499178,0.301376059,3.494038817,13.69249682,3.414888927,0.010561483,1.091640293,18.59429743,2
0.003184806,0.305767228,3.385432548,13.05194349,3.408634131,0.010866715,0.084782682,13.05264846,2
-7.59E-05,0.302458712,3.3027585,12.96088483,3.408229446,0.010322011,0.465408275,14.89455628,2
-0.001776653,0.302373296,3.279169923,12.95229089,3.411942182,0.008980325,1.384535213,19.22198371,2
-0.000900022,0.300108219,3.447312511,13.78475459,3.414001465,0.008840729,1.604940613,15.37065524,2
0.003671899,0.304511494,3.452804031,13.36981288,3.415222222,0.009225585,1.851736223,23.98051809,2
0.003709226,0.293495313,3.605059525,14.69574801,3.420128305,0.010691536,0.205350476,14.0178978,2
-0.001745499,0.274804338,3.917030994,17.52332199,3.426047952,0.008686845,-0.751892235,40.1277229,2
-0.001225433,0.270989438,3.974547959,18.02867684,3.42618588,0.008530108,0.395409346,36.83950272,2
0.000566659,0.278806528,3.76333132,16.15893374,3.425985391,0.009006677,0.518805034,15.40035831,2
0.000877108,0.285170655,3.689090285,15.66452834,3.428544508,0.00973486,0.372739087,15.73589976,2
0.002094053,0.279322965,3.805154967,16.89664538,3.433522197,0.008694751,0.957983151,25.92317372,2
0.001324703,0.284385599,3.729102738,15.89767794,3.437321908,0.008217668,0.803558341,31.92182883,2
0.002203648,0.288153922,3.677022392,15.41864591,3.438760158,0.008803582,0.380411686,32.97304044,2
0.003462806,0.287605589,3.669618394,15.47127892,3.439716775,0.009012445,0.439479981,31.2945743,2
-0.00045626,0.28421321,3.725863281,15.9890075,3.441900635,0.008921249,1.149113698,31.79880857,2
-0.000937559,0.275216413,3.822159696,17.04519744,3.443840572,0.00860044,1.423194595,29.84687555,2
0.000913252,0.284252078,3.720208355,15.8746544,3.445565142,0.008308488,1.035953764,25.03825589,2
0.001005478,0.292163831,3.625305908,14.86203335,3.447998101,0.008704631,0.920008672,24.07168763,2
0.000999318,0.303562746,3.484253059,13.5534526,3.44819276,0.008625358,1.564500086,25.76528969,2
0.002836637,0.307948897,3.432046824,13.06364245,3.447381156,0.008730148,2.106328295,35.22859582,2
0.001241887,0.304417921,3.447754518,13.35482492,3.447384644,0.008756684,1.423271177,32.79054468,2
0.002952098,0.307436002,3.433758305,13.08801078,3.448148945,0.008402697,2.111970136,34.50674846,2
0.002471028,0.300831788,3.497982382,13.69684729,3.449943052,0.008701069,2.073820012,37.23911464,2
-0.002697045,0.295064013,3.548689821,14.38951609,3.452240045,0.008772656,1.876454364,30.41465334,2
7.68E-05,0.291672182,3.613662553,14.83083438,3.455418723,0.008787603,1.676469,25.85542127,2
0.002576261,0.293962882,3.468879766,13.77940806,3.459256526,0.009433319,0.662960866,18.8777857,2
0.001264069,0.306113105,3.417300943,13.06704901,3.464778628,0.009768125,1.066150838,22.74760779,2
-0.00018357,0.311528427,3.438668039,12.99263025,3.468161665,0.008463879,1.901570305,33.55136603,2
0.000804095,0.301134887,3.4520607,13.44846194,3.471139853,0.008724367,0.914590696,22.1093302,2
0.000818455,0.292106036,3.543516047,14.42191605,3.476350239,0.008820461,1.576534906,27.62357039,2
0.000514422,0.292703973,3.503996059,14.25458504,3.479836873,0.008719051,2.508392947,35.78437183,2
0.00456121,0.291946379,3.508053016,14.29263306,3.482327652,0.008434089,2.855374443,40.84238607,2
0.002110755,0.281929048,3.680492242,15.79007347,3.484370695,0.008489501,2.574919344,40.2544253,2
-0.00180886,0.282092923,3.67592787,15.79653481,3.485155923,0.008962687,0.29521467,60.44718143,2
0.003918529,0.291882005,3.543229508,14.44947403,3.486633137,0.008822537,0.181954878,57.44742026,2
0.002281762,0.288560947,3.632477631,15.01485048,3.492524556,0.014236397,1.780774559,5.56754298,2
0.002604479,0.285736568,3.727321751,15.49842624,3.507386289,0.017820885,0.119340903,0.452283485,2
0.004577434,0.289546361,3.682163624,15.067272,3.506572832,0.015361453,0.106847604,5.589689428,2
-0.003311103,0.292682254,3.626290581,14.91289682,3.49350684,0.009923942,-0.194968883,27.14457496,2
-0.002766769,0.292126545,3.63046175,14.97153588,3.492894908,0.009121802,0.617185358,12.6759929,2
0.003155463,0.2887237,3.691638011,15.29301538,3.49007225,0.009381257,1.195392553,16.48881864,2
0.00067715,0.279358263,3.842749238,16.73420124,3.485089547,0.008387832,2.64824708,33.80404084,2
-0.000574677,0.283344678,3.802669263,16.33906571,3.483746065,0.00840167,2.574837024,29.65372502,2
0.001646661,0.293578694,3.667223636,15.01085498,3.484135927,0.0083507,1.875273874,23.88958069,2
0.001457644,0.282062248,3.818035232,16.50143269,3.485222408,0.008513693,1.426791234,25.1587735,2
3.12E-05,0.283592909,3.811412555,16.39159107,3.48353484,0.008865761,1.680887539,22.85073847,2
0.000975154,0.294563213,3.655129724,14.91248753,3.482800783,0.008405112,1.860105717,19.79697651,2
0.002290362,0.292902037,3.669175197,15.06589837,3.484863445,0.008519681,1.334018184,26.94566237,2
0.002686497,0.292381537,3.694712395,15.22752079,3.486375209,0.00845791,0.874889674,30.06949635,2
0.00055562,0.289525122,3.737511979,15.62596603,3.489032636,0.008697441,0.509023103,19.36256955,2
-0.000416356,0.282050997,3.816262784,16.54799245,3.490773283,0.008612076,0.997206049,23.20960722,2
0.001076987,0.283500418,3.794588835,16.30126361,3.493836594,0.009092771,1.119140372,22.30643293,2
0.00096889,0.28985706,3.741494481,15.57325262,3.498292542,0.008510258,1.697862572,30.07096041,2
0.00114832,0.286486203,3.71930983,15.71110856,3.50298075,0.010681942,0.894688578,10.62643524,2
0.001827046,0.287851124,3.62476999,15.1910228,3.510037068,0.011633424,0.375631766,9.72990717,2
0.004912752,0.299628999,3.572527216,14.16305368,3.519926725,0.011553381,0.768234645,9.679520784,2
0.004725024,0.297240024,3.674115992,14.73893505,3.525313841,0.008355381,1.821836235,25.37179375,2
-0.002392005,0.280461271,3.847442604,16.81100334,3.524462727,0.008115683,0.467235035,18.79942438,2
0.000717159,0.281819117,3.856785431,16.79955446,3.527901077,0.008918461,0.621966963,17.56765265,2
0.000611441,0.281363243,3.874754783,16.92354374,3.532806505,0.008674217,1.205898632,24.37750711,2
0.001373075,0.28012395,3.870668383,16.90784127,3.53773395,0.009119126,0.434333295,17.14909677,2
0.001915761,0.278399569,3.871354936,17.00062174,3.54133982,0.008621324,-0.27812718,24.53898072,2
-0.002403743,0.270596735,3.950051409,18.03199426,3.543024663,0.008714739,0.302522646,26.57414091,2
0.004533351,0.28728061,3.73647487,15.65763962,3.544921494,0.008766378,1.222358662,16.90391826,2
0.001169776,0.289198151,3.691189045,15.38999539,3.545386396,0.008825337,0.7869151,12.48492449,2
-0.002198273,0.280221399,3.810180907,16.63477348,3.54402929,0.008820031,1.115497106,16.39856944,2
0.003902376,0.28701306,3.747509182,15.75456043,3.546326882,0.009296681,1.19129749,13.72040828,2
0.000233773,0.281025557,3.851564796,16.66651354,3.549550738,0.007976055,1.243409543,23.15470321,2
-0.000578293,0.278426448,3.869916612,16.96134987,3.550444085,0.008776413,-1.293789758,91.48520798,2
0.001749854,0.275461436,3.894088198,17.27964347,3.554650715,0.009174198,-1.23744045,77.96164926,2
-0.000290294,0.276837787,3.905359722,17.22350412,3.557493864,0.00843118,-0.64366695,52.93431168,2
0.001147169,0.287924365,3.742952248,15.65782659,3.559996414,0.009131668,-0.26808787,45.12945739,2
0.001684897,0.288116064,3.738754002,15.6498235,3.561517933,0.008605072,1.799698711,25.59670225,2
0.001276199,0.287811506,3.788782064,15.95613151,3.560959353,0.008445348,2.082860089,28.17598912,2
0.00081357,0.28623634,3.790848869,16.06531687,3.563678796,0.00853751,1.718218786,21.69494491,2
0.001530173,0.287066371,3.755358326,15.79126575,3.56661971,0.008299597,1.485963841,24.70698568,2
0.001521548,0.280121117,3.855805748,16.78226065,3.568668474,0.008486229,1.452394668,29.18223572,2
0.002984619,0.289040282,3.759321242,15.68466297,3.571424702,0.008534198,1.662575415,23.80421912,2
0.000962821,0.288350196,3.778679688,15.84784901,3.573085676,0.00837118,1.756866841,21.2308941,2
7.27E-05,0.283835753,3.822573675,16.46429344,3.59101181,0.025790031,0.766540118,-0.554433528,0
0.001528721,0.287100183,3.735792033,15.82582733,3.609489332,0.019403414,-0.368089288,1.17810775,0
0.003450112,0.296204957,3.435528672,13.81505509,3.605193274,0.015770999,-0.022514328,2.004310766,0
0.001848973,0.316638597,3.154439211,11.38889916,3.573618208,0.032986934,-0.016615425,-0.943206771,0
-0.005756189,0.319136076,3.069821983,10.92690947,3.538312531,0.018344445,1.244912976,1.916355461,0
0.004065183,0.333176933,3.0046387,10.34482903,3.537715694,0.01274929,0.296850784,4.911048228,0
0.001897156,0.336570963,3.035783245,10.38053665,3.54915608,0.013389508,0.63830081,5.801749294,0
-0.003669695,0.323055957,3.215210556,11.61823291,3.521584102,0.036160778,-0.097855294,-1.301788812,0
0.002623849,0.298151493,3.638956831,14.77930996,3.508400508,0.026142309,0.015659675,-0.853165574,0
0.000227822,0.274123682,3.9458735,17.79305765,3.54083944,0.019707204,-0.529808493,0.179811598,0
0.001255986,0.272383639,3.998919674,18.1397354,3.559891891,0.010005963,-0.289555117,12.5287781,0
0.00118944,0.274457976,3.954617523,17.81076608,3.567679923,0.009323312,0.26760231,17.43024686,0
0.001769531,0.274696042,3.98765502,17.94503866,3.575283214,0.009589528,0.999080719,10.54053425,0
0.002832321,0.281449533,3.866691191,16.71225026,3.585542406,0.011467822,0.255389977,5.744363182,0
0.000107372,0.286423452,3.761987063,15.99265308,3.595614461,0.010677252,0.497541976,12.09953551,0
7.59E-07,0.277971023,3.923617617,17.45265974,3.605009624,0.010996089,0.266076961,17.34785965,0
0.00255578,0.27431993,3.946154258,17.67320889,3.613687188,0.00940563,-0.216561003,35.02272081,0
0.001811031,0.274309098,3.918722129,17.54419717,3.620591736,0.009601995,0.106696336,30.04966182,0
0.000190848,0.276251071,3.898328388,17.39258608,3.627528,0.009444032,0.614115219,40.43279129,0
-0.000134419,0.278710806,3.882082568,17.21201917,3.631979643,0.008458453,1.905370485,28.04163201,0
0.001308936,0.277589589,3.900512025,17.36527483,3.634429441,0.008200887,1.668327453,27.16777585,0
0.001912569,0.265400938,4.063935421,19.14096715,3.63670954,0.008509123,2.543475506,34.37952281,0
0.000946943,0.265666314,4.061558173,19.10108479,3.638339451,0.008679911,2.469021024,39.98841299,0
0.001654194,0.266205229,4.04092256,18.9836944,3.64010958,0.008991256,1.734547203,39.44419291,0
0.000662842,0.266940843,4.041771475,18.97221406,3.643089894,0.008556657,1.914874852,33.93015289,0
0.000474963,0.277254292,3.905902809,17.47144235,3.64492024,0.008294979,1.581729867,22.67292571,0
0.001541153,0.276113162,3.937302372,17.67894816,3.644591032,0.008821496,1.64781829,28.5961712,0
0.001017347,0.276881836,3.94530924,17.65391186,3.645137623,0.008623806,2.655400512,38.17686042,0
0.001788136,0.27635254,3.944990145,17.69884746,3.646918542,0.008173011,2.305875361,30.80077006,0
-0.000680695,0.282340322,3.831288427,17.01560335,3.647113909,0.008553395,1.357973237,30.2208233,0
-0.000350843,0.286892248,3.701238022,16.31086864,3.651789965,0.011332887,1.355357891,16.82615416,0
0.003550735,0.291158681,3.606539636,15.17809277,3.653484508,0.013654672,-0.369775504,11.63404156,0
0.005653022,0.306215954,3.496847887,13.54944707,3.635784967,0.02051531,-0.052779052,0.28711144,0
0.004827491,0.304168291,3.571551064,14.05263644,3.641657312,0.023845435,-0.13405484,-0.643381337,0
-0.001635328,0.286323641,3.824997729,16.4102465,3.662665721,0.010097265,0.864654951,16.22801962,0
-0.00461261,0.272779248,4.01778672,18.15328504,3.65690433,0.011246672,0.373282506,11.22182369,0
0.000450681,0.271777324,4.044375201,18.45910367,3.653463146,0.009434129,0.030935354,21.69071289,6
0.002738735,0.286652492,3.821671546,16.4078408,3.65680918,0.008746095,0.68037153,24.42279372,6
0.004907717,0.285807506,3.801325333,16.22394002,3.662403597,0.010784943,-0.845500267,41.16690381,6
-0.00029274,0.27457324,3.847920792,17.22329064,3.665656335,0.009820979,-0.796819614,66.32882701,6
-0.00268857,0.278157141,3.815365463,17.06884288,3.668908419,0.010826573,1.119688855,15.75923142,6
0.003497027,0.276431348,3.939876309,17.78957301,3.673028455,0.009427719,-1.857911109,115.5963452,6
0.003256511,0.273342963,3.992684726,18.10292541,3.673839733,0.010055038,-5.577578834,184.0797328,6
0.004724533,0.273184906,3.839075624,17.22843933,3.673041589,0.009732136,-3.335295232,124.2171716,6
-0.001050607,0.277051911,3.675398209,16.29495638,3.670454679,0.008630266,0.103059963,20.50340467,6
-0.002127064,0.281282452,3.681407614,16.31750856,3.672485951,0.008857728,1.086823487,27.32615129,6
-0.002016828,0.291896114,3.433755333,14.35269577,3.676364245,0.010235532,1.461968785,16.69449789,0
0.002310451,0.300777454,3.443405069,13.84333977,3.679122979,0.011740797,1.374944302,13.0105239,0
0.006628032,0.298388124,3.470261452,14.09742964,3.693186624,0.018793282,0.341856042,0.64215167,0
-0.001400705,0.313491219,3.170657817,11.79735964,3.692247282,0.018725527,0.342094935,0.633146229,0
-0.000247382,0.334618804,3.076180423,10.52901476,3.689079612,0.015603875,0.390664025,3.041771696,0
-0.002249425,0.337400581,3.039129102,10.38635891,3.703035028,0.010559745,0.411103107,9.675353589,0
-0.001576028,0.319533975,3.096366569,11.34134393,3.706868962,0.009142086,0.327875219,17.78968867,0
0.002984671,0.306940945,3.22661186,12.4913711,3.705346353,0.009235401,0.882973164,15.73342709,0
0.001975662,0.29954717,3.406271121,13.52448823,3.702663694,0.008666031,1.284391042,19.90551097,0
0.003624736,0.271533797,3.874178712,17.53638827,3.696035712,0.011063914,0.812604916,9.319768037,0
0.001351606,0.262721599,4.105010612,19.52031402,3.698968179,0.013110279,0.684432106,4.634894462,0
0.000246878,0.26168971,4.109581282,19.59752319,3.706371035,0.008985575,1.831194757,24.80206092,0
0.001182874,0.261349003,4.044091744,19.28425774,3.70624515,0.008330964,1.924410719,32.01783305,0
0.003506404,0.280919161,3.834851971,16.68422703,3.709499795,0.008129741,1.878203217,29.28893335,0
0.004357335,0.266892879,3.996581986,18.29209394,3.716810989,0.010776233,0.576859198,10.55366648,0
-0.001584098,0.258457128,4.012313277,18.79932126,3.723420116,0.008653676,0.753041579,26.1251944,0
-0.002271417,0.271596778,3.924399096,17.53184761,3.725929587,0.008160808,2.120726473,30.07916227,0
0.003157621,0.286907894,3.72906856,16.00736781,3.728068488,0.008503916,2.31058981,26.2834347,0
0.002709013,0.29059897,3.643037532,15.37001148,3.731537247,0.009743514,1.30961624,15.02071159,0
-0.001505133,0.266532589,4.021641411,18.7346713,3.738001469,0.009535212,1.180982425,15.71308952,0
-0.000331669,0.264706075,4.12066646,19.5199054,3.747543444,0.010667899,0.724128826,7.774720231,0
0.000934564,0.276120883,3.958701102,17.82666244,3.755527224,0.008170684,1.981202141,29.94930544,0
0.00262536,0.282362181,3.84694368,16.83378838,3.759245191,0.008364351,0.959757028,31.61469317,0
0.001189571,0.289622745,3.769120367,16.01262082,3.764995684,0.009111784,0.690884783,26.90082887,0
-0.002648346,0.285873563,3.807080082,16.59218773,3.770157133,0.008403207,1.732768872,30.47677386,0
0.001448358,0.290766138,3.768737408,15.98649705,3.759787696,0.020181587,-0.992163919,2.800919679,0
0.003286325,0.279384436,3.951626182,17.57879676,3.752179664,0.018248295,-0.479988889,3.645257106,0
0.001114354,0.26785223,4.067393549,19.07135102,3.764409038,0.013513571,0.062316742,4.357691335,0
0.001333681,0.288381702,3.818920164,16.2486063,3.768875613,0.009814017,0.945790071,17.39364426,0
0.000503403,0.277329026,3.951098251,17.73820168,3.767934527,0.008974199,0.52807764,19.78718766,0
0.002884317,0.279990933,3.903973468,17.37884822,3.770689283,0.008627322,-0.684081402,50.4411127,0
0.003682264,0.291476412,3.783399067,16.01173474,3.774348504,0.009408796,-0.071116283,41.10018324,0
-0.000443063,0.280102254,3.909657578,17.40920893,3.779571152,0.008492598,1.699598898,32.03917423,0
-0.001417321,0.279368618,3.93268101,17.58809502,3.785610417,0.009020381,1.195373841,20.83894224,0
0.000121275,0.278452148,3.983146227,17.92087752,3.79192118,0.008010378,1.00412505,20.31569659,0
0.001560974,0.280427999,3.906405946,17.42339792,3.794006947,0.007588625,1.465787782,26.27363575,0
0.003808188,0.292149688,3.72987939,15.75985364,3.795056098,0.007672531,1.869044664,26.7892691,0
0.001315796,0.292121026,3.734825497,15.78002724,3.798765019,0.008338863,1.489860206,21.92596067,0
-0.001035102,0.28303279,3.848172625,17.02404151,3.802871159,0.008403841,1.763373128,26.97487824,0
8.69E-05,0.294328187,3.642668291,15.21891941,3.804789843,0.008204712,0.626020661,24.50886968,0
0.001742732,0.302492259,3.578989667,14.44639026,3.804368864,0.008585745,-0.059194704,53.91199854,0
0.002715114,0.290838143,3.784538639,16.14452894,3.804602432,0.00861411,0.776201012,62.54526056,0
0.000206366,0.280631017,3.876186871,17.25368225,3.80643474,0.008109503,0.519927498,32.70835192,0
0.000563939,0.290125398,3.747137912,15.96755784,3.808735221,0.008262638,-0.054707355,27.05508252,0
0.005314067,0.298143901,3.664797458,14.9834776,3.811278915,0.008326129,0.881898687,26.18907875,0
0.001033866,0.290765041,3.81323886,16.23832298,3.81318828,0.008334365,-0.135854586,55.20570208,0
-0.001625414,0.288651109,3.850742867,16.48172841,3.797049386,0.022666275,-0.484545792,-0.295092347,0
0.00121856,0.26227874,4.20214184,20.15664164,3.785422025,0.016641175,0.215814613,1.334301524,0
0.000436412,0.241380994,4.52788132,24.08115224,3.793620082,0.009828831,0.506415463,16.53949624,0
0.001531324,0.265729457,4.135025177,19.45898668,3.796472931,0.008223304,0.180447115,78.40120742,0
0.001395963,0.276783887,3.984877345,17.85487371,3.795007433,0.008791574,1.192311911,64.09616688,0
0.003546014,0.276437298,3.995889876,17.98619652,3.794880131,0.00859563,1.889270647,30.48158774,0
0.000810804,0.266879201,4.111296894,19.43617042,3.798682676,0.008579857,1.265487079,28.4618799,0
-0.001955141,0.267810326,4.083389995,19.23925384,3.801593781,0.00806181,1.469320869,36.86315733,0
-0.000783567,0.281080226,3.845077981,17.00122239,3.800573567,0.008966061,0.191321833,17.4724658,0
0.003089499,0.299239306,3.456868102,14.13550644,3.795873533,0.011113035,0.443547422,11.17239059,0
0.002999091,0.288303657,3.598777522,15.49829863,3.799221911,0.011872175,0.226151437,9.883628126,0
0.00128918,0.281510395,3.876346546,17.17527853,3.807005038,0.008001274,1.030529399,30.50125988,0
0.002352709,0.290697809,3.766563742,16.02888536,3.80957598,0.008241907,0.016997721,40.51155206,0
0.000331225,0.281410429,3.807185057,16.94183016,3.813470622,0.008850466,-0.377870157,34.10376459,0
-0.000213939,0.282644913,3.778214582,16.71489646,3.819135938,0.009086661,-0.8523806,41.08267092,0
0.00418277,0.293234779,3.686583936,15.53527225,3.820266996,0.008393143,-0.50059876,50.16497554,0
0.005261921,0.293751508,3.628945707,15.17757332,3.815366473,0.009447104,-0.08149516,12.14168472,0
0.000933086,0.300699534,3.518292506,14.06188647,3.808230373,0.011643878,0.111380521,4.237259936,0
0.001781865,0.307349495,3.423864973,13.07360491,3.821406882,0.020924053,0.091390903,-0.721780977,0
-0.001809984,0.293878238,3.574885313,14.19881054,3.830055346,0.013771482,0.553354212,1.91339213,0
-0.002456628,0.290502732,3.716431218,14.96832668,3.814677211,0.017854507,-0.644198468,1.211061994,0
0.002949169,0.294651533,3.774450767,15.37106388,3.798542622,0.02039857,0.45134037,-0.385580169,0
0.000910139,0.289401335,3.867118289,16.46942496,3.808094842,0.022788271,-0.109238675,-0.657582848,0
-0.001142114,0.27901677,3.952627223,17.61669157,3.831211199,0.010576193,0.157278917,14.80101147,0
0.000251678,0.277802055,3.967093966,17.67637476,3.836003549,0.0081423,0.535698671,32.76904885,0
0.001489988,0.277520175,3.971426473,17.70828414,3.837069266,0.007882909,1.389379173,36.23413042,0
0.001851955,0.278949942,3.932944251,17.46561701,3.838758251,0.008115335,1.643718791,34.39374501,0
0.001182234,0.280801676,3.878611547,17.05097493,3.843676158,0.009008079,1.063823351,25.60266925,0
-0.000805036,0.291871492,3.758976793,15.82313737,3.850068011,0.008676747,1.054163024,23.3187293,0
0.000796522,0.300526025,3.6994916,15.09229431,3.852320916,0.008308409,1.230599364,23.59169784,0
0.002015599,0.28728929,3.797777325,16.16368169,3.85438445,0.008609779,1.459972017,21.21753746,0
0.000312685,0.2763689,3.879959534,17.2569965,3.860453905,0.008697612,1.169817885,16.22042967,0
0.0010633,0.276778126,3.924709991,17.66411646,3.866637802,0.008297207,0.832226765,16.83636909,0
0.00649086,0.287610921,3.755717939,15.97881062,3.867813982,0.00798236,0.895182751,28.26164118,0
0.001517402,0.284316402,3.797489061,16.19487981,3.869029072,0.008371837,0.355149996,21.64259406,0
-0.004111234,0.273804763,4.034818938,18.27902654,3.923322623,0.074496944,0.782396116,-1.292880828,0
0.001040451,0.276480508,4.042735145,18.27090126,4.028423091,0.076152512,-1.286775943,0.171909117,0
0.001272191,0.274145309,4.047650025,18.27085911,4.079155295,0.009825338,0.089160786,15.53107865,0
0.000879063,0.27476351,4.016507605,18.03519058,4.066596276,0.013202078,0.316837022,3.463421244,0
0.001055479,0.275768048,4.009534465,18.00578499,4.052612305,0.009569674,1.824936057,15.49770109,0
0.002093621,0.275950998,4.030946588,18.14777315,4.055095673,0.009986511,0.350596578,5.519600775,0
0.001692208,0.27557509,4.012874714,18.04330415,4.063726044,0.007749796,-0.400048955,21.95978858,0
0.001315966,0.275399341,3.962609334,17.76097985,4.067951366,0.007991739,-0.158074409,29.00782323,0
0.001498332,0.275728821,3.932717942,17.60111136,4.070608956,0.007897816,1.103338834,45.24647515,0
0.000413635,0.265514713,4.072035624,19.2323353,4.070199857,0.007934677,2.24228635,40.18376814,0
0.00352601,0.276388971,3.914636321,17.52741159,4.067788042,0.007953486,2.006334366,31.86178236,0
0.002381927,0.287088036,3.776524183,15.98371941,4.066865703,0.007798489,1.367982653,27.65246134,0
-0.002730946,0.277990281,3.912571562,17.36873021,4.072863116,0.012767454,1.311373901,6.440566959,0
5.34E-05,0.27779538,3.908041417,17.38684916,4.061223112,0.021073109,0.46368135,0.296892838,0
0.002352428,0.277279915,3.879817815,17.25254968,4.033543614,0.01467221,0.51912949,1.921746696,0
0.001716313,0.289186101,3.696167754,15.53410887,4.016876439,0.010528426,0.975776031,11.07697856,0
0.003709645,0.289456157,3.724052578,15.68991169,4.004210826,0.010738885,0.300823566,5.50260554,0
0.000528227,0.280092654,3.853447625,17.04013673,3.990965598,0.010313493,0.579781919,6.619535331,0
-0.001644993,0.279465673,3.824744266,16.86780495,3.981244441,0.008390075,1.482930305,19.4313408,0
0.001087601,0.276810648,3.831665052,17.00498246,3.975323541,0.008130122,2.189762197,26.59486547,0
0.001243724,0.277749296,3.819903594,16.94640008,3.969918496,0.008213706,1.786279102,27.75046415,0
0.00514272,0.293360251,3.685632758,15.24751949,3.967619978,0.011605619,0.70259432,5.729867888,0
0.001066406,0.295670897,3.632218716,14.89188154,3.970220675,0.01193537,0.414802638,5.858857189,0
-0.002847578,0.291393765,3.59544538,14.97661679,3.972272927,0.007474939,0.989865975,30.43182801,0
0.00049855,0.299680512,3.486344679,13.90419957,3.970896367,0.007610655,1.401032266,30.00608184,0
0.0038998,0.288556378,3.615215433,15.15271232,3.96854793,0.0081392,1.373033758,27.26477215,0
0.004610158,0.284049141,3.604397645,15.30879207,3.970025635,0.009078656,0.59246195,10.85493408,0
-0.001433932,0.282572331,3.70166137,15.79734942,3.976603263,0.009514064,0.835217101,18.99905468,0
-0.001476425,0.274431738,3.960501189,17.67142388,3.979458564,0.008096311,1.847879199,43.6067076,0
0.00211821,0.274758234,3.951786338,17.59153461,3.97852647,0.008043241,2.135836661,32.04783426,0
0.001249381,0.275386657,3.95562191,17.56988186,3.980834743,0.008016222,1.469781797,22.87533836,0
0.002400984,0.276590476,3.98311933,17.76071216,3.981893594,0.007961385,0.844314226,23.88936793,0
0.00073662,0.278061737,3.936927572,17.50394525,3.978425271,0.008586081,1.695833959,24.32909058,0
-0.001265821,0.279111699,3.853698261,16.94825104,3.975781849,0.007822269,2.452554422,27.82947566,0
0.001874222,0.277223581,3.888605735,17.18693393,3.978248106,0.008935302,-2.175590263,99.783914,0
0.001025816,0.289288053,3.768383539,15.85982942,3.982342257,0.00890479,-4.46146321,133.5741835,0
0.000777289,0.290424133,3.767119475,15.82581971,3.983771569,0.007654656,-1.046913721,70.9790187,0
0.00191391,0.288794405,3.786751902,15.94354607,3.985766002,0.007861224,2.166433024,24.65626695,0
0.001094918,0.287791876,3.789630863,15.96188662,3.990168108,0.008001055,1.418656792,12.51718215,0
0.002271796,0.28069336,3.901332984,17.03858069,3.993888909,0.00776148,1.167300952,19.57636173,0
0.001251722,0.28886296,3.812067447,16.1121058,3.995168958,0.007274778,1.619831975,27.08310018,0
0.000221564,0.284851425,3.855923175,16.56884002,3.996882193,0.007170678,1.194469642,11.25166395,0
0.000312234,0.288372176,3.820447761,16.13829392,4.002167511,0.009570364,1.435276641,21.42127097,0
0.001150752,0.298088071,3.724969247,15.17727573,4.006068747,0.010094724,0.787847554,24.20311275,0
0.00223645,0.309590394,3.618094398,14.03008497,3.9984975,0.014176575,-0.174637109,3.471203359,0
0.0038933,0.311094508,3.504259532,13.05940119,3.992134639,0.013707989,0.673560334,2.723637846,0
0.003305773,0.308438968,3.32903061,12.43408999,3.99311518,0.031857241,-1.143367836,1.507097848,0
-0.003270721,0.305622618,3.417096148,13.1987748,3.942396382,0.059012014,0.453424951,-1.506457354,0
0.002300236,0.300499654,3.6215202,14.22611409,3.913120815,0.025712849,0.383648824,-0.727289733,0
0.002362217,0.287107245,3.766699323,15.72611561,3.943326678,0.017811591,-1.470003232,13.36214032,0
0.002737571,0.273732711,3.924246648,17.30616271,3.925122506,0.033203216,-0.648143946,-0.089804651,0
0.001100824,0.274559025,3.915418523,17.21355062,3.902681133,0.019907919,-0.427636572,1.22248455,0
0.000181032,0.272171054,3.751192645,16.30875399,3.923023823,0.019787434,-0.074325304,2.769688526,4
-0.000712496,0.281570099,3.731259783,16.0520974,3.941789954,0.011430944,-0.434724999,31.63726195,4
-0.003867835,0.279393814,3.997399849,17.97003877,3.949352755,0.010035215,0.109208774,23.81276818,4
0.002867294,0.268662676,4.128425617,18.97363303,3.957135119,0.010241074,0.226236558,25.22400776,4
0.001204926,0.270039636,4.096883026,18.79940683,3.961104039,0.009077512,-0.646437926,64.95850433,4
0.000487204,0.261460357,4.184627138,20.03036716,3.964125388,0.008992185,-0.757383089,59.31070961,4
0.002224758,0.258838653,4.150505494,19.89392306,3.970755713,0.008997865,0.104419465,17.34235248,4
0.002227439,0.259562267,4.138814542,19.86811306,3.977976935,0.00803963,0.314600341,25.8013526,4
-0.000295859,0.249376135,4.325828945,21.99931362,3.982086345,0.007425994,2.617868865,37.34070969,4
0.000155103,0.249734562,4.293134189,21.72007084,3.983840179,0.008176786,1.509533895,37.70202414,4
0.001503629,0.260813385,4.120422413,19.64995339,3.986481258,0.008451569,1.042905635,36.09267411,4
0.0005923,0.261575839,4.149491082,19.80670842,3.99040887,0.008494439,2.188566162,33.31874532,4
0.000780441,0.261737259,4.152243509,19.9082255,3.993679864,0.008491348,3.229112871,45.89000227,4
0.001508684,0.270645082,4.014656146,18.34298436,3.995253372,0.007915198,2.519631928,41.08449255,4
0.002258044,0.257923386,4.188897726,20.25526693,3.997200067,0.00773455,2.115659077,29.09411697,4
0.001879722,0.259697218,4.147069269,19.92185468,3.998801477,0.008283032,1.922072957,37.11471084,4
0.0006681,0.261368775,4.129403029,19.71810436,3.999757058,0.008465992,1.092400135,35.88295163,4
0.001353463,0.248412133,4.328582814,21.94349349,4.001617541,0.009009912,2.042090416,52.92163854,4
0.000716871,0.259383916,4.161258978,19.97562735,4.003762981,0.008610965,2.656721952,62.98538916,4
0.003249292,0.267066516,3.939740351,17.95264233,4.014158085,0.02659686,1.881658177,3.228111306,4
0.001475143,0.26770456,3.964203964,18.19211265,4.046796744,0.035842261,-0.206423282,-0.839578976,4
0.000817991,0.280852687,3.902141193,17.0582032,4.06665317,0.014833352,0.655345103,11.76047667,4
0.000394854,0.278284475,3.92296559,17.24349259,4.053754153,0.013222561,0.71941002,4.630219335,4
-0.000765512,0.268464577,4.082879162,18.86833892,4.036700766,0.011633493,1.341564897,14.87488728,4
0.002186443,0.268577222,4.078427875,18.73969117,4.026009805,0.009287882,2.388648145,36.69319514,4
0.000902985,0.267501172,4.048818717,18.58881801,4.023130526,0.007777719,1.683264774,37.74177499,4
0.001645039,0.268971759,4.009088175,18.32576758,4.024078097,0.007771009,0.718151242,37.37244777,4
0.001762547,0.258689281,4.152276383,20.01816716,4.022877121,0.007972943,1.405888849,38.79044815,4
0.000219779,0.24934058,4.311137815,21.8135972,4.020616586,0.0077786,2.156827724,38.06136214,4
0.002152281,0.262480129,4.111659242,19.59137111,4.021296147,0.008156987,0.993953062,34.88697026,4
0.00128217,0.263220667,4.0799492,19.44807394,4.022799301,0.007969626,1.096223151,41.86629504,4
0.000229385,0.264861624,4.056964136,19.24179746,4.02313761,0.007897203,2.297760016,41.59987661,4
0.00134523,0.274726853,3.941130923,17.81062864,4.022588076,0.007543997,1.669779864,31.84292189,4
0.00134525,0.272489958,3.992907163,18.18326896,4.021387482,0.007738942,1.961622348,37.78245507,4
0.000566404,0.261849441,4.122287119,19.69923332,4.02121533,0.008205275,2.69630819,38.3802331,4
-0.000928247,0.262833715,4.152533679,19.87210752,4.020005035,0.008718063,-4.204163971,213.0929204,4
0.001871416,0.273747078,3.990342296,18.17548721,4.018711799,0.008176781,-5.523927442,266.6877388,4
0.002508362,0.25268837,4.234843131,21.20888552,4.016602489,0.00818694,1.321854392,37.29544666,4
0.001336703,0.238992589,4.433317187,23.69896523,4.013851765,0.008441017,1.332033676,31.68934683,4
0.000701026,0.262445219,4.053423273,19.32038542,4.010329437,0.009262762,1.350245658,17.07084945,4
0.001434533,0.263812421,3.996394908,18.85219651,4.003303909,0.009518648,0.586873429,37.43772577,4
0.00108989,0.252665529,4.184356567,20.87303475,4.000018692,0.008395915,1.108667007,59.32909967,4
0.001969476,0.263503076,4.056651366,19.18941866,4.001809692,0.008220838,1.681819106,34.31958231,4
0.001749148,0.265502348,4.035643456,19.0003251,4.004812132,0.00816331,0.89738499,27.23819047,4
-0.000583041,0.255155615,4.194677068,20.87396139,4.005300685,0.008316168,1.652888674,30.17175872,4
0.001101798,0.263018754,4.081078802,19.43924128,4.003809248,0.00847861,2.062987702,37.60110749,4
0.001210615,0.265170429,4.046706378,19.03620822,4.004636874,0.008004822,2.054980941,28.91855349,4
0.004277854,0.265032,4.057126505,19.05797133,4.005625371,0.007791907,1.479535218,22.81059174,4
0.000841187,0.264908919,4.050431932,19.10795818,4.00553142,0.008059539,1.168612569,33.18512561,4
0.000689248,0.264728937,4.044333307,19.07825853,4.005882481,0.008306255,1.468436633,37.4770745,4
0.001515865,0.264041415,4.052939939,19.10772244,4.008583559,0.008573489,1.123436803,28.32076308,4
0.000787157,0.26317174,4.064313822,19.24594152,4.013034276,0.008029018,0.137636938,24.531945,4
0.004643967,0.264068905,4.088020071,19.30797901,4.015891811,0.007876167,0.751535262,22.39733797,4
-0.002055045,0.25680846,4.170031439,20.57982273,4.017974254,0.008157036,1.236001691,25.22612747,4
-0.000654903,0.257887237,4.130825451,20.14803293,4.017353112,0.008390187,0.129767542,30.15443561,4
0.001963342,0.263769967,4.0671181,19.20173119,4.017213821,0.008297122,0.824344971,31.20809304,4
-0.000826787,0.26194258,4.146964906,19.9118358,4.017684392,0.007890478,1.567667398,30.16272635,4
0.001558862,0.265734404,4.092150215,19.26172484,4.016510827,0.007591837,1.086263011,29.16636664,4
0.001346165,0.263805333,4.095782683,19.35749698,4.016187613,0.007757404,-1.099474002,66.53102124,4
0.00276193,0.262562586,4.126249235,19.57954115,4.015963146,0.007813659,-0.88971019,68.21285757,4
0.001453007,0.265646174,4.064187302,19.07986683,4.01737551,0.007680411,2.422401115,35.37055963,4
-0.00137473,0.267859685,3.98903889,18.55490268,4.020327759,0.007890092,3.142371618,31.55507381,4
0.001873045,0.277676098,3.852072809,17.09425857,4.022035871,0.007851389,2.934641862,33.41276461,4
0.001395414,0.276999726,3.911950971,17.49543168,4.022056089,0.008350638,1.741331226,42.87480519,4
0.003742898,0.27338198,4.010976458,18.20481246,4.024167415,0.008555106,1.596089104,37.66588823,4
0.000862224,0.263503464,4.111753874,19.54232703,4.026833507,0.007552808,1.69808753,29.99466239,4
-0.001855826,0.267308432,4.012532051,18.74419023,4.028021622,0.007643802,1.379835384,41.85333251,4
0.00257462,0.276735285,3.902643654,17.40089103,4.029857145,0.00771088,1.405591359,37.1929375,4
0.001245189,0.264477804,4.102701573,19.4481327,4.031266512,0.007476936,1.217445135,35.38085252,4
0.001247138,0.263648625,4.096343798,19.40265012,4.031908962,0.007834198,1.388247599,39.35697669,4
0.000749222,0.263537937,4.062769498,19.16174123,4.035057231,0.008397025,1.644119194,29.5747087,4
4.07E-05,0.254029673,4.204659477,20.87968286,4.038967351,0.007972176,0.902949876,29.72822054,4
0.001268882,0.255213713,4.156955256,20.5312462,4.039255687,0.008009477,0.44230214,37.68230276,4
0.001364306,0.25535861,4.113100724,20.28816232,4.038960593,0.008014288,1.031243828,39.34393326,4
0.001235288,0.256894934,4.060274989,19.91273734,4.040303585,0.008349274,1.175900106,33.33229103,4
0.000573944,0.268845848,3.905911518,18.07540417,4.042742756,0.008743501,1.849885895,27.94697842,4
0.000832509,0.268056804,3.953259931,18.40904211,4.042502921,0.008382614,1.871591711,24.94620885,4
0.002336517,0.255102358,4.140235129,20.53985106,4.043764714,0.008695227,1.454395606,26.97510115,4
0.001003745,0.264226891,3.989127677,18.78115276,4.049863652,0.009121161,0.929761263,18.56785888,4
-0.001162837,0.264440254,3.986782683,18.7786061,4.048895155,0.015135138,-1.280858496,5.047706251,4
0.002353598,0.282661039,3.802582589,16.62605923,4.056271744,0.029815615,0.413156068,0.504399323,0
0.006326052,0.306391789,3.369673202,12.81045159,4.09084489,0.035376998,-0.768429723,-0.097875933,0
0.003442147,0.310460462,3.345465816,12.52050006,4.101204518,0.017935994,0.565788097,1.381433899,0
0.002448604,0.292779461,3.643780743,14.93215677,4.086548342,0.00863859,1.859579329,36.09373989,0
-0.002351225,0.278541302,3.526862254,15.31992579,4.090305873,0.01345301,0.119924329,6.943061686,0
-0.004613009,0.293198737,3.354744297,13.67175938,4.093177632,0.014665377,0.126554324,5.002776504,0
0.003360744,0.301560992,3.4178788,13.19454189,4.09116418,0.014465277,1.52251288,5.439916162,0
0.000780572,0.288261066,3.715028465,15.39579846,4.115783146,0.027481477,-0.115689136,-1.290527738,0
-0.002455778,0.272082598,4.052350866,18.34105912,4.131216976,0.014235701,-0.172832853,3.303793554,0
0.00248308,0.272910383,4.038953868,18.22905539,4.1121818,0.014643486,0.59688045,2.685443958,0
0.001778987,0.259893519,4.215083887,20.23305139,4.099744088,0.008200595,1.945542613,25.29987651,0
0.000451048,0.263979194,3.921250187,18.61885381,4.099398204,0.008389072,1.515196242,23.2781332,0
0.004683223,0.277315526,3.770739377,16.85289399,4.10047433,0.008664196,0.735432745,23.89391908,0
0.003101565,0.277180268,3.977376157,17.81757988,4.097433308,0.008894844,1.525668213,29.45641468,0
-0.002871826,0.267541776,4.078805202,19.18785235,4.093035562,0.00868372,2.355310615,44.7976935,0
-0.001054877,0.265330085,4.096779925,19.37885207,4.090111378,0.008275863,1.748501646,45.33445746,0
0.001600832,0.264716104,4.115476391,19.50868502,4.088808986,0.007973514,1.317344844,34.74428638,0
0.000552553,0.266705284,4.075165232,19.14369877,4.086942891,0.007970416,1.547856306,29.9141133,0
0.003895935,0.276838704,3.931933837,17.55100149,4.08364781,0.007927262,0.629454859,25.13649892,0
0.001629227,0.276909839,3.93454079,17.60990003,4.083561271,0.007655603,0.915481994,26.48264475,0
-0.000466474,0.269319434,4.04698486,18.87678417,4.084458378,0.007684269,2.420326575,26.55847621,0
0.001146423,0.266539009,4.087847652,19.29963982,4.081392942,0.00865239,2.137968161,37.37855263,0
0.000164389,0.274501167,3.982318554,18.04269226,4.079882649,0.008810308,0.275266506,71.33956721,0
0.000732925,0.280980897,3.778120058,17.06857792,4.085593578,0.010483821,-0.122934539,31.12348199,0
-0.001045486,0.284279259,3.80051989,17.1519194,4.095958655,0.011223628,0.402202633,8.805994447,0
0.000751811,0.289340345,3.832335263,16.3009075,4.148078973,0.055276764,0.302768391,-1.758398547,0
0.004636466,0.294144208,3.721222619,15.18812366,4.194095394,0.029383288,-2.127452751,4.748568047,0
0.001328927,0.284506029,3.872245205,16.70787491,4.169651685,0.029516355,-0.475727552,-0.916489205,0
-0.000571851,0.282037862,3.796700334,16.37902124,4.12927306,0.02675805,0.535110207,-0.232136227,0
-0.000992667,0.304495523,3.426124637,13.27534345,4.111756733,0.016032849,1.033352984,2.969655932,0
0.001625447,0.322258113,3.287156337,11.95504531,4.114842715,0.011628395,0.517922309,6.901674939,0
0.002635254,0.323369255,3.259574372,11.74554052,4.121071788,0.008617064,1.681167894,27.33770877,0
-0.0001652,0.315799298,3.254310059,12.18802834,4.122549329,0.008211212,1.183266263,25.26349429,0
