mean_ecg,std_ecg,skew_ecg,kurt_ecg,mean_eda,std_eda,skew_eda,kurt_eda,Label
0.000129946,0.346276184,3.439025401,11.9072101,0.963372694,0.013475743,1.505770657,5.581718,0
0.001455688,0.331362213,3.64537657,13.39123239,0.966125052,0.013397108,1.468054693,5.716670884,0
0.002830006,0.318931673,3.7877269,14.63382351,0.967667062,0.013472904,1.553255317,6.421240488,0
0.000564436,0.320189176,3.771239816,14.53037617,0.968457086,0.01326429,1.728051682,6.098887091,0
-0.00263545,0.309454439,3.889858993,15.71954188,0.968088695,0.012800219,1.565518708,4.742138936,0
0.001203108,0.321418492,3.740949338,14.3297759,0.967629678,0.013069034,1.416580421,4.87309394,0
0.000532667,0.32353435,3.688512644,13.97078731,0.967892783,0.013280702,1.498409979,5.361762657,0
0.001692333,0.324163261,3.66723517,13.84271206,0.971109554,0.013609834,1.476069869,4.757914948,0
-0.0001337,0.323106053,3.710001714,14.15283477,0.975345067,0.013318842,1.391830966,4.194902858,0
-0.00124379,0.31153661,3.832712472,15.36729773,0.976964515,0.013216746,1.5314542,4.743201235,0
0.001947255,0.312060947,3.78959515,15.10017368,0.97684724,0.01317951,1.527464242,4.772885856,0
0.000169758,0.312757037,3.787866921,15.05927424,0.977314758,0.01307846,1.32099358,4.651933735,0
0.002036061,0.324619645,3.632796964,13.65483349,0.977369145,0.013856843,0.768218753,11.96382115,0
-0.000521125,0.327266045,3.595153027,13.40197128,0.975882339,0.013765831,0.955957867,13.10025316,0
-0.002793169,0.318542802,3.705781771,14.45437864,0.976266588,0.013054238,1.694092884,7.16290796,0
0.001033101,0.317657973,3.697941297,14.43782921,0.977190835,0.013103627,1.64391974,6.316505963,0
0.003832234,0.316278116,3.678552865,14.3088301,0.978045218,0.014317776,1.113834484,5.211855396,0
-0.001057761,0.326360361,3.457972738,12.63752382,0.977398246,0.014538914,0.934887034,4.570937659,0
0.000632237,0.339909923,3.359770207,11.70694198,0.975380107,0.013377782,1.29284029,4.196612562,0
0.005790266,0.330205092,3.556636858,13.15053328,0.975701795,0.01304539,1.42365644,3.944983875,1
-0.00286562,0.306503671,3.789078546,15.54580437,0.975774111,0.013015943,1.341895195,4.040274774,1
-0.003395253,0.309460465,3.697014181,14.88502804,0.975441142,0.013188857,1.422571892,4.375729187,1
0.002099422,0.321547598,3.55650626,13.52826106,0.975164795,0.012909117,1.514715609,4.893264745,1
-0.000117129,0.307415694,3.741650273,15.24459189,0.974705015,0.012800145,1.515662835,4.760245352,1
0.000599304,0.295840956,3.85269034,16.42977407,0.975036621,0.012879929,1.510975143,4.725033749,1
0.001604279,0.294177879,3.819025109,16.33901737,0.974646269,0.013101666,0.400566674,25.15583525,1
-0.001091459,0.303896599,3.552374859,14.25382364,0.973924528,0.013615807,-0.182735479,33.54748366,1
-0.000731304,0.308176224,3.544295993,14.04312573,0.972559684,0.013448605,0.708601549,16.3845554,1
-0.00011057,0.310700112,3.688988324,14.88491262,0.971159635,0.013020417,1.47729085,4.534664217,1
0.003845771,0.318613703,3.609721143,13.97885297,0.971078491,0.013096242,1.694398548,5.048103121,1
0.002967636,0.306308495,3.717135024,15.13705621,0.969229943,0.013554924,-0.003682391,31.95984109,1
-0.001928284,0.297372425,3.766726909,15.98370793,0.966538184,0.013177064,-0.353022909,33.88907825,1
-0.000856149,0.296829439,3.770593813,16.01410159,0.965358298,0.012704357,1.552174898,7.893264,1
0.000489349,0.295178773,3.802339542,16.23009799,0.964928,0.012969464,1.809861098,7.694310356,1
0.000342917,0.295386315,3.795031751,16.19367665,0.963635962,0.012952903,1.398540368,5.110181872,1
0.001401437,0.295786756,3.776755568,16.08206524,0.961642456,0.012903023,1.409460556,5.653574509,1
0.000944268,0.30806109,3.678651823,14.84051281,0.961803872,0.013079749,1.545068348,5.365888508,1
-1.66E-05,0.307063105,3.71069115,15.0520055,0.96213259,0.012929782,1.403692748,4.617059093,1
0.005534337,0.306125482,3.710332738,15.04937441,0.961033576,0.013010377,1.119586224,11.57048128,1
0.001585471,0.296183731,3.758498587,15.95603892,0.958904702,0.013208527,1.160500097,11.43872821,1
-0.004210432,0.286112378,3.79970665,16.90391466,0.956668254,0.012809589,1.405764654,5.126447856,1
0.000670074,0.299533275,3.658210451,15.2574647,0.955357851,0.012756439,1.265423292,5.036251823,1
0.001230207,0.30114121,3.599367811,14.88604753,0.954396003,0.01264673,1.270108226,4.500752835,1
0.001692267,0.302364481,3.563791717,14.68274185,0.953018243,0.012530975,1.403476574,4.463868195,1
0.001120769,0.301687808,3.601922086,14.90893217,0.9519904,0.012633022,1.616890806,5.707350743,1
0.003506829,0.314057855,3.504911318,13.72275645,0.952302769,0.012858774,1.590413267,5.66521103,1
0.000579261,0.31436673,3.518038342,13.79639838,0.952663967,0.012777625,1.14402994,5.721159188,1
-0.003287665,0.311241104,3.63091666,14.55311391,0.953029033,0.012707346,1.204531569,5.825003223,1
0.000501971,0.332133347,3.445203683,12.59597026,0.953128215,0.013083704,1.53933674,5.228465273,1
4.34E-06,0.321346861,3.543010548,13.52658212,0.952662822,0.013555524,0.06178084,33.27129356,1
-0.000198356,0.309316042,3.706204197,14.92193781,0.952598953,0.013267818,-0.081075005,35.57734472,1
0.001230377,0.31009231,3.634961386,14.5352421,0.952215849,0.01297504,1.444793957,4.854692891,1
0.00106623,0.299753028,3.672389657,15.32518524,0.949977657,0.013539868,1.402215219,5.75490598,1
0.002238876,0.300573853,3.639026554,15.10581374,0.946408245,0.014004374,-0.196059302,38.12919809,1
0.000936081,0.300975531,3.638006722,15.09874672,0.94380188,0.013460955,-0.311669286,42.96865991,1
0.001921247,0.314652068,3.532718735,13.84807201,0.942267609,0.013133802,1.499904789,6.031929236,1
0.003729309,0.325978336,3.44253654,12.85499876,0.942929132,0.013299143,1.331757203,6.935809514,1
-0.000217706,0.321061404,3.569338337,13.69289807,0.945649229,0.012907824,1.270231951,7.668069752,1
-0.001465543,0.318037411,3.656351693,14.23030202,0.946831131,0.012629676,0.814613518,15.2033773,1
-6.81E-06,0.306155534,3.752674796,15.3588936,0.948051289,0.012986873,0.843353385,15.83636455,1
0.001031799,0.318981118,3.602710897,13.93881845,0.95167645,0.013504299,1.259955716,6.109437095,1
0.002021066,0.317023016,3.641409518,14.16898448,0.954460417,0.012940061,1.326869645,4.911354705,1
0.001955547,0.290591311,3.939215706,17.17166891,0.957027272,0.013114013,1.56232801,5.773347216,1
-0.00264265,0.292852792,3.915146613,16.9171215,0.96273553,0.013407435,1.453535735,5.848289198,1
-0.000741414,0.2942877,3.828572503,16.36106134,0.968581118,0.013198747,1.376629363,5.07917994,1
0.000857764,0.294111333,3.820333504,16.34266633,0.974447141,0.013705117,1.295569751,4.512726033,1
0.004233333,0.305994329,3.731573649,15.14810063,0.978095954,0.012950242,1.722448535,5.716120716,1
0.000859818,0.308445253,3.680478886,14.8233886,0.977775519,0.013061042,1.537423763,5.272573536,1
-0.000475845,0.309896703,3.664106496,14.7085473,0.976163265,0.013217723,1.449888193,5.007715987,1
0.00166129,0.309111914,3.677160806,14.77371237,0.973594175,0.012936358,1.392102368,5.078699446,1
-0.00282006,0.295017319,3.860680515,16.54463128,0.970761381,0.012868391,1.350858314,4.809025647,1
0.002362126,0.299280128,3.795211036,15.87620302,0.968787221,0.013083417,1.562657294,5.864951244,1
0.003728524,0.30811548,3.664183708,14.73412564,0.968292563,0.013240881,1.551252323,6.451076758,1
-0.001262087,0.303519836,3.749365187,15.47635856,0.967650604,0.012890062,1.467411606,5.783132577,1
-0.002267735,0.295757311,3.8424574,16.40345966,0.96682276,0.012746157,1.025632752,8.08022941,1
0.00038702,0.295804661,3.793769343,16.10242647,0.970060131,0.013431228,0.896588094,7.464169229,1
0.001214153,0.296465592,3.754218532,15.85602393,0.973406873,0.013038479,1.628774462,6.06669782,1
0.002792097,0.310154821,3.620291335,14.41477578,0.97354344,0.012958784,1.789215104,5.859108363,1
-0.000459941,0.310960629,3.643903257,14.5296702,0.973017338,0.01287158,1.671645889,5.410443588,1
-4.32E-07,0.31125904,3.635588627,14.48122564,0.972252546,0.012886513,1.594137633,4.969933787,1
0.002919532,0.321157823,3.579424453,13.66433096,0.972713688,0.012886698,1.288891048,5.365195033,1
4.99E-05,0.306417329,3.779559354,15.41469592,0.973023115,0.012687084,1.211060466,5.48852248,1
-0.001079341,0.29478702,3.852740176,16.47992276,0.972954287,0.0123984,1.369566963,5.043682789,1
0.00113938,0.296919592,3.755539182,15.85316847,0.973386983,0.012730224,1.438961513,5.064776591,1
0.001223589,0.297493,3.733848751,15.70562637,0.974140767,0.013013009,1.475252862,4.762782283,1
0.002533375,0.302113121,3.700030777,15.24129464,0.976064137,0.013230264,1.673399854,6.158964392,1
0.003476212,0.31124696,3.589745317,14.20862016,0.978018788,0.013165408,1.558628337,5.533753696,1
0.003059117,0.317312576,3.559910525,13.75367386,0.977549907,0.013081295,1.415488946,4.970491262,1
-0.002455706,0.297648971,3.747826143,15.79672751,0.975900977,0.012958648,1.53998013,5.417800875,1
-0.004267064,0.286920452,3.807893807,16.80121713,0.97509237,0.013063001,1.578015318,5.131307725,1
0.001131023,0.298951164,3.717535452,15.55007988,0.974159622,0.013295809,1.514886027,4.859762225,1
0.000786229,0.299676088,3.697308707,15.44023162,0.972077397,0.013130972,1.246217822,4.719814691,1
0.001558967,0.311968293,3.607789696,14.31288396,0.970997184,0.012786193,1.247480837,4.748022185,1
0.000915298,0.310014226,3.694889629,14.83355709,0.971402686,0.012864812,1.43573904,4.649974283,1
0.001446625,0.308992385,3.704622151,14.91320427,0.97177778,0.013005707,1.551240279,6.260515501,1
9.88E-05,0.308267816,3.722001915,15.02422323,0.972224481,0.013167817,1.626779635,8.188980246,1
0.001327881,0.306823847,3.751358172,15.23628484,0.972712817,0.013339209,1.48415676,7.298298661,1
0.002424683,0.307534143,3.716668943,15.02741551,0.972793852,0.012919123,1.408789411,5.251142157,1
-0.000865343,0.295300729,3.850939442,16.4552635,0.972780391,0.012508977,1.667496512,6.427340198,1
0.002024113,0.308197901,3.712777706,14.97930626,0.97342404,0.012719579,1.818067508,7.700001223,1
0.002194127,0.319841037,3.604956345,13.79794314,0.977194759,0.013221433,1.539014528,5.720981543,1
-0.001742268,0.318152869,3.655917832,14.11128066,0.981955937,0.012797497,1.570863003,5.093579363,1
-0.002479032,0.317775493,3.701546921,14.42107443,0.98353484,0.013016146,0.805058777,10.12344315,1
0.000949762,0.315589726,3.763044302,14.822709,0.984296526,0.012850524,0.86218634,11.3094188,1
0.00147995,0.301777342,3.90897412,16.28491378,0.985143879,0.012600505,1.516427673,5.712167764,1
0.003211958,0.304020604,3.812014582,15.62690153,0.984686279,0.012853337,1.455353851,6.50934961,1
0.002764513,0.30710288,3.716100859,14.99213752,0.983543233,0.013015327,1.682169462,7.544534631,1
0.000649351,0.305962921,3.740571927,15.25840621,0.982938276,0.012910702,1.145345498,12.06812405,1
-0.002573011,0.308663051,3.737602142,15.14068502,0.983268465,0.012680049,0.959872537,11.01135487,1
-0.002625177,0.310086971,3.745147085,15.09100851,0.983278384,0.012645769,1.530752806,5.213927354,1
0.002441384,0.329502997,3.578127789,13.25954836,0.983712496,0.013064203,1.625842279,6.241638272,1
0.001038777,0.315312597,3.762631892,14.84046718,0.985154561,0.013015918,1.528063253,5.746622385,1
0.001395185,0.314822267,3.769323246,14.8528249,0.986207036,0.012661286,1.339720769,4.852524449,1
-0.001987289,0.328336232,3.63578166,13.59904617,0.986620222,0.012723161,1.379169934,4.778418126,1
-0.00062165,0.327053672,3.663735441,13.79241546,0.986884798,0.012721269,1.406417911,4.600685559,1
0.002490431,0.313299247,3.804075391,15.08684761,0.986469923,0.012808008,1.28405253,5.641369906,1
-0.000709063,0.301925925,3.924153943,16.34523098,0.985888563,0.012646887,1.403803627,6.219288679,1
0.001195038,0.31500253,3.75587962,14.76375324,0.986074829,0.012588803,1.434650848,7.411326358,1
0.001371231,0.303808699,3.85777726,15.92205641,0.985703169,0.012848712,1.448286296,6.510747055,1
1.24E-05,0.304903857,3.837171352,15.76922215,0.985161809,0.013079171,0.671439524,16.26795792,1
0.002117046,0.31698587,3.697603695,14.37066531,0.984852164,0.012928143,0.653238641,17.11010767,1
0.00093251,0.318751844,3.647182397,14.04842898,0.984627315,0.012659836,1.584578213,4.898998651,1
-0.000623199,0.320040827,3.646509412,14.01939043,0.984824153,0.012754807,1.443117534,4.945845887,1
0.000501369,0.329421189,3.574474583,13.18389387,0.985763441,0.012621779,1.417250167,5.232398641,1
0.001314887,0.318893635,3.629533061,13.96353781,0.986675426,0.012518572,1.470350981,5.684243162,1
0.00376884,0.309876552,3.704662708,14.84828211,0.986869758,0.012564362,1.545169481,6.592519984,1
-0.00028174,0.296840455,3.845146412,16.36800532,0.986245673,0.012550177,1.466028448,6.314553385,1
-0.000519542,0.297570448,3.786052393,16.0103065,0.985642024,0.012461823,1.504661219,6.323699906,1
0.003168084,0.311773792,3.608656412,14.27643917,0.985265732,0.012776849,1.64589128,6.633999999,1
-0.001383336,0.300070929,3.738728556,15.64262379,0.984123066,0.012979112,1.414204115,5.631278009,1
-0.000396011,0.299645549,3.740678832,15.69393127,0.982983453,0.012923135,1.386552802,5.207804928,1
0.001352227,0.298670083,3.742265109,15.73797805,0.982448632,0.012958441,1.553874639,5.186383272,1
0.001379131,0.297891943,3.762429584,15.85807734,0.982491193,0.012824845,1.621416127,5.558253017,1
0.001949786,0.298680744,3.728632349,15.657488,0.982433537,0.013258752,1.071376587,11.3515239,1
0.004188793,0.298577525,3.71897139,15.56565894,0.98218411,0.013233022,0.935904918,10.79823551,1
0.004260975,0.29896758,3.717580989,15.53043455,0.98212362,0.012942621,1.315427449,4.889696797,1
-0.004204782,0.287593437,3.836062277,17.0304397,0.981456266,0.013047601,1.348482927,4.937506361,1
-0.004101451,0.287386114,3.841066694,17.08638077,0.980285045,0.012777557,1.535244052,6.013974183,1
0.001237499,0.299414723,3.730032866,15.64390318,0.978835951,0.012955964,1.699824373,6.178895014,1
0.000279569,0.298821322,3.745249403,15.73304231,0.977929088,0.012818703,1.573595351,5.077599912,1
0.000177567,0.299130656,3.71781676,15.57762956,0.977809634,0.012772054,1.124864005,8.038424555,1
0.001087902,0.298592606,3.731262475,15.67370676,0.977187565,0.012799985,1.099655565,7.981700766,1
0.000148911,0.298332884,3.751226814,15.79381596,0.976549585,0.012672688,1.332139463,5.131416128,1
0.000595792,0.299250369,3.729427971,15.64958987,0.9759358,0.012756656,1.322708596,5.000498706,1
0.00518675,0.311523997,3.615572748,14.35119598,0.97504327,0.012715103,1.412804966,4.957064542,1
0.004111777,0.311912214,3.601747317,14.27176424,0.974313627,0.012922389,1.640324921,5.809673057,1
-0.003341609,0.313398339,3.622252929,14.40405795,0.973258754,0.01266876,1.595413285,5.954580552,1
-0.001501569,0.322573336,3.601633208,13.78596113,0.972538594,0.012439537,1.499162611,4.862410767,1
0.002907872,0.321390914,3.61707073,13.86652078,0.971997888,0.012941224,1.47827081,4.990650475,1
-0.000699888,0.310065353,3.748520975,15.14932624,0.969794955,0.012974359,1.525409636,5.826637378,1
0.000570615,0.30844529,3.762588245,15.25606385,0.968518611,0.012620077,1.500932524,6.16233505,1
0.001218364,0.30946953,3.711112318,14.95074708,0.967896162,0.012910087,1.407421966,5.685886636,1
0.002919401,0.30943947,3.71358055,14.94822126,0.966658837,0.012657889,1.387102461,5.245441251,1
0.000132385,0.320651757,3.632096229,13.9496436,0.967308807,0.012663856,1.454026722,5.378539292,1
-0.004752803,0.318201404,3.720776291,14.48655368,0.970198059,0.013224614,1.165629949,7.660633638,1
0.001103551,0.314348339,3.792177478,14.95783635,0.973667472,0.013238627,1.035435984,7.755339296,1
0.001983385,0.313126238,3.816209818,15.14088838,0.976754161,0.013246924,1.289708581,5.706613252,1
0.000311449,0.301165271,3.945098626,16.48079355,0.979286684,0.013214324,1.323475532,5.903921027,1
0.001209569,0.302734341,3.887698873,16.0995536,0.980062975,0.012861862,1.405760105,5.169592693,1
0.002793797,0.315749823,3.725367189,14.54169096,0.97942276,0.012813831,1.396228672,4.801288786,1
-0.001917049,0.317614611,3.720992562,14.52040993,0.977785873,0.013135109,1.328580476,5.209383309,1
-0.001787619,0.318470935,3.731783831,14.6181829,0.974638476,0.01335161,1.309894288,5.76631536,1
0.001855382,0.305296472,3.843835917,15.85346764,0.972441646,0.013254818,1.336571107,6.159131483,1
-0.000154528,0.29453853,3.879194433,16.66344131,0.97188748,0.01318372,1.354849832,5.943153277,1
0.00017809,0.296581832,3.807243523,16.18675578,0.97073179,0.012979276,1.421000634,5.674664051,1
0.00199411,0.297039529,3.8067292,16.18075136,0.968232836,0.012859481,1.337042294,4.943253816,1
0.000502311,0.297821799,3.779583925,15.99602066,0.964140102,0.013043159,1.338550595,4.376896571,1
-0.000727955,0.310562716,3.677592574,14.74795831,0.961770848,0.012891386,1.440308057,4.913102426,1
0.001442793,0.308810471,3.740429825,15.14802861,0.962584196,0.013039469,1.37543144,5.352208899,1
0.00415652,0.307801189,3.740147216,15.15668161,0.963216836,0.013060872,1.308059733,5.734065664,1
0.002098153,0.307727721,3.73910313,15.13495732,0.963139561,0.012976644,1.073492561,7.446443361,1
-0.001037796,0.295317721,3.865983941,16.53808635,0.963492966,0.012944957,1.205736258,7.741721811,1
0.001369328,0.296060403,3.816679763,16.24003602,0.963543919,0.013139757,1.562387346,7.141186193,1
-0.000306028,0.296802772,3.831088595,16.33052763,0.962745503,0.01311541,1.651672874,6.729915838,1
0.001023291,0.309033021,3.710032951,14.96793945,0.962935747,0.012892651,1.58206578,5.021663276,1
0.000922315,0.322300485,3.546524362,13.48723987,0.964597702,0.013159377,1.372330083,5.656568181,1
0.00018869,0.321468319,3.590890877,13.75492895,0.965408053,0.013111175,1.345728007,6.072961765,1
0.002367469,0.307667189,3.744744855,15.20433166,0.965485055,0.013135505,1.577073338,5.92822902,1
-0.001122685,0.296138958,3.86168238,16.50299619,0.965471431,0.013055268,1.65177431,6.547266102,1
-0.000274835,0.296062261,3.851616229,16.43907681,0.965887724,0.012777525,1.504542289,6.378720369,1
0.002389677,0.309798667,3.678232149,14.76599259,0.966297967,0.012728943,1.560476919,6.31213809,1
0.001188806,0.323092687,3.545104743,13.487814,0.967406082,0.012918411,1.726377886,7.525191553,1
-0.000150075,0.310475691,3.691990114,14.87593726,0.968888583,0.012611168,1.499020792,7.231244683,1
0.000423608,0.310601125,3.700830114,14.85812725,0.969223295,0.012525089,1.38926383,5.019606348,1
-0.000514206,0.321506966,3.631630442,13.94479311,0.968847329,0.012830516,1.598935389,4.769947528,1
0.000372992,0.306268993,3.817369375,15.63779114,0.967371096,0.01294531,1.474916351,4.963786252,1
0.003956066,0.306816097,3.760340663,15.27002696,0.965330669,0.012869415,1.480886211,5.695025803,1
0.002545728,0.30981327,3.69374535,14.82701596,0.963962773,0.012624138,1.560950251,6.556145218,1
0.000286724,0.298361148,3.779872894,15.94075971,0.962699345,0.012690016,1.162207638,10.78912237,1
0.001612525,0.298965617,3.746346113,15.74529492,0.96159281,0.012813575,1.281667175,9.981204759,1
0.000884412,0.290906548,3.828791617,16.69107092,0.960808836,0.012770098,1.53766199,5.698237951,1
0.000414302,0.299900804,3.720788674,15.5687511,0.959722955,0.012737469,1.339888891,6.229752999,1
-0.001853943,0.295956449,3.751756098,16.01610017,0.958830261,0.013019962,1.602819651,7.007578427,1
-0.001106866,0.287116676,3.862638613,17.17023781,0.958467266,0.013400765,1.075196972,18.90416924,1
0.001357989,0.30028479,3.72785373,15.59413911,0.957935006,0.013250521,0.967806324,18.83448395,1
0.003629347,0.311242266,3.630196208,14.40988542,0.958267212,0.012719392,1.669953895,7.052095978,1
-5.36E-05,0.310091582,3.693204495,14.81674879,0.958499908,0.012786857,1.542753912,9.127694182,1
-0.000736359,0.321229579,3.616149391,13.88600599,0.958380781,0.012735689,1.310747415,7.768096148,1
0.001950884,0.331397051,3.522983294,12.93014942,0.959707696,0.012673785,1.352384789,4.924596344,1
-0.000894307,0.317280373,3.728139557,14.59157652,0.963016129,0.013148457,1.381609169,4.819081649,1
-0.000262966,0.315014944,3.811118624,15.0708854,0.96633922,0.012927046,1.549926795,5.625290122,1
0.001484018,0.306766995,3.884472692,15.85888977,0.966776385,0.012619813,1.552623689,4.935313748,1
0.000363994,0.303151009,3.878153341,16.04085473,0.965494592,0.012493697,1.406779705,4.445491776,1
-0.001571038,0.299712053,3.897454762,16.38540117,0.964020647,0.012630011,1.461291899,4.951300638,1
0.006095529,0.303559206,3.814216355,15.62583267,0.963609423,0.01288926,1.5852939,6.075034719,1
0.001971137,0.306831337,3.760619445,15.27979829,0.9635752,0.012772725,1.444689826,7.344391563,1
-0.004440059,0.296053458,3.876750042,16.60991138,0.963387735,0.012935302,0.452527977,21.46413377,1
0.001579808,0.313388234,3.689105994,14.57120412,0.964023481,0.013056809,0.614536266,20.85213932,1
0.001856506,0.318755116,3.64786243,14.08030799,0.964949526,0.012667742,1.603108428,7.555826844,1
-0.001059187,0.298629622,3.888688841,16.40428173,0.96547917,0.012600627,1.569989312,6.644988717,1
0.001428563,0.304994707,3.807582768,15.58406268,0.965761621,0.012587142,1.413411326,5.239975342,1
0.001334473,0.306361331,3.765224412,15.29860621,0.966059984,0.01295603,1.738967017,7.870446839,1
0.000714209,0.294837318,3.852318729,16.45882123,0.965860476,0.013008283,1.819761758,8.567854676,1
0.002401265,0.30776432,3.72876381,15.05356311,0.965635136,0.012587331,1.563205714,6.308531222,1
0.001854492,0.308510901,3.733798902,15.06700443,0.965704945,0.01260789,1.44466902,5.434124069,1
0.001588512,0.2962341,3.828503708,16.27910513,0.965592248,0.012735665,1.476948465,5.038197593,1
-0.001441256,0.295679178,3.861893592,16.48247651,0.965467834,0.013048773,1.648928548,6.117580975,1
-0.001715136,0.296082713,3.840865546,16.35726017,0.965706471,0.013452715,1.769006387,8.0133575,1
0.000109961,0.295869571,3.826404202,16.27313273,0.965771757,0.013018428,1.867596491,8.073872567,1
0.001098358,0.295020868,3.850486117,16.4149243,0.965168435,0.012575024,1.557933024,6.082801731,1
0.003243458,0.308802792,3.692624994,14.81396117,0.964135034,0.012541065,1.189528764,5.51814009,1
0.002706613,0.30887039,3.701398506,14.85908224,0.963593238,0.012527249,1.18629388,5.273606413,1
-0.001606136,0.296119389,3.865260049,16.48622657,0.963447353,0.012520634,1.508383382,5.739019308,1
0.00123485,0.309380653,3.697151221,14.85089974,0.962887573,0.0126362,1.784305895,5.908441652,1
0.005719744,0.320397265,3.600154076,13.75473789,0.96273335,0.0130134,1.052987339,11.01083201,1
0.000347508,0.308186712,3.753398885,15.21914762,0.962399782,0.013027433,0.826096661,11.36021768,1
-0.003827277,0.295068013,3.893518976,16.73303468,0.961525454,0.012855628,1.433484219,6.240862232,1
-0.002423322,0.294183261,3.916733778,16.85039921,0.960769163,0.012903998,1.721003135,6.74155042,1
4.85E-05,0.294428947,3.873823769,16.5929523,0.959950256,0.012912298,1.896889776,9.047168439,1
0.002066528,0.294933065,3.836824209,16.34977247,0.960030474,0.012971923,1.831444644,8.537838899,1
0.003630177,0.317157702,3.62416465,14.04958047,0.96114006,0.012969954,1.557220447,5.700472904,1
-4.02E-05,0.331868746,3.540869791,12.9854216,0.961523002,0.012875467,1.484992175,6.535549436,1
-0.000509726,0.332558678,3.582043955,13.12911691,0.963303866,0.013108651,1.67234608,8.130082296,1
-0.000381742,0.315413437,3.79010058,14.94143696,0.96578876,0.012863215,1.65283812,7.539670155,1
0.002625732,0.302294617,3.901849889,16.16829224,0.966391918,0.013041629,1.355589959,6.108198552,1
0.003922793,0.304328089,3.803930174,15.54775024,0.966328703,0.013345167,1.453191247,6.872923184,1
-0.003708533,0.296561685,3.852772401,16.39893249,0.966799654,0.013209104,1.53447361,6.761412182,1
-0.001554036,0.297942284,3.802844967,16.06683584,0.967557253,0.012755653,1.407474574,5.467535524,1
0.002645848,0.296459928,3.813514361,16.18269551,0.968501173,0.012494762,1.512967214,5.314527767,1
0.003329851,0.303542935,3.742463587,15.37979906,0.969538607,0.012745984,1.335281491,6.225073579,1
4.22E-05,0.299165594,3.744723935,15.67331875,0.970007869,0.012909091,1.311943687,6.092127683,1
-0.001787927,0.305017504,3.705877879,15.18796671,0.970361383,0.012776768,1.526098549,4.953212415,1
0.001069342,0.322237976,3.591832403,13.70861531,0.969842093,0.012704394,1.486653929,4.649310781,1
0.000777381,0.30984616,3.713355717,14.95180324,0.968998282,0.012948827,0.81530368,13.43139959,1
0.001027163,0.2959072,3.855345672,16.48634717,0.969392123,0.01304172,0.735325287,14.42056804,1
0.000172028,0.306827627,3.709364163,14.91993345,0.97567967,0.015972475,0.076081967,19.99333917,1
-0.001425803,0.320558539,3.615279609,13.80600233,0.991878728,0.018223366,-0.383596096,13.39663454,1
0.000795423,0.33219823,3.578654655,13.20857571,1.005628041,0.013833562,1.161047753,4.095255009,1
0.002454006,0.329325618,3.6157276,13.4395434,1.013679123,0.014131912,1.035830932,3.49833995,1
0.000688797,0.305454118,3.838945678,15.73022614,1.020368849,0.012638717,1.183258407,4.673783658,1
-0.000707389,0.295337253,3.883148852,16.59027289,1.023991776,0.01260429,1.343823155,5.248754263,1
0.000610539,0.298417808,3.785996803,15.95080072,1.025465884,0.013036285,1.619877129,6.206997555,1
0.001113288,0.299404768,3.739265783,15.6568717,1.025117166,0.013079311,1.669703362,6.31618876,1
0.001420722,0.29931556,3.744041542,15.69456315,1.024171339,0.012938658,1.56722777,6.112498132,1
0.000268446,0.299623206,3.746902581,15.70763101,1.022268949,0.012838178,1.466158631,6.004038047,1
0.000803944,0.298984828,3.76164588,15.79908399,1.021303504,0.01269781,1.460067192,5.438490336,0
0.003273756,0.298610436,3.726045195,15.6048132,1.021478653,0.012819589,1.35647256,4.478568914,0
0.001282275,0.324238295,3.480501211,13.01764673,1.027230889,0.014193789,0.897743546,2.429382569,0
0.000368572,0.345434653,3.384331206,11.66807461,1.033189556,0.012897084,1.013869143,4.833949514,0
-0.000889428,0.340799034,3.506238002,12.45619246,1.035877282,0.012796575,0.825815074,5.445021056,0
-0.002191942,0.336444016,3.592593993,13.02628693,1.040688051,0.012783787,1.193017632,5.452792284,0
0.00144775,0.336633134,3.564157712,12.82385472,1.050379126,0.015239349,0.927766122,2.483945136,0
0.002007209,0.326731044,3.652790093,13.65638853,1.067719977,0.016742807,0.538966032,1.457899935,0
0.002926444,0.323855858,3.739479457,14.15876068,1.083008902,0.014963782,0.995233804,3.779330276,0
-0.001007342,0.323298732,3.776620705,14.44283912,1.099850028,0.019330076,0.588908313,1.026874724,0
-0.002941033,0.323805035,3.770465844,14.40901167,1.122436632,0.018659341,0.338170501,0.93585374,5
0.000365374,0.322130004,3.797471328,14.53707283,1.148731831,0.020856712,0.408261767,0.205540545,5
-0.000550114,0.321183723,3.817825057,14.65516673,1.180025918,0.023368798,0.231111837,1.291945145,5
0.003338967,0.343760642,3.540144905,12.29837625,1.217928914,0.028446625,-0.089507701,0.683062856,5
0.004599243,0.344008831,3.534202703,12.26723427,1.248690251,0.018054196,-0.076179232,3.816031814,5
-0.00185272,0.323258607,3.77113774,14.34480448,1.267436382,0.018113648,0.47093108,4.13264858,5
-0.001485901,0.33258098,3.660707871,13.37909693,1.283373043,0.016268105,0.455518122,1.784604865,5
0.001240932,0.342550735,3.558620387,12.48378961,1.294085203,0.017217631,1.124194245,2.39543044,5
-0.000632669,0.333696487,3.631836652,13.22079507,1.307579967,0.018617991,0.132586942,1.151925212,5
0.000292969,0.333427719,3.626135331,13.19632634,1.333498056,0.021966321,0.4066889,0.005179712,5
0.00265552,0.33251835,3.654951741,13.31461927,1.348427745,0.014496811,0.978374183,3.900614916,5
0.00039006,0.321230592,3.777256814,14.41859209,1.354918562,0.015715393,0.682603894,2.132000775,0
-0.002288263,0.309940509,3.903360485,15.66609874,1.38547069,0.02590229,0.230484161,-0.805293285,0
-0.000203182,0.322298358,3.76364737,14.3356621,1.408872604,0.013553607,0.850270816,4.149481367,0
0.00255317,0.335045819,3.601034202,12.98281058,1.411132595,0.012895594,1.580211106,6.265720814,0
0.001129257,0.338587693,3.533718766,12.61024665,1.411920929,0.013275185,1.483015989,5.441922614,0
0.000537441,0.340396815,3.513599566,12.49121638,1.411056192,0.012925091,1.209955109,4.822522459,0
-0.000470359,0.315894771,3.779330457,14.8722379,1.40565349,0.013546081,1.112763546,3.972810475,0
0.003423477,0.30358646,3.868121818,15.90967787,1.396508735,0.013465572,1.011026513,4.800651923,0
0.002584547,0.31724431,3.692040808,14.32740194,1.389071274,0.01302773,0.141828267,15.85342853,0
-0.00381854,0.31562072,3.785354785,14.92276617,1.389186314,0.012844102,0.377567022,16.27583145,0
-0.001129715,0.313448913,3.831847322,15.22436299,1.385114888,0.014718457,0.739555094,2.879242346,0
0.000426551,0.315441843,3.7756237,14.84908215,1.373632595,0.014101237,1.089082233,3.79822793,0
0.00110219,0.304370637,3.866235964,15.90830368,1.36307166,0.014440258,0.940576989,3.687705903,0
0.001197948,0.294357477,3.890767643,16.69201712,1.352804293,0.013583794,1.164717523,4.620953331,0
0.002811754,0.309628953,3.686522351,14.78599267,1.346389117,0.013090743,1.437585641,5.046246687,0
0.000333971,0.308769519,3.745541454,15.11616817,1.339458902,0.013801201,0.520018604,13.23781637,0
-0.001033068,0.294831887,3.902283524,16.75155731,1.330667496,0.013534518,0.571971347,12.44061986,0
0.005296345,0.307895514,3.718707545,14.99385492,1.321843229,0.013398514,1.200601342,4.233775869,0
0.006264378,0.308234823,3.693581777,14.80809071,1.313309969,0.013200037,1.35380492,4.959249414,0
-0.003573983,0.284051776,3.939111411,17.73541967,1.305819975,0.013407327,1.399644654,6.423365855,0
-0.004818512,0.299278427,3.787187201,16.0376211,1.299455043,0.013015615,1.347840375,5.517035124,0
0.000239168,0.310667504,3.687457234,14.80008243,1.291676767,0.01380636,1.00081467,3.744425235,0
0.003181085,0.309827873,3.69109785,14.82853003,1.282533482,0.01376853,1.042883418,3.41322048,0
0.002287759,0.310816061,3.658736675,14.63043999,1.272077615,0.014372638,0.960996755,2.692819613,0
-0.001470075,0.297124743,3.839288691,16.37931609,1.26149619,0.013266276,1.169608201,3.401096176,0
0.001624492,0.309994938,3.703052884,14.91410791,1.252281298,0.013378928,1.050985283,3.469426825,0
1.59E-05,0.310405644,3.698955293,14.85321886,1.243674959,0.012776682,1.109384853,3.613407022,0
0.002510644,0.32146198,3.607118072,13.7935317,1.237021255,0.012573317,1.195890663,3.548540398,0
0.000513107,0.320606031,3.644179984,14.0508382,1.231490871,0.012743787,1.387461067,4.92572794,0
-0.000838087,0.306978799,3.797114624,15.52731152,1.225946208,0.013080413,1.3750622,5.676399805,0
0.00124872,0.308380914,3.741891545,15.16093875,1.219023732,0.013304057,1.366948411,4.750172164,0
0.000499335,0.310324178,3.703863253,14.89387082,1.210432707,0.01351984,1.30036058,5.02906776,0
0.002482727,0.32213313,3.59303474,13.70445896,1.20188021,0.013158162,1.280312137,5.40752738,0
-0.002540052,0.309073585,3.771543984,15.30606027,1.19530498,0.012896244,1.33276839,5.589947072,0
-0.00083349,0.309327222,3.742051691,15.13950144,1.189710454,0.012876638,1.233260873,4.657178586,0
0.003602947,0.321089956,3.59658699,13.7495776,1.186140769,0.012447277,1.371287767,5.514910477,0
0.003020769,0.313078305,3.740593992,14.82367854,1.18176493,0.013554907,-0.480905245,43.62064796,0
-0.001834593,0.305579742,3.839711131,15.76474696,1.175608444,0.013509798,-0.250199293,42.91108604,0
-0.001728162,0.313418482,3.702601779,14.66195873,1.170374189,0.013077469,1.443031051,7.309378804,0
0.00229146,0.319725427,3.63138532,13.94668019,1.165365274,0.012865107,1.404706564,7.677774586,0
0.000231812,0.31771448,3.706572539,14.42461949,1.16124927,0.012675472,1.524187287,7.352725633,0
0.00048797,0.317087449,3.735653149,14.59859286,1.157666561,0.012660958,1.676480713,5.408932834,0
-3.91E-05,0.317946173,3.715981806,14.48391051,1.153406906,0.013083936,1.604019942,6.092123452,0
0.003388504,0.328526215,3.598906156,13.36430565,1.15056076,0.012904706,1.513450016,7.125807926,0
0.005497702,0.337753494,3.522070695,12.57063852,1.148616246,0.012579655,1.385222448,6.119564164,0
-0.001148137,0.327134313,3.618675297,13.6236972,1.145950045,0.013512036,0.979001495,4.426432714,0
-0.005110709,0.338392317,3.500063216,12.50013406,1.146065358,0.013979664,0.983080345,3.902877082,0
-0.003476892,0.359363877,3.325388041,10.88826237,1.146514947,0.012922352,1.32072743,4.511295731,0
0.002677473,0.357988901,3.292013581,10.79822152,1.145126833,0.012706201,1.534514749,6.3913362,0
0.001706602,0.334783686,3.514645215,12.66728097,1.14379643,0.012567523,1.662001871,6.635594742,0
-0.001734048,0.323686143,3.655062988,13.85811858,1.142765972,0.012506156,1.499333939,4.809441838,0
-0.000290516,0.336132322,3.499112858,12.55764716,1.150094387,0.014901586,0.923169925,2.216428593,0
0.002666696,0.347924563,3.362826387,11.46807746,1.168309511,0.018531686,0.778511228,0.767834564,0
0.00113046,0.348047723,3.373709874,11.5306737,1.186776297,0.01714807,0.178938412,1.373810438,0
-0.001077098,0.354920108,3.140118302,10.51629378,1.198725237,0.014240955,1.119463393,3.831097232,0
0.001772219,0.36715026,3.0008725,9.507936675,1.220377459,0.023743771,0.325849556,-0.39257251,0
-0.000139389,0.349564903,3.303409435,11.22373703,1.24934567,0.019523044,-0.143789794,4.45761605,0
-0.001788012,0.348725671,3.322639548,11.3260147,1.275925882,0.022331739,0.192585227,3.455787137,0
0.003877219,0.355561742,3.238866317,10.65688526,1.306075341,0.021530559,-0.156200983,1.221970459,0
0.004137092,0.359023077,3.187201577,10.32597099,1.339280101,0.024916971,0.651836484,0.167626528,0
0.001176276,0.364663372,3.108806535,9.860021364,1.399161421,0.0478605,0.183578116,-1.287765763,0
-0.002649131,0.366727823,3.000666665,9.453725153,1.470716803,0.040419461,0.026604071,-0.43760626,0
-0.004551616,0.382053335,2.828282825,8.348614736,1.547122955,0.055135048,0.141277381,-1.141373455,0
0.004627056,0.40467716,2.576555307,6.804511003,1.631824984,0.047312455,-0.271274582,-0.831435527,0
0.002124651,0.418768751,2.390675261,5.870825305,1.697666277,0.043103492,0.820070919,0.010854052,0
-8.14E-05,0.433888509,2.200296328,4.945749564,1.751842989,0.040435332,-0.665933346,-0.821061538,0
0.002139646,0.443493981,2.113129626,4.534822061,1.786066927,0.022610478,1.400506488,1.664766877,0
-0.000858614,0.438971678,2.197323668,4.923168704,1.82053239,0.034628579,-0.271244173,-1.146690826,0
0.00058308,0.436597989,2.211758771,5.000498423,1.856222153,0.017505059,0.536056668,1.090124368,0
-0.00302075,0.428066466,2.242850811,5.27457003,1.857443946,0.016141858,0.765079708,1.927625999,0
-0.001501543,0.430002676,2.244339794,5.255180414,1.86053603,0.016996532,0.623100778,1.511006708,0
-0.000232734,0.433279064,2.251190327,5.254365764,1.922612217,0.067341433,0.65150094,-1.228514659,0
-0.00209506,0.427607831,2.264844038,5.46657927,1.976563154,0.043604699,-0.930308504,0.838569311,0
0.000829742,0.426557438,2.262463166,5.507961834,2.001978465,0.051218004,1.757942836,1.720897187,0
0.001016654,0.419463171,2.298217831,5.722863977,2.059346117,0.058888715,-0.379656599,-1.360003806,0
-0.002044418,0.39979619,2.465711106,6.822885065,2.136775208,0.058417861,0.862791345,0.137571032,0
0.001569449,0.40696664,2.483373345,6.828456069,2.174249486,0.043037155,0.761184068,-0.033028377,0
0.001317333,0.40873152,2.451651298,6.670978242,2.13861302,0.041508024,0.401240587,-0.408045718,0
-0.001089458,0.410580571,2.428396519,6.576445041,2.112802778,0.024138386,0.082104313,1.781715208,0
-0.001515584,0.422970268,2.339406852,5.986839433,2.110441535,0.021107091,0.486424948,3.633659627,0
-0.002875776,0.414561329,2.358771873,6.249083195,2.10535262,0.025166654,0.504484178,-0.103929984,0
0.001822978,0.41580072,2.313488935,6.078249672,2.134366662,0.044118348,0.391359145,-0.445134052,0
9.24E-05,0.42808387,2.244689272,5.582583498,2.144537735,0.034146881,0.970232659,0.662641304,0
-0.001798259,0.427670131,2.245498034,5.581940067,2.139483697,0.044638834,1.07811509,0.390370515,0
-0.001478073,0.428036446,2.223093909,5.49312483,2.161285291,0.04567859,0.154684107,-0.680425171,0
0.001582973,0.437855568,2.166165238,5.074868496,2.177550507,0.032600689,0.799201195,0.002469437,0
0.005149397,0.437894871,2.148480502,4.999926303,2.168192128,0.034457712,0.83476743,0.145513579,0
-0.000789858,0.431140632,2.183836685,5.29350233,2.14360842,0.022667663,0.463809267,0.216061862,0
-0.002764134,0.430819334,2.213604606,5.407752833,2.122918429,0.021813733,0.549569122,0.046603022,0
0.000873093,0.429136998,2.226793832,5.470217671,2.135944475,0.032108489,0.287867352,-0.949311382,0
-0.002288831,0.427938087,2.234552593,5.50809827,2.167498016,0.021512636,-0.461657981,1.329270488,0
-0.003176533,0.439766266,2.171252225,5.06407522,2.176427078,0.022933939,0.073927981,0.350809123,0
0.004201525,0.438280221,2.147380228,5.029704451,2.172634179,0.029128388,0.01086467,-0.559705275,0
0.002809642,0.431266511,2.17230791,5.263085237,2.170525088,0.026570489,0.24458864,-0.120493449,0
-0.002573423,0.434036864,2.191994892,5.254325004,2.175164904,0.024175175,0.839015818,0.692881705,0
-0.002331423,0.430015995,2.228842085,5.446259988,2.176071004,0.034343136,0.626005548,-0.31527015,0
-0.00133616,0.429965705,2.23755598,5.481897789,2.163057545,0.034791178,0.960759461,1.608840786,0
0.001525949,0.439857346,2.180756783,5.083585707,2.168919591,0.027807836,-0.104857418,2.423906071,0
0.000746102,0.441889005,2.149683203,4.942227076,2.206015505,0.02704779,-0.010021404,0.229795463,0
-0.002211986,0.442104664,2.078621935,4.697541157,2.244737298,0.038780833,0.649618433,-0.803317608,0
0.003957334,0.44764101,1.954737864,4.169214138,2.285925347,0.045519392,0.276544971,0.182248687,0
0.001778922,0.433210521,2.029763919,4.706866168,2.33166711,0.040205316,-0.125585506,-1.223545722,0
-0.003805285,0.419529567,2.112368032,5.384584706,2.344955063,0.022110558,0.375132387,0.327589499,0
-0.002394196,0.449715394,1.762290935,3.963910738,2.324729483,0.018364645,0.431351794,3.091318698,0
-0.002127463,0.46554746,1.755303048,3.573876411,2.319599424,0.015308479,0.463914438,6.711693276,0
0.002770471,0.459302051,1.963770507,3.973204046,2.324974333,0.016143176,0.093127948,8.821049115,0
0.00424088,0.459395325,1.936954863,3.891501955,2.32833252,0.019053119,-0.123861204,13.25857485,0
0.00292477,0.453328291,1.997042262,4.254006171,2.2970344,0.040957953,-0.125540645,-0.686940099,0
-0.000929496,0.441425956,2.080372247,4.807332341,2.254247665,0.027632503,0.883939138,0.999259327,0
-0.003631753,0.435950212,2.114197214,5.045390824,2.277831268,0.051953057,0.510341202,-1.152021526,0
0.002367737,0.446776344,2.030733247,4.532033644,2.371534566,0.075208108,-0.411379508,-0.859708979,0
-0.000518836,0.450635801,1.996822623,4.332965849,2.45518619,0.043229793,-0.960390445,1.833612164,0
-0.006725601,0.446928526,1.972902176,4.400510684,2.473172542,0.024959586,0.284831953,0.609460483,0
0.00264864,0.458079164,1.85520382,3.836674044,2.49791614,0.045389427,1.111150807,0.326275227,0
0.005154484,0.46262518,1.835406306,3.616474391,2.512888227,0.038092564,1.069992004,0.63008893,0
-0.000655066,0.460373536,1.843425482,3.644248267,2.504028266,0.021732505,0.268695307,0.721025969,0
-0.002879118,0.461759743,1.82443317,3.578078074,2.534229333,0.038458435,0.514190864,-0.919024311,0
0.001387488,0.464199058,1.82194905,3.485012806,2.602056176,0.057594386,-0.100440639,-0.608580047,0
0.00285073,0.467710306,1.817738376,3.372778711,2.626757867,0.033236873,1.031089642,0.189181268,0
-0.002793019,0.470753761,1.802952938,3.294538321,2.604690497,0.016878495,0.234714445,1.116393611,0
0.000500833,0.469106318,1.791537865,3.294422039,2.590307781,0.025627905,-0.22971309,-0.415262566,0
0.003817533,0.46867989,1.80087545,3.339745986,2.574282128,0.022387511,0.427609584,-0.082319246,2
0.000768781,0.474487847,1.808583389,3.293958319,2.585411617,0.023932133,0.279689414,-0.122398484,2
-0.00042708,0.471873354,1.811899101,3.352389368,2.626958629,0.032789794,-0.033672344,-0.69128797,2
0.00231255,0.463543616,1.821356243,3.501078726,2.666744232,0.020841061,0.042649979,0.343401967,2
-0.000466088,0.456305146,1.865199396,3.785508112,2.689812796,0.033387958,1.106056412,0.490758628,2
-0.002864587,0.451781281,1.917978259,4.089437067,2.700587572,0.037730852,0.454851339,-0.9606295,2
0.003868476,0.459413046,1.889398094,3.876709056,2.715724237,0.032682783,0.171019218,-0.929673348,2
0.001331432,0.462378452,1.852990459,3.711561961,2.721512549,0.023520584,0.828896928,0.342509684,2
-0.001336062,0.453400809,1.86638226,3.898051067,2.717224939,0.020798332,1.102768289,1.814195143,2
0.001212878,0.449846352,1.880744722,4.012792311,2.772521537,0.062485672,0.530829004,-0.709436524,2
-0.000276489,0.452534618,1.890742594,4.034480516,2.799577495,0.041150041,1.113152235,1.17010078,2
0.000862525,0.450511908,1.915654964,4.122701538,2.773347473,0.020686187,0.05212881,3.756619032,2
0.000463773,0.445823929,1.94532124,4.25888686,2.78732605,0.040013393,0.465027905,-1.006950389,2
-0.00078464,0.440484553,1.998825612,4.555582283,2.834642901,0.045968755,-0.935355276,-0.324561689,2
0.000459503,0.445031687,1.991977406,4.450312219,2.860502243,0.016659129,0.332131878,3.375130639,2
0.003929509,0.457659934,1.92467893,4.002963267,2.867615891,0.03283288,1.437675483,1.362444353,2
0.001002234,0.460203931,1.896212794,3.891149201,2.888814218,0.033164072,0.271815143,-0.823033198,2
-0.004444382,0.453725523,1.91514542,4.047102918,2.930601447,0.051476008,1.681423092,3.911402688,2
0.000328125,0.442071393,1.971692234,4.444885342,3.04523528,0.095273609,0.042952586,-1.519993149,2
0.00482273,0.447387707,1.950052057,4.27589389,3.078175354,0.061015098,0.442465474,-1.10491243,2
-0.001497881,0.45258068,1.933983682,4.142146936,3.049152865,0.051451087,1.144265117,0.328622547,2
-0.004336578,0.448710741,1.966746985,4.310981515,3.03945209,0.058327886,0.913113947,-0.011067195,2
0.001796101,0.451391073,1.964650997,4.210577844,3.015688433,0.038592603,-0.085255338,-0.905632882,2
0.002330167,0.440695555,2.033841497,4.621411903,2.967589787,0.062452305,0.473765154,-1.248098687,2
-0.000618301,0.440683782,2.028239002,4.603716902,2.939035089,0.041143087,0.773596513,-0.650073368,2
0.001080636,0.441195943,1.991451634,4.477033041,2.96022219,0.038106764,0.152932258,-0.902850162,2
-0.000506633,0.44303046,2.031946023,4.56787804,2.961961474,0.026427468,0.433088934,-0.040119086,2
-0.001030459,0.452831418,1.986957701,4.29440186,2.984139742,0.04141697,1.285262955,0.649383064,2
0.001319877,0.444350817,1.983209614,4.443948246,3.019393267,0.044920383,-0.151271507,-1.230140207,2
-0.000859536,0.444726074,2.030200948,4.528306736,3.046259471,0.027839859,0.041762983,-0.151685191,2
0.000236363,0.443912458,2.046956647,4.599790033,3.043193599,0.022648226,1.095775022,1.010834503,2
-0.000274403,0.445458108,2.032026416,4.538955424,3.053387015,0.032663341,1.334480897,1.452416671,2
0.000546432,0.44699976,1.996761651,4.40814559,3.081617028,0.027457774,0.472566774,0.365844404,2
0.00416151,0.44402276,2.024166094,4.540164876,3.113542775,0.034445425,0.617140395,-0.250924253,2
0.000497203,0.44311959,2.043866438,4.613147207,3.125981031,0.03156203,0.439794291,-0.692215243,2
-0.002829548,0.436601523,2.049809933,4.804149559,3.135374505,0.03670245,0.302238055,-0.6910481,2
-0.00196376,0.438084795,2.049418516,4.800426154,3.151043429,0.031055925,0.426222951,-0.838179082,2
0.001177963,0.44000193,1.980319516,4.493688321,3.149838093,0.02505635,0.197585993,-0.326929186,2
0.000790434,0.447502353,1.951570712,4.242212578,3.178290558,0.029335879,0.588502774,0.280207499,2
-0.000581621,0.446110985,1.998230187,4.417605732,3.235974121,0.043101305,0.548921621,-0.537373018,2
0.000896203,0.436534556,2.074452996,4.813681517,3.277978134,0.032909547,0.391733893,-0.822662848,2
-0.000235657,0.436181495,2.114345315,4.94314776,3.294765854,0.028229084,-0.345513876,0.261894621,2
0.000151114,0.426744746,2.144324035,5.268391525,3.31370648,0.026971533,1.640093984,3.109082392,2
0.00060568,0.427527349,2.142597133,5.259680244,3.351656832,0.038045902,-0.002623816,-1.1749063,2
-0.000380186,0.437730787,2.095248098,4.889024231,3.401934052,0.031831033,0.165502842,-0.758259545,2
0.001722552,0.438288642,2.055392326,4.766783554,3.447629711,0.036479888,0.244152859,0.849387097,2
0.003473223,0.438421758,2.052144807,4.746788612,3.517617634,0.060817951,0.560130605,-0.665431005,2
0.000136257,0.427255109,2.125510385,5.18405018,3.571317237,0.035607555,0.080734573,-0.720681339,2
-0.00258607,0.42972787,2.102997828,5.075929271,3.599039732,0.032845554,0.998077067,0.334027116,2
0.000526212,0.430243977,2.092784713,5.047869595,3.61827507,0.028935592,0.375876858,-0.607556577,2
0.002473487,0.418916923,2.155329343,5.5057113,3.631956972,0.028359547,-0.031771172,-0.183395137,2
0.001289566,0.429611041,2.141604062,5.22461916,3.643207278,0.021434599,0.418244198,0.168426697,2
-0.001837078,0.430293614,2.16493192,5.281143174,3.66447476,0.030180866,-0.001049132,-0.777052425,2
0.000617026,0.421535968,2.163855132,5.475504478,3.707506997,0.028739696,0.647645024,-0.353336175,2
0.002314898,0.431586047,2.066794037,4.891039793,3.769861221,0.0582051,0.205168498,-1.373681635,2
-0.003714935,0.441522508,2.038020625,4.634178176,3.837364796,0.054871072,-0.016692491,0.072900373,2
0.000538853,0.436336048,2.046480493,4.80771257,3.84162565,0.043076518,1.226037823,0.430032452,2
0.007634269,0.44001815,2.014920003,4.548731931,3.841381291,0.029850734,1.033544328,0.161150829,2
-0.000105004,0.438669044,2.027487352,4.61804477,3.908563232,0.056187264,-0.130556583,-1.421885667,2
-0.003290189,0.435395902,2.022056951,4.670528387,3.978262275,0.035408574,0.077702761,0.748971867,2
-0.000872164,0.441468248,2.025412694,4.53971379,3.988889531,0.030786421,0.670574386,-0.391373483,2
-0.002844916,0.430597155,2.13426336,5.150219462,4.09231611,0.152277699,0.965528122,-0.485271629,2
-0.001029667,0.42274467,2.17821527,5.503880588,4.151560647,0.122847753,0.847064494,-0.469346951,2
0.005936155,0.431542102,2.116305817,5.07909864,4.073933574,0.059477306,1.259811917,1.81711557,2
0.00612752,0.430801427,2.108946736,5.06914732,4.02400589,0.039914157,0.753808482,-0.502954018,2
-0.005914634,0.426710509,2.106442232,5.198622527,4.038099997,0.05042203,0.6272277,-0.733566823,2
-0.004336199,0.427127381,2.077169332,5.085003423,4.054551479,0.040562624,0.540279929,-0.244239065,2
-0.000356147,0.435763018,2.032300086,4.7528656,4.067015948,0.074988172,1.730764309,1.855727529,2
0.001490662,0.444832402,1.966906394,4.314033689,4.109457833,0.066709814,0.963889782,0.21170993,2
0.000650691,0.456659075,1.885375265,3.836364961,4.103772136,0.026655284,1.434814285,3.531380169,2
-0.00254837,0.467420237,1.84269146,3.540966796,4.131395231,0.04592304,0.320598748,-1.437603987,2
0.003477585,0.46461541,1.816767677,3.488611431,4.172836958,0.025777639,-1.358594023,2.63373198,2
0.001544442,0.473154985,1.800103194,3.309799879,4.184779031,0.023147091,0.23618442,0.235771172,2
-0.000733069,0.472537854,1.80612334,3.333313414,4.197572054,0.021621146,-0.322995343,0.501691675,2
0.001008336,0.470560313,1.803037168,3.34662148,4.211990738,0.019841869,0.211789898,0.122228941,2
0.004296786,0.481941483,1.79044812,3.12431433,4.252960151,0.033985538,-0.128523838,-1.248649821,2
-0.001513942,0.480475969,1.819970856,3.222901787,4.287131228,0.012893901,0.318032524,3.914320502,2
-0.003786608,0.479616234,1.829499819,3.257525757,4.305215509,0.020314511,0.763570635,0.556550875,2
0.003300679,0.484380697,1.794553275,3.068475671,4.326163428,0.024820148,0.716950394,-0.265690467,2
0.004035834,0.482500917,1.803490245,3.118217818,4.320344543,0.025331317,1.083126252,0.314340859,2
-0.001615271,0.474867889,1.843510707,3.374659912,4.311737823,0.017450173,1.350538899,3.089685208,2
-0.002811257,0.475182867,1.848407146,3.406573839,4.35041226,0.040691354,0.047521811,-0.838626069,2
0.001252559,0.473105165,1.841543954,3.430504367,4.389896774,0.020832035,-0.075581911,7.10725199,2
0.000342401,0.467788972,1.859114334,3.620091803,4.410648019,0.023738167,-0.125518826,-0.251955553,2
2.91E-05,0.467680636,1.880383531,3.705718886,4.431975392,0.025068505,0.891252014,0.24964752,2
0.000701281,0.462735704,1.884342491,3.777795479,4.451578522,0.028653701,-0.256544074,-0.638866639,2
0.000567823,0.460392842,1.889882619,3.828318774,4.467680086,0.014298327,0.426815767,3.211103925,2
0.000638051,0.459153964,1.90482294,3.89315753,4.501602718,0.036625351,0.450237264,-0.822157778,2
0.000288319,0.459863288,1.895411319,3.865539096,4.55469671,0.029463446,0.060992817,-0.643484747,2
0.00076869,0.458686601,1.913599098,3.940044235,4.586018154,0.02893014,0.391394209,-0.148280052,2
0.001455401,0.45589272,1.932832845,4.033013155,4.591823196,0.027961535,0.101777099,-0.015678952,2
-0.001370649,0.458097948,1.926533864,4.006372481,4.584301649,0.017043593,0.709974162,1.487002911,2
0.003387418,0.453558289,1.950531394,4.20443463,4.574876676,0.013438012,0.56471956,3.69590214,2
0.001161647,0.446404162,1.970810987,4.407395367,4.569659206,0.01155451,0.629101879,8.25945571,2
-0.00372857,0.44758383,1.934527993,4.278081892,4.598418154,0.039604041,0.904851783,-0.30021511,2
-2.30E-05,0.456299281,1.910124512,4.031964032,4.643607003,0.045225528,0.317420951,-0.522453833,2
0.002420537,0.45534492,1.909315412,4.03618159,4.648919623,0.039345902,0.665753535,-0.44232417,2
0.001446004,0.454752514,1.904862201,4.040359521,4.647778538,0.031913864,0.262265366,-0.833651519,2
-0.001532547,0.455451788,1.931761878,4.100970596,4.649452918,0.026329318,0.81655815,0.037242624,2
-0.000625456,0.446274319,1.976572764,4.406935798,4.640667452,0.015951946,-0.482165953,13.99969353,2
0.000731807,0.447622662,1.961130673,4.358349883,4.668954631,0.03400738,0.105807156,0.087221701,2
0.004997243,0.447351579,1.9555558,4.345210273,4.684734235,0.025272556,0.111384368,-0.160341529,2
0.000441193,0.440615237,2.005089747,4.637344361,4.698831068,0.036159791,0.466614899,-0.415944607,2
-0.004607398,0.435920612,2.064758436,4.959762747,4.705375726,0.030540891,0.717271132,0.215942014,2
0.003530515,0.44237158,2.037722088,4.71958609,4.694047165,0.028637423,1.731944311,4.266674512,2
0.003277477,0.443410151,2.013705252,4.58366488,4.728147289,0.049615943,0.827179431,-0.454345808,2
0.000300836,0.445223522,2.011023897,4.509442133,4.734654454,0.043220186,0.97042673,0.003589806,2
-0.001997857,0.44789228,1.984923294,4.414025073,4.691210229,0.033262864,0.172296049,-0.694085784,2
-0.003330505,0.445598794,1.990765205,4.484507375,4.677882821,0.022942896,-0.114484326,-0.469835414,2
0.001098574,0.45015565,1.970784094,4.312638478,4.711676352,0.037933918,0.657064593,-0.441919244,2
0.005316108,0.448227429,1.970369825,4.33794689,4.738984844,0.03096267,-0.304962689,-0.223515448,2
-0.000208217,0.438271377,2.052920912,4.762146419,4.786805017,0.055122425,0.369812202,-1.235951008,2
-0.002176627,0.432695053,2.074980376,4.96447493,4.808687265,0.04243987,0.073835833,-0.975821488,2
-0.000250122,0.441973019,2.017308637,4.614912401,4.797300557,0.036478298,0.415801894,-0.763352086,2
0.000303053,0.442246563,2.023889756,4.652279407,4.781091309,0.04107096,0.85910006,-0.390874434,2
0.000831534,0.433717898,2.053435734,4.916980803,4.748230961,0.017810149,0.780954103,1.685953278,2
0.001377823,0.438534161,2.030234939,4.705952616,4.729758617,0.019146893,0.239042883,0.571998919,2
0.000383972,0.442212135,2.029764855,4.622997236,4.738209643,0.031504749,0.645233557,-0.171027025,2
-0.002647463,0.438325022,2.05398551,4.793157854,4.742784282,0.030831914,0.46101444,-0.403346729,2
0.003108935,0.443534238,2.02847369,4.611949707,4.823384639,0.114880494,0.60609699,-1.206196316,2
0.000287665,0.435559937,2.088301701,4.984152858,4.978959383,0.091550061,-0.600174922,-0.537929584,2
-0.003205111,0.435582474,2.098852959,4.985978682,4.9941779,0.061172821,0.452854929,-0.49801992,2
0.004381191,0.448336132,2.004055613,4.393485773,4.907669558,0.051488603,0.186274901,-1.201020147,2
-0.00014636,0.444505241,1.988925939,4.471973421,4.853897149,0.023582918,0.67219144,0.232689789,2
-0.0040842,0.43841736,2.023890798,4.710353293,4.845526069,0.021686019,0.523300786,-0.15237476,2
0.001378876,0.425144572,2.112679099,5.252418318,4.821911185,0.034359046,0.32565355,-0.655181748,2
0.000374699,0.42524723,2.133373363,5.316229347,4.80956846,0.026976579,0.263240855,-0.743285148,2
0.00032596,0.443436908,2.06369714,4.694389581,4.940337862,0.144054578,0.737578231,-0.852443654,2
0.000728139,0.435451294,2.084392938,4.923741434,4.97723078,0.117179477,0.899309726,-0.444478511,2
0.002582421,0.435242645,2.052679542,4.828886196,4.907384927,0.064997638,1.821127128,2.844160656,2
0.002358385,0.444737945,2.012352614,4.508021919,4.954386629,0.076680816,0.363114171,-0.903042901,2
-0.001008499,0.436032161,2.045162125,4.781330961,4.952652631,0.055966828,0.432108229,-0.068325382,2
0.001905886,0.422441204,2.143070802,5.391045862,4.882700348,0.042585604,0.582163305,-0.690833664,2
-0.002984737,0.417495547,2.186569778,5.711845319,4.922630201,0.151878175,1.694292639,1.330509524,2
-0.004547836,0.431568286,2.091491332,5.080343348,5.053265817,0.149992504,-0.222014255,-0.978564637,2
0.003828408,0.436769538,2.070173619,4.85683933,5.083415277,0.063452661,-0.207197472,-0.365503696,0
0.0005159,0.426149995,2.136937785,5.325121608,5.174680437,0.144037608,0.123670484,-1.435489879,0
-0.000377374,0.41601606,2.221859105,5.853787473,5.213654818,0.109374468,0.263036736,-1.408521462,0
-0.000145425,0.414444649,2.287613048,6.062701877,5.15934312,0.072667593,0.436100499,-0.868716736,0
-0.001905206,0.413411341,2.343980943,6.274556501,5.188304302,0.066536265,-0.193049103,-0.724691475,0
-0.000327582,0.415044572,2.329053574,6.224084737,5.169465637,0.055642678,0.085434183,-1.348079597,0
-0.002743855,0.427984491,2.216654767,5.542112955,5.238692965,0.116407609,0.302559179,-1.202421686,0
-0.003863434,0.431330578,2.230608449,5.554486468,5.293310656,0.083264197,0.456857171,-1.197301148,0
0.000844921,0.42329386,2.286549684,5.976758723,5.257708086,0.065907056,1.241784616,0.304748024,0
0.00059062,0.420789848,2.308354035,6.066720072,5.214823641,0.065837589,1.549504091,1.675002112,0
-0.000347475,0.406395688,2.426557601,6.800055488,5.168635396,0.017527128,0.35752298,0.753477835,0
0.00090766,0.394014427,2.506921086,7.412827087,5.146182033,0.024106639,0.30762106,-0.257595901,0
-6.17E-05,0.393723315,2.512955812,7.424980962,5.144945744,0.037891898,1.454589182,0.979546794,0
-0.000714857,0.393482746,2.525173231,7.462231936,5.161099952,0.037699945,0.595278519,-0.652077052,0
0.000138003,0.393947228,2.521886172,7.437783036,5.151850292,0.031348151,-0.059357348,-0.709423749,0
0.000348522,0.394694168,2.501753723,7.351401106,5.137427357,0.029270859,0.331018973,-0.465401512,0
-8.11E-05,0.395653025,2.481782983,7.271071383,5.101656669,0.036306442,0.201316096,-0.956588678,0
0.000916391,0.39595907,2.46594038,7.20948677,5.093523407,0.052228808,1.110474749,-0.135143082,0
-0.000285259,0.396060985,2.47919507,7.2434905,5.122289658,0.056575229,0.102344429,-1.467875124,0
0.000162715,0.395615395,2.488322757,7.271468064,5.086580004,0.055085779,0.798229916,-0.7117118,0
0.000745645,0.394939508,2.49293587,7.296860099,5.026832526,0.025716963,-0.791054133,0.334669016,0
-0.000870549,0.395190748,2.502415647,7.331223409,4.996087701,0.026521834,0.195358811,-0.336736777,0
3.48E-05,0.395226088,2.507398907,7.337444702,4.984979902,0.022541908,-0.023017764,0.143026239,0
0.002451004,0.394285404,2.506423279,7.342370714,4.997725677,0.055282344,1.553607013,2.050081704,0
0.004815935,0.392204304,2.525334515,7.43057465,5.031931032,0.065530431,0.399102648,-0.833765679,0
-0.001556396,0.383644151,2.572212207,7.922198621,4.9990648,0.068441712,0.511932025,-0.737825371,0
-0.004366457,0.384062191,2.577799832,7.944777206,4.931869616,0.030803464,0.173263092,-0.591910529,0
0.000223049,0.392568685,2.55219342,7.516330281,4.885480063,0.046146297,0.378533339,-0.737794352,0
0.00069174,0.380613222,2.625354934,8.147658762,4.828473064,0.028730045,-0.133722804,0.185394839,0
0.000153776,0.380006906,2.641079435,8.213018789,4.792373657,0.02489184,0.048122509,0.230949249,0
0.000539318,0.379183518,2.65964519,8.280837064,4.759895052,0.027228884,-0.001884383,-0.68127683,0
0.001107324,0.378668599,2.667912549,8.312053951,4.708407974,0.042259411,0.182238212,-0.733192877,0
0.004165676,0.388982465,2.616669539,7.786734906,4.652489308,0.035579227,0.078891119,-0.813031555,0
-0.000231386,0.381610186,2.641126517,8.180576441,4.647040449,0.051300568,0.443096076,-0.810843177,0
-0.004369014,0.382216062,2.64760921,8.172847252,4.611143821,0.067853949,0.742789562,-0.83211221,0
0.000654425,0.377587027,2.711290469,8.49657101,4.526905114,0.03713103,0.046609028,-1.26427612,0
0.005278538,0.375382319,2.732992077,8.59983168,4.460893576,0.041167183,-0.324768073,-1.104144665,0
0.000102689,0.377440487,2.709586354,8.468389773,4.403136172,0.035515527,0.705577973,0.434670215,0
-0.004809814,0.380617992,2.666876095,8.263008071,4.333802632,0.055423234,-0.505672619,-1.096616683,0
-0.000394808,0.388376604,2.628865945,7.816936651,4.294211742,0.033900625,-0.063491293,-0.86143507,0
0.001535058,0.373914587,2.73784996,8.647543648,4.287752097,0.03337822,-0.733886571,-0.310371304,0
0.002271567,0.361800178,2.831163084,9.425025136,4.23170651,0.0538556,0.456011913,-1.178205197,0
2.93E-05,0.362704933,2.830633964,9.393995855,4.156988198,0.041575922,-0.519423814,-0.769256313,0
-0.000773254,0.362163176,2.853941167,9.496416577,4.07944434,0.056096424,0.362980535,-0.986533363,0
0.00026908,0.361245238,2.888968915,9.639658334,3.997797448,0.042401365,-0.066361685,-0.96599234,0
-1.90E-06,0.362011825,2.892716795,9.620158645,3.934070206,0.03754926,0.384709226,-0.501251265,0
0.00037982,0.362608386,2.880201039,9.553439891,3.886455318,0.024557452,0.2696783,-0.48781678,0
0.001336572,0.362305288,2.883227443,9.556263921,3.846363722,0.027624816,-0.274812899,-0.724356597,0
-0.000129044,0.362226688,2.897314803,9.605718439,3.802985818,0.028117437,0.124132978,-0.489842785,0
1.24E-07,0.374290288,2.809802817,8.840396211,3.756196758,0.029734395,0.116802953,-1.076509633,0
0.001489275,0.374023889,2.812371693,8.85148743,3.712632642,0.026691471,-0.398611632,-0.479789686,0
0.002862769,0.370779121,2.833647572,9.03280313,3.681873376,0.023009954,0.74564364,0.257534422,0
-0.000459542,0.374591589,2.781414932,8.739104225,3.671699687,0.015276259,0.436855419,1.882245423,0
-0.000998474,0.37874441,2.769047859,8.537904655,3.692568316,0.026174246,0.318303572,-0.319751573,0
0.003046574,0.392222632,2.70285635,7.839146945,3.707451412,0.025835301,0.449730983,-0.566508387,0
-0.001529899,0.39078308,2.697260826,7.895693143,3.710046223,0.028216563,0.168694275,-0.969841652,0
-0.003102408,0.384571905,2.699784751,8.110531715,3.728428268,0.027348019,-0.364829963,0.116718678,0
0.000282898,0.384554394,2.663034793,7.984593038,3.723044041,0.025688419,0.536615005,-0.192936965,0
0.004208738,0.381564336,2.710334551,8.202563671,3.696809333,0.015074757,0.192025433,1.727381367,6
-0.000435523,0.369495102,2.843006693,9.093227924,3.669718933,0.024034062,-0.187959292,-0.472227283,6
-0.003449132,0.369365352,2.869828572,9.185042106,3.645455115,0.016982904,0.262271022,4.345774648,6
0.003035895,0.377402304,2.841132146,8.718567307,3.625946862,0.020241405,0.016051501,1.530218672,6
0.000257041,0.368124867,2.905189159,9.337922301,3.604671315,0.019153969,0.21554193,0.515059027,6
-0.000290497,0.370077845,2.870826813,9.178877702,3.577569253,0.025948452,0.398826189,-0.124251785,6
-0.000119901,0.368542281,2.900524543,9.31535576,3.549543435,0.01660207,0.454360208,1.602553574,6
-0.000449302,0.353705573,3.05472281,10.39580013,3.524232156,0.022353395,-0.066750973,0.897022796,6
0.00136205,0.364418835,2.978654732,9.641907839,3.500324849,0.019274477,0.040186664,1.458558703,6
0.000317734,0.365637493,2.952638263,9.540066526,3.492312132,0.018337458,0.326440519,0.21573148,6
-0.000381232,0.367140214,2.931848912,9.458842817,3.469731195,0.027120929,0.138733311,-0.82846041,6
-0.000461334,0.380053188,2.826051812,8.630137047,3.434254401,0.019805593,0.431458853,0.634906527,6
-5.05E-05,0.366275198,2.955285115,9.542216884,3.401621355,0.023665599,-0.028806308,-0.231471208,0
0.004700187,0.36295846,3.006751376,9.775912489,3.372825568,0.016879352,0.695602455,2.792199399,0
0.001206972,0.368835764,2.905708681,9.261959082,3.338880539,0.056554524,-1.072621821,0.03049878,0
-0.004105035,0.372181266,2.870249228,9.087561501,3.317732838,0.052120639,-0.260455756,-0.234910983,0
0.001766673,0.377903437,2.84071839,8.704482666,3.321025249,0.016834994,0.008652921,1.015647932,0
-0.000171485,0.375900605,2.87848493,8.888088884,3.336248343,0.021382279,0.008333181,-0.264211516,0
-0.001688422,0.375589352,2.914859757,9.046252798,3.333106014,0.023770064,-0.062596498,-0.392998302,0
0.00107562,0.362787472,3.028747699,9.9139866,3.313391004,0.020046167,0.215781754,-0.12851571,0
0.001498614,0.360036934,2.914860171,9.36226359,3.276255689,0.044272705,-0.103561691,-1.064966634,0
-0.002183101,0.377453896,2.773562555,8.334507045,3.22521504,0.027814354,1.152860911,0.836093139,0
-0.002709274,0.373125522,2.874621415,9.109313666,3.193518448,0.021415598,0.042345239,-0.155789207,0
-0.000224448,0.37045736,2.89458731,9.262428204,3.160927909,0.022289725,0.210123331,-0.18233897,0
-3.44E-05,0.381524189,2.806547364,8.528234308,3.126600756,0.022813622,0.247526155,-0.279786006,0
-0.000862963,0.393198169,2.689757302,7.736749449,3.106719971,0.015797844,0.11624126,4.825616058,0
-0.000420502,0.390681789,2.723351333,7.914857282,3.084778377,0.026295037,0.096275654,-0.213090849,0
0.002135226,0.375478003,2.873296754,8.89980285,3.044445038,0.026442444,0.137276517,-0.024870419,0
0.002665152,0.361926182,3.004661271,9.821469067,3.021128736,0.018805348,0.160908721,0.832305173,0
0.000189717,0.339470013,3.20424995,11.50024414,2.99770437,0.028196171,0.321946279,-0.375094464,0
-0.00113303,0.340372435,3.209716769,11.4682383,2.968578502,0.020575964,0.22683634,0.150591821,0
0.000614397,0.347829117,3.17806593,11.0155744,2.945954459,0.024086111,0.233545568,-0.427718052,0
-0.000313666,0.347008841,3.202351685,11.14701363,2.913754163,0.025594658,0.335747633,-0.19322288,0
0.000778133,0.338481425,3.241993608,11.64284743,2.874155208,0.027170462,0.069709067,-0.455607183,0
0.002231644,0.33811495,3.23314234,11.60190459,2.83281517,0.02538726,0.128802453,-0.559354521,0
0.004997413,0.349175339,3.161432387,10.82518843,2.795354516,0.024016949,0.011497077,-0.372624253,0
-0.0004216,0.339535175,3.248765685,11.68012178,2.75754825,0.026513636,0.074290251,0.384013412,0
-0.005795164,0.341594876,3.201875993,11.44333573,2.722742844,0.02220022,0.162427829,0.272391569,0
-0.000864049,0.369226413,2.907519529,9.219786657,2.753207561,0.048456618,0.073810988,-1.544476439,0
0.001718667,0.358841712,2.966775207,9.854695628,2.772998374,0.031208411,0.137686716,-0.960987029,0
0.001914132,0.342042568,3.173067016,11.30083969,2.745072392,0.015659017,0.878559434,2.613962977,0
0.001423226,0.351995568,3.116215121,10.62284014,2.726193728,0.023042917,-0.308528312,0.015394394,0
1.82E-06,0.340758888,3.221347018,11.50474007,2.695411192,0.023101391,0.266131484,-0.206249886,0
-0.000764825,0.330301896,3.305437737,12.33179617,2.667186029,0.021242551,0.260873612,0.070727198,0
0.00055445,0.343987291,3.166562089,11.13648467,2.660416576,0.018598067,0.516607492,1.360812117,0
0.003260468,0.346339534,3.092683596,10.70155592,2.655617687,0.021626864,0.20153556,0.555778663,0
0.002727925,0.334999757,3.174427021,11.48567359,2.628664889,0.023289843,0.166607267,-0.204460673,0
0.002302584,0.344777802,3.162076067,11.0356384,2.598987743,0.022092362,0.222787883,2.16734437,0
-0.001708871,0.34467894,3.16357453,11.12340625,2.570254408,0.02071756,0.228378274,2.385237617,0
-0.005228282,0.344212784,3.17605828,11.22152833,2.541934967,0.020095788,0.193728099,0.356142153,0
0.000839722,0.3662242,2.987822545,9.51194552,2.54316428,0.025473455,0.524237055,-0.371390875,0
0.001882592,0.356227009,3.046281512,10.08594911,2.546085249,0.023285332,0.588508785,-0.267194148,0
-0.000341851,0.345879,3.110289705,10.85678729,2.525360325,0.015252937,0.648864207,1.952034786,0
-0.000132993,0.354830283,3.071370825,10.36154876,2.521047701,0.01320403,0.891121889,3.311391613,0
-0.000661312,0.363029174,3.061107282,9.937287537,2.517071479,0.014790168,0.649029792,1.871145176,0
0.003262966,0.373335494,2.969924363,9.24012871,2.538759232,0.035040764,0.349065001,-1.169358233,0
0.000381664,0.363271222,3.073137198,10.02547112,2.564662116,0.019507071,-0.088410838,1.490737829,0
-0.003535812,0.351188329,3.208877464,10.99552305,2.545817239,0.020568594,0.174990081,-0.029240979,0
0.001093951,0.346778994,3.286207125,11.42363579,2.519306346,0.017652059,0.565457585,1.043135897,0
0.000219779,0.333866958,3.420356898,12.52372686,2.498981694,0.015541956,0.598451465,2.72288596,0
-0.000457391,0.351304639,3.17624486,10.81792277,2.485897936,0.016528363,1.004486197,2.615132974,0
0.000156339,0.355093146,3.103581689,10.4352375,2.501258796,0.026777688,0.287018387,-0.692611157,0
0.000367028,0.331512499,3.297915886,12.23451083,2.50606684,0.021439211,0.632273763,0.15323416,0
0.001120004,0.333432417,3.236485258,11.8474454,2.482736043,0.015219768,0.504047407,2.288618712,0
0.002412931,0.335198796,3.185116423,11.55608737,2.464924022,0.015935277,0.401162986,2.164751048,0
-0.000413995,0.336123042,3.190659048,11.56018648,2.446062742,0.016121957,0.430753514,1.24999487,0
-0.000214371,0.335834963,3.19335135,11.57724148,2.427195522,0.016143386,0.518545472,1.540857126,0
0.001811162,0.33792835,3.12624545,11.170582,2.40880334,0.016262724,0.563209742,2.525942193,0
0.002883604,0.349282854,3.071324914,10.49782988,2.390908051,0.015863341,0.543120905,1.669919564,0
0.000313117,0.347357307,3.131694428,10.85589956,2.375976998,0.014539601,0.428039537,4.607687946,0
-0.002226726,0.336485326,3.19362741,11.5638221,2.360124643,0.016615648,0.313347015,1.96064406,0
-0.001268136,0.336326545,3.195529855,11.55928058,2.338225664,0.018022809,0.323327657,0.555022412,0
-0.001668967,0.3472826,3.141818436,10.88526068,2.318130929,0.015567906,0.584994485,2.020292972,0
0.000953254,0.346433605,3.150134557,10.92683916,2.299189213,0.017373845,0.534898644,1.576812194,0
0.001283013,0.346256479,3.146985471,10.88597247,2.279579871,0.015482095,0.622398829,1.437518892,0
0.000227659,0.345687238,3.167052276,10.99948925,2.262607356,0.015427451,0.568329018,1.584829233,0
0.004634694,0.344463962,3.180479804,11.06653779,2.244925472,0.016094288,0.662686997,1.477519961,0
0.000443226,0.346858814,3.135748472,10.83873791,2.227274922,0.015212685,0.686336337,1.804629713,0
-0.004444689,0.335889453,3.236908299,11.77899858,2.211686325,0.014837173,0.303941985,6.346511033,0
0.002248529,0.346636429,3.153413029,10.89999762,2.195909664,0.015795707,0.384722076,4.247832766,0
0.002306396,0.347977873,3.108175652,10.6470306,2.179402379,0.015025555,0.802373321,2.380331872,0
-0.002043025,0.325360955,3.258201772,12.26775219,2.171526555,0.012703734,1.239795491,4.132054672,0
8.97E-05,0.328232043,3.18265094,11.7752865,2.166394533,0.014060476,0.95147019,2.598823634,0
0.00048625,0.340922699,3.106419191,10.92906983,2.146739088,0.020008452,0.217186192,0.223207334,0
0.000780991,0.330628566,3.235822789,11.94926372,2.12523019,0.015672947,0.830098555,3.005991072,0
0.001250643,0.338187434,3.157199216,11.24999295,2.114668328,0.013452524,0.860085067,4.051468049,0
-0.001326181,0.357273414,3.025135175,9.980415657,2.11019625,0.013680942,0.814686813,3.519659839,0
0.001572536,0.349663065,3.078492553,10.50274584,2.107146835,0.013868767,0.841837528,4.993666949,0
-0.000635069,0.33824648,3.193574704,11.45564804,2.101238905,0.013207394,0.867727115,5.848161393,0
-0.001507553,0.346162796,3.191923764,11.10776209,2.0927251,0.013424661,0.903677605,3.194906285,0
-0.000428199,0.342905127,3.246947947,11.48379505,2.085176141,0.013340003,1.221425805,5.59186391,0
-0.000310874,0.343888762,3.243744734,11.40252284,2.077729361,0.013841304,1.223647103,5.466336467,0
0.001009225,0.355499748,3.146150495,10.52572186,2.068727112,0.013327997,1.204297374,4.523978268,0
-0.001276297,0.354819724,3.169130644,10.68272466,2.059602029,0.013479371,0.941977448,3.113087056,0
0.001813091,0.354406987,3.14795283,10.57949114,2.064909526,0.020213724,0.694645625,0.278870971,0
0.00216636,0.354806484,3.118168705,10.43760563,2.060670635,0.022410599,0.712673213,-0.173190814,0
-0.001609883,0.365241055,3.049795916,9.815264527,2.047536959,0.012581908,1.351344881,5.0316029,0
-0.001611289,0.351657326,3.196635183,10.91634147,2.047857176,0.012838576,1.062238888,5.874852871,0
0.000352452,0.339986741,3.325164802,11.91873258,2.044501168,0.013075778,1.061047151,5.290084311,0
0.001394172,0.342213557,3.268449888,11.57035426,2.038883427,0.013320301,0.383000814,12.50427922,0
-0.000904881,0.343262721,3.221318603,11.30998756,2.033991841,0.013307917,0.653151386,12.8099423,0
-0.000371946,0.355386779,3.131104579,10.49564701,2.031610271,0.01302835,1.468087518,6.010546065,0
0.004416112,0.353482489,3.178259143,10.73535352,2.027024569,0.013433297,1.142643471,4.995860685,0
-5.09E-05,0.34105551,3.293102326,11.74396301,2.018755232,0.013330127,1.07673839,4.947486841,0
-0.004041151,0.342752406,3.267937199,11.63597728,2.009801483,0.013147724,1.147878377,4.06719566,0
0.001433219,0.343311876,3.234138728,11.40007953,2.003376988,0.012473877,1.237265837,4.998907327,0
0.000443835,0.331920545,3.334138652,12.31081971,1.997064536,0.013732914,1.193441394,4.644792229,0
-0.001132919,0.343981251,3.246198075,11.43052675,1.989673778,0.013295759,1.364099555,6.387298906,0
-0.000804598,0.343684178,3.248595027,11.48255315,1.982068852,0.013740464,1.018195095,3.923001656,0
2.62E-05,0.342910083,3.259001393,11.53715844,1.974042021,0.012994046,1.021682052,4.674719863,0
0.004042021,0.36537673,3.051523704,9.757901093,1.96863654,0.012837695,1.148931005,5.4808391,0
0.000104998,0.36590775,3.057304218,9.830369332,1.970000621,0.013357058,1.270493936,5.065580521,0
0.000921262,0.362604189,3.1312464,10.23586284,1.969741331,0.013322192,1.096541554,4.914796037,0
0.00047665,0.361721365,3.135554431,10.29117476,1.961681529,0.013730233,1.00961661,4.347753412,0
-0.001679371,0.374355943,3.021015708,9.405957948,1.96101799,0.013600825,1.154685936,4.833023566,0
-0.001199315,0.37158128,3.074950895,9.674179454,1.966665377,0.012808978,1.16138855,4.942771942,0
-0.001763038,0.358727961,3.182389253,10.57639937,1.967923301,0.012703995,1.231545946,5.939085859,0
0.000542443,0.359989249,3.157425915,10.41605613,1.972761536,0.015730492,0.858611366,2.63464594,0
-0.000882751,0.350230603,3.251976623,11.18488376,1.982187925,0.014994751,0.551684002,2.88548246,0
0.004953003,0.338075149,3.340608638,11.97893097,1.985958971,0.012576677,1.324356177,5.438617371,0
0.000587834,0.329802552,3.375965202,12.59605957,1.984443065,0.012666646,1.183701543,5.728482723,0
-0.003440853,0.332066097,3.336153875,12.38405645,1.984197835,0.012357836,1.136146688,4.95653325,0
0.002931545,0.341754784,3.256331542,11.54488869,1.986075374,0.012779526,1.21689686,5.349974902,0
-0.001011802,0.330253605,3.349615842,12.50762424,1.990649741,0.013640401,1.302586777,6.19230428,0
-0.00178004,0.318896982,3.437091383,13.44329072,1.992697362,0.013033531,1.408676884,7.334464741,0
0.001867944,0.330681852,3.341647254,12.37707587,1.989382935,0.013155308,1.137277181,5.121436374,0
0.001103989,0.331084153,3.327144786,12.29120426,1.983105632,0.014132995,1.058255561,3.470502925,0
0.00030561,0.319584515,3.399817161,13.19483738,1.983044379,0.015778971,1.023051859,3.311419594,0
0.005366645,0.319592257,3.361125607,12.90007437,1.982914788,0.015731459,0.999431921,3.423708474,0
0.000612507,0.322995818,3.301401562,12.54686658,1.973437936,0.013799486,1.170544319,5.251172266,0
-0.004464772,0.323842506,3.326470422,12.75106847,1.965495409,0.013262682,1.217153447,5.523429516,0
-0.000766068,0.333674503,3.285727264,12.03267195,1.955811255,0.014123083,0.96586178,2.885258807,0
0.000290765,0.333119447,3.258428547,11.89455549,1.99711865,0.05419869,0.283586095,-1.56069352,0
0.003589024,0.333767574,3.202903132,11.5875268,2.026792472,0.033537059,-0.164959309,-0.175075436,0
0.00420896,0.343515624,3.198750379,11.15570572,1.988737869,0.0301443,0.030931183,-0.376741337,0
-0.001650997,0.330543692,3.359456299,12.48058315,1.953350885,0.024672759,0.905705744,0.486281416,0
-0.003438289,0.319649612,3.416393039,13.25082005,1.934338924,0.013479474,1.187208495,3.297902111,0
0.003366309,0.3317909,3.284087702,11.99884395,1.924179404,0.014514433,1.053921365,2.843789161,0
0.000749961,0.320471389,3.385191079,13.00896181,1.911289651,0.014773723,0.900478437,2.981199081,0
-0.002550293,0.321915102,3.37317246,12.9258566,1.902488327,0.013414113,1.406204739,5.667409922,0
0.001371238,0.344695247,3.155239619,10.8609961,1.913450132,0.023462144,0.822354601,0.071346745,0
-0.000183642,0.354699969,3.119261459,10.33565592,1.94109933,0.024108862,-0.495907317,0.195450396,0
-0.000906032,0.36918427,3.048784298,9.627881884,1.97029795,0.019714941,0.272198227,0.056280185,0
0.00094298,0.380654857,2.982595158,9.006430795,2.002206039,0.042678553,1.761568664,1.820618838,0
-0.000338274,0.370005994,3.014621905,9.377441396,2.054350553,0.053672425,-0.383166639,-1.337016473,0
-0.002674197,0.366162537,3.034461479,9.641922379,2.109254292,0.031416065,0.251973249,-0.848705207,0
-0.000427453,0.366187906,3.15435723,10.17249083,2.137641198,0.022859203,-1.044848447,2.213446102,0
0.0033003,0.344895485,3.385521347,11.81634907,2.142773655,0.012579812,1.226931779,5.655197867,0
0.001275048,0.329971487,3.512088419,13.0428389,2.138943536,0.012300651,1.363261061,7.930496159,0
-0.001744975,0.338110003,3.421821391,12.3079216,2.124718366,0.02518638,-0.399697743,-0.238459214,0
-0.002375767,0.343480256,3.367062508,11.81552202,2.116821616,0.026585072,-0.112820998,-0.411644641,0
-0.000618484,0.346126425,3.277731213,11.2191321,2.108756474,0.030084755,-0.041459006,-0.225044512,0
0.000157235,0.357143607,3.177506699,10.44346634,2.087696784,0.023343764,1.351232666,3.6133402,4
0.005628793,0.362987062,3.175205783,10.24469446,2.073477663,0.015414976,-0.681373335,32.91276595,4
0.003976881,0.35159529,3.280824241,11.08762913,2.064026969,0.01357779,-0.977893271,48.79716341,4
-0.001886503,0.330550929,3.499274899,12.93057962,2.072107479,0.036433292,1.736648641,2.11851041,4
-0.001404687,0.333103383,3.407653145,12.51894638,2.1220344,0.052701113,-0.513976613,-1.395503415,4
-0.000774739,0.343748604,3.303384811,11.60231151,2.152173669,0.017169307,0.205028261,1.811724233,4
0.00091316,0.328412655,3.513586926,13.06576948,2.1285729,0.021281919,-0.017622622,4.423521871,4
0.000799452,0.328687652,3.494654604,12.969431,2.069740677,0.047772848,-0.045298933,-1.576507237,4
0.001459893,0.32975838,3.474880669,12.8471142,2.017630441,0.017515477,1.502072404,4.183418635,4
-1.37E-05,0.306811599,3.677585328,14.98580941,2.008882904,0.012225981,1.33319378,7.843708579,4
0.000107365,0.321588711,3.493717067,13.3154766,2.00979647,0.012343771,1.162625972,4.477208275,4
0.001767746,0.332373343,3.413169775,12.42105408,2.010093743,0.01433467,0.597801249,3.147302171,4
-0.000782298,0.320148614,3.557624121,13.73073088,2.005637251,0.016074479,0.57426881,3.445521697,4
0.00135451,0.332764477,3.420846465,12.53793853,1.998334939,0.014927892,0.857166444,4.394638263,4
0.001133083,0.331445865,3.443183162,12.64707551,1.987568392,0.013539279,1.017161438,3.97277064,4
-0.000894111,0.331652813,3.473853221,12.7705645,1.987520708,0.022029106,1.290045545,1.302001538,4
0.00050715,0.330438387,3.472586846,12.84182001,1.988340323,0.028416456,0.677901167,-0.603658243,4
0.000585473,0.329047924,3.490981872,12.96615837,1.979141181,0.022689689,1.159322803,1.227840014,4
0.001299853,0.329100227,3.511032458,13.01039573,1.964940316,0.017014067,0.565133383,2.074863858,4
-0.000572375,0.32829647,3.530635381,13.14802925,1.950874819,0.013220685,1.231172361,6.26603477,4
0.000937487,0.327727883,3.52548003,13.15116461,1.943724169,0.012325217,1.278205022,4.638076671,4
0.002628119,0.328314371,3.497025994,12.95783497,1.938455309,0.012089419,1.473147633,6.991870338,4
7.13E-05,0.339904415,3.413587384,12.0921428,1.933657782,0.012691872,1.439276721,8.156279595,4
-0.000133974,0.328387928,3.535394559,13.21563637,1.928370394,0.012444287,1.381942681,6.948799079,4
0.000736496,0.317654128,3.599068681,14.0054628,1.923235485,0.012246185,1.307319249,6.252569156,4
0.000518339,0.329625474,3.477610785,12.85087542,1.93115,0.023212788,0.747554,1.385884686,4
0.002216407,0.351466627,3.310596483,11.1906683,1.946787861,0.022266574,-0.340940281,1.899024319,4
0.000333363,0.339216691,3.453075405,12.32938173,1.959647478,0.015697612,0.169966925,2.101811155,4
0.003585892,0.325964444,3.57336058,13.41393837,1.966084399,0.011874054,1.375050095,6.139573777,4
0.000455913,0.316292909,3.629680929,14.15687048,1.959949711,0.012847808,1.093545573,4.883315024,4
-0.004267253,0.318306836,3.606578352,14.01786949,1.951364626,0.0126175,1.208770466,5.34920463,4
0.002185259,0.31825282,3.572168882,13.83047593,1.942461177,0.013043181,1.290427451,6.067471132,4
0.001183463,0.30757704,3.65697818,14.80380823,1.933905138,0.01303791,1.324487475,8.955226968,4
-6.17E-05,0.318966555,3.568024234,13.76808427,1.925076893,0.013928413,0.988089042,6.291686156,4
0.00076457,0.329612336,3.492769391,12.91873868,1.919706672,0.012548032,1.462949666,10.00572422,4
0.001296753,0.31943872,3.534877481,13.57143661,1.915990121,0.012530965,1.73037567,10.34966105,4
0.000977365,0.320590013,3.517254803,13.44665319,1.909175437,0.012075902,1.39574818,7.594829457,4
0.000332121,0.320332664,3.556254628,13.67160233,1.902036885,0.012562077,1.221673315,6.166291008,4
-0.000218151,0.306557315,3.685158881,14.98210578,1.89434809,0.012605458,1.356080604,7.561909939,4
-0.000627967,0.328047305,3.546394971,13.24338177,1.881374686,0.016002866,0.400045469,2.024876447,4
0.001037279,0.328580557,3.536753689,13.15121696,1.877248056,0.014891306,-0.351258819,26.54032202,4
0.0007284,0.329480646,3.503919404,12.95005661,1.863954817,0.024199624,-0.269803506,3.105189123,4
0.002731803,0.323965142,3.539610933,13.39779388,1.859837341,0.020468908,-0.176389795,0.868665136,4
0.003230105,0.320870243,3.511379024,13.41550626,1.867662811,0.014454934,0.292329086,2.10784436,4
-0.00079095,0.337190844,3.392718998,12.10590844,1.86101581,0.016220397,0.620439376,3.380893496,4
0.000470843,0.334627975,3.474503124,12.57892497,1.85202664,0.020534411,0.344146202,1.12670255,4
-0.000886165,0.32831716,3.565461396,13.31892461,1.84825058,0.016646639,0.20944339,1.859060263,4
-0.001572791,0.332596204,3.543954977,12.99542099,1.854850388,0.012325372,1.62898931,9.914357942,4
0.002128706,0.336445431,3.503516578,12.57387381,1.853328923,0.012560186,1.611495783,8.374732306,4
0.001449894,0.336101004,3.508505181,12.62907817,1.847318704,0.012405014,0.657704729,15.91727026,4
-0.000559178,0.336576441,3.519707623,12.69424292,1.840152958,0.012584322,0.589303584,11.87549324,4
0.001773926,0.326110175,3.588959354,13.46290679,1.830754689,0.013278879,0.816495162,4.136624857,4
0.000592837,0.328059201,3.542871178,13.18923204,1.815946579,0.018472027,0.046079987,0.68331842,4
-0.000826133,0.329592652,3.529459415,13.07725997,1.817434038,0.019008839,-0.065401479,0.405259778,4
0.001236864,0.330141709,3.522034221,12.98173306,1.826703807,0.01215453,1.135901788,6.07955599,4
0.000512715,0.328761262,3.557617369,13.21954527,1.822622463,0.012286915,1.405712791,8.204422851,4
-0.000393003,0.316838444,3.678939864,14.38188012,1.817494529,0.01236615,1.419673078,7.905886521,4
0.000618811,0.316233545,3.681251622,14.42817839,1.812884794,0.011684946,1.421952849,5.211026474,4
0.001928186,0.328566422,3.532871379,13.10130084,1.809514836,0.011756558,1.51810987,6.975294176,4
-0.000463172,0.340926856,3.42237536,12.09128883,1.805906514,0.011903494,1.392409168,7.926318507,4
-0.000964044,0.338891753,3.474040351,12.41784681,1.801885986,0.011802084,0.686919915,13.95990666,4
0.002251851,0.338435544,3.478892702,12.40918225,1.798281915,0.011977341,1.146984827,13.10171224,4
0.001604795,0.327449297,3.573678103,13.32649812,1.795040403,0.011973141,1.675942979,7.212506273,4
-0.001057218,0.315964983,3.689303223,14.47667083,1.791217259,0.012206729,1.410863652,6.806585186,4
0.003640549,0.327838637,3.560089926,13.2400592,1.787300709,0.011776635,1.517526548,5.579526933,4
0.000275247,0.329996395,3.532424612,13.05511179,1.785351617,0.011671004,1.447174841,6.901323817,4
-0.00375856,0.319812035,3.628320895,14.04859165,1.782250323,0.012055443,1.450940348,6.534650245,4
0.003505077,0.329325177,3.530162055,13.03257833,1.777776337,0.012286786,1.122533746,10.13683381,4
0.000370069,0.32767966,3.588252865,13.40179614,1.772741481,0.012874969,1.047750867,8.019127119,4
0.000104697,0.327890349,3.593823045,13.43126135,1.766493443,0.011503327,1.212330027,2.419133789,4
0.002143217,0.328195818,3.571146388,13.28162302,1.762028721,0.014337255,0.622792362,12.67658673,4
-0.001576839,0.315542672,3.72719543,14.66237639,1.759417125,0.014464175,0.946583574,12.64930515,4
0.000700921,0.318578008,3.672695279,14.23267943,1.757203129,0.011452032,1.420762129,4.856851278,4
0.000856345,0.330273033,3.528735054,13.0196311,1.755721555,0.01138018,1.460970888,5.428857214,4
-0.000840101,0.339240984,3.459484228,12.30284168,1.756672995,0.012207444,1.427270496,7.305070072,4
0.001878302,0.350343787,3.37697687,11.43557103,1.759032113,0.012928914,1.55875419,9.236833401,4
0.001227068,0.338735404,3.501860126,12.49386553,1.758918708,0.012338909,1.640385372,7.77504094,4
-0.000159007,0.326361836,3.608174756,13.52197854,1.759386935,0.012167378,0.97745267,5.560222409,4
0.000154155,0.325235734,3.618203934,13.59392133,1.758539472,0.012132251,0.898559351,4.404737181,4
0.000250024,0.32456456,3.647019378,13.80390564,1.764462444,0.014711837,0.889951467,3.02208926,0
-0.000251979,0.336957506,3.529624067,12.71277867,1.776776559,0.013520446,1.174995953,5.128690119,0
0.00154985,0.337328659,3.514505775,12.60240898,1.783992931,0.013096539,0.857080233,4.459222601,0
0.000374261,0.336642966,3.502709208,12.59214226,1.790181296,0.015885394,0.759657074,2.339214467,0
0.001079021,0.347437241,3.328059259,11.27913308,1.805063139,0.022704683,0.232091669,4.913049002,0
-0.002641264,0.365107136,3.14575246,10.03298902,1.825163868,0.020943734,0.042576467,6.85077729,0
-0.004939715,0.370103629,3.160003192,10.08604343,1.853694316,0.026188164,-0.318694221,-0.03071717,0
0.001581959,0.365756179,3.236439004,10.42196868,1.872766658,0.012948539,1.342843386,10.93914039,0
0.000189383,0.354544009,3.354608307,11.30923598,1.868210656,0.013409201,-0.058390098,32.46342202,0
0.002042385,0.356402949,3.321089455,11.08258861,1.865488597,0.012686594,-0.288787047,32.49579595,0
0.003669381,0.356799044,3.306090021,10.9929249,1.866079058,0.012899754,1.242765161,6.710036491,0
0.001502655,0.345705424,3.418589085,11.93105151,1.863686807,0.01322538,1.402546274,7.232126782,0
-0.002952026,0.335351715,3.516432061,12.86541226,1.860288293,0.012774284,1.53717303,7.240213362,0
-0.001963375,0.336782298,3.475539645,12.61756703,1.854794747,0.015423325,0.552510932,2.772272681,0
0.002094668,0.347259532,3.374535841,11.6791487,1.842246083,0.016400651,0.844127643,1.685957625,0
-0.000871327,0.335028968,3.503747103,12.79406707,1.829343905,0.014072166,0.365322301,12.10036784,0
0.000373816,0.335418046,3.491250204,12.723405,1.820088032,0.013827668,0.737490033,11.62268597,0
0.000943994,0.335714272,3.484095914,12.67326449,1.814903641,0.012900882,1.098745655,13.51837191,0
0.001129022,0.335968307,3.463717876,12.57791821,1.816064126,0.013448928,0.921557829,11.69918871,0
0.001103171,0.336235551,3.454233232,12.52998928,1.818030984,0.012965117,1.241979854,4.877624623,0
-0.00283151,0.323772588,3.602295826,13.78894521,1.815741348,0.01290062,1.248054024,5.75733014,0
-0.00131473,0.323095436,3.60212832,13.80254534,1.811243984,0.013031516,1.332769875,5.622840509,0
1.87E-05,0.336236916,3.444961001,12.48732694,1.806395176,0.013207921,1.364607818,5.224934328,0
0.001430937,0.360186854,3.21680835,10.56106145,1.813766262,0.017323972,0.603238454,1.836082874,0
0.00079046,0.358989426,3.239192849,10.70958044,1.83103278,0.016317094,0.32495606,3.265853751,0
-0.001106356,0.34482541,3.401954619,11.91231493,1.861720439,0.049451427,1.209741608,-0.056713749,0
0.000822189,0.343872032,3.422279145,11.9788982,1.898004259,0.047104182,-0.304928182,-0.889692072,0
0.00073972,0.3430312,3.441098501,12.11477497,1.900583976,0.020549698,1.344338259,2.304799989,0
0.001958895,0.342459679,3.444053032,12.14719357,1.904328156,0.019221596,0.386345409,-0.012369351,0
0.004089066,0.343400353,3.409149818,11.94782467,1.920166125,0.012788306,0.791605384,4.849463378,0
-0.001735441,0.332664027,3.516413545,12.98615479,1.921317128,0.012231023,1.053001985,7.090385506,0
-0.000755258,0.331331549,3.541835437,13.11971545,1.924791336,0.013608256,0.94339654,3.988775673,0
0.001530781,0.339217315,3.414436123,12.04698879,1.944634356,0.039309661,1.252923429,0.79947788,0
-0.004229409,0.361904798,3.20731293,10.26231676,1.989984185,0.046677096,-0.70425007,-0.73260304,0
-0.0017835,0.385188652,2.980079154,8.740519059,2.010557992,0.016574182,0.729429722,1.595901647,0
-0.000590737,0.385513476,2.933606604,8.675874904,2.000464467,0.014146365,0.700130141,4.82953045,0
0.002484663,0.376952145,2.947542805,8.941064228,1.992070552,0.015813475,0.772813665,2.538095206,0
0.002642441,0.357243133,3.067579509,10.06475394,1.98469647,0.011931521,1.34666668,6.370331546,0
-0.002283999,0.355010561,3.182514879,10.60709564,1.985618918,0.011888493,1.370746227,6.422835136,0
-0.001003451,0.357677891,3.093867939,10.15316297,1.986418424,0.012554251,1.291688924,6.594996713,0
0.000601142,0.348049874,3.18341761,10.93024041,1.985262462,0.012097348,1.39022753,7.259646109,0
0.001491531,0.343258727,3.363953354,11.78691977,1.989341572,0.01489701,1.210165868,2.494867798,0
0.000435902,0.329186618,3.528058872,13.05794191,2.000577218,0.016017827,0.526237695,1.487068757,0
-1.07E-05,0.316611078,3.661148391,14.3393274,2.002377428,0.012933717,1.261859337,4.725880558,3
0.00114675,0.317355674,3.636172287,14.19456427,1.997459521,0.011454926,1.533316273,8.81338971,3
0.001937531,0.330939677,3.489543634,12.84423665,2.000621523,0.012614405,1.294229467,7.224334019,3
0.000171171,0.343671689,3.361125407,11.74032806,2.007112067,0.012167852,1.052608611,4.75005857,3
0.004850071,0.342698591,3.366809787,11.78709468,2.011037391,0.011898866,1.484266222,7.259990717,3
0.003232361,0.330757493,3.494214597,12.89963124,2.018833378,0.01382597,0.907090606,3.801417267,3
-0.004071036,0.31855452,3.644249132,14.24370539,2.025477219,0.011748625,0.78230828,7.827206496,3
0.002073918,0.325024389,3.580939778,13.51925503,2.027287837,0.012707302,0.749497678,8.085304186,3
0.003441245,0.340752904,3.401401541,11.96584878,2.032828576,0.013313722,1.164649945,5.676785662,3
-0.002031764,0.335046784,3.41562595,12.41521557,2.04854344,0.018572176,0.587432796,0.532327804,3
0.001364554,0.329640692,3.495028786,12.98923424,2.05237236,0.016079471,0.723622049,2.000883896,3
-7.76E-05,0.329102677,3.552949697,13.22297872,2.041982106,0.012101975,1.086283896,5.727450032,3
-0.002684313,0.331510494,3.498912445,12.92960266,2.069895663,0.037498967,0.454671115,-1.325842008,3
-0.000741407,0.330524084,3.518438067,13.05428038,2.093828474,0.02351996,-0.210541708,0.22579626,3
0.004043714,0.339261657,3.445070203,12.26968933,2.083248193,0.012649463,1.230786111,5.536011059,3
0.003966797,0.352168224,3.301045923,11.12472958,2.082895006,0.012317718,1.351173879,6.329294353,3
-0.004507161,0.34322518,3.418442122,12.06869372,2.090334266,0.013312193,1.150072772,2.874723207,3
0.001222399,0.352911721,3.324564816,11.22014392,2.103271048,0.016111958,0.328261988,1.335412669,3
0.000305852,0.352485893,3.314809343,11.18270285,2.114671544,0.015272195,1.084217921,2.786012876,3
-0.003682604,0.341022815,3.447500902,12.25245372,2.120803016,0.016070908,0.621110989,1.845069536,3
0.001315953,0.339703905,3.451552478,12.2661167,2.142518943,0.024551868,0.590475537,-0.350627121,3
0.001659308,0.339477933,3.454123455,12.27439084,2.163778741,0.017981801,-0.234730662,1.483407226,3
-3.05E-05,0.339676984,3.472146861,12.36714153,2.166671099,0.012215772,0.975860016,4.746365401,3
0.001701011,0.339817844,3.449708773,12.26166055,2.17115751,0.012440163,0.704558965,3.465424968,3
0.000204071,0.35312532,3.262517929,10.94394971,2.181381062,0.012277627,1.150368803,5.775977213,3
-0.001950851,0.353343742,3.263278277,10.95276364,2.186381531,0.011599235,1.32387809,8.074552926,3
-0.00013317,0.33990906,3.420905254,12.1659682,2.188693891,0.011871921,1.272017438,8.299370656,3
-0.000585467,0.339021078,3.442612957,12.26159827,2.191907065,0.011852496,1.082800434,7.659064949,3
0.000650037,0.33998734,3.436396058,12.19405143,2.197106825,0.013332614,0.429376333,7.468890796,3
0.000783214,0.352936767,3.308464312,11.14696537,2.204779925,0.014833271,0.176333397,5.311986646,3
0.002612359,0.363762882,3.193806579,10.2611582,2.206103407,0.013453399,0.838883183,3.460417111,3
0.000425472,0.352961127,3.285902881,11.07350259,2.201130567,0.011697783,1.28595793,6.637106608,3
0.002418091,0.351633531,3.308045398,11.16146298,2.197044482,0.01120567,1.414183561,6.762195159,3
0.001299016,0.351944829,3.308675397,11.1410871,2.194764873,0.011828738,1.20818877,9.841566264,3
-0.004400188,0.342091436,3.413420991,12.05399849,2.191751153,0.012314153,-0.161708188,29.18451245,3
0.001718556,0.352487775,3.305602223,11.13095251,2.18739902,0.011636118,-0.413595291,29.77704701,3
0.000618628,0.353552125,3.298538484,11.08544993,2.182919856,0.011513136,0.843598722,3.88210374,3
0.000416009,0.353564414,3.276820909,10.99540424,2.178327288,0.011813581,1.291519907,6.079917009,3
0.002104987,0.352143294,3.272615918,11.00341369,2.180515071,0.012659191,1.078467294,5.063095189,3
-0.00235798,0.340515614,3.414556709,12.07809033,2.186741802,0.011697427,1.016265801,4.774439584,3
-0.001487693,0.352420806,3.285817895,11.07607936,2.186943381,0.010893775,1.404936118,4.375005149,3
0.00359234,0.351040454,3.272842107,11.05232903,2.183480399,0.011241819,1.31727185,6.443296912,3
0.003484092,0.338186782,3.426118302,12.181009,2.177917644,0.01234819,0.999,7.656994184,3
0.000608747,0.339970063,3.420788241,12.12422831,2.175094659,0.014135605,0.855232908,17.98791603,3
-0.001596484,0.341608953,3.406055916,12.02564511,2.176625061,0.013538561,0.852888983,19.39908994,3
-0.002046439,0.34135703,3.411436222,12.06299087,2.173567636,0.011049173,1.137713083,2.332744518,3
-0.00024338,0.353141516,3.270608816,11.00487647,2.170099803,0.011235451,1.871304594,10.4244364,3
4.99E-05,0.365054753,3.13114706,10.01000627,2.170231247,0.013174934,1.595931,8.158825386,3
0.003233361,0.364222721,3.122927614,9.971983488,2.169962093,0.013044475,1.347037336,4.573917781,3
0.002123795,0.340806822,3.357319382,11.84737015,2.166670445,0.012790849,0.862332243,6.327841342,3
0.000528442,0.339695165,3.402033493,12.0606019,2.161993136,0.013207826,0.600538174,9.48609686,3
-0.000322763,0.339689654,3.430874438,12.18987583,2.158901215,0.012435067,0.870925572,7.984375153,3
-0.000372607,0.341150336,3.401336081,12.02851675,2.156377138,0.011289139,1.092585433,5.500863917,3
0.000597355,0.353343909,3.262477445,10.96083716,2.152590016,0.011491002,1.027850526,5.141434403,3
-0.001072311,0.341371251,3.382237394,11.95045275,2.147643716,0.011804088,1.41272258,7.843515882,3
0.000961539,0.340724837,3.387176155,11.95945969,2.144254303,0.012048828,1.187245399,6.837111056,3
0.000693244,0.353482028,3.256063035,10.90856258,2.156094415,0.018203827,0.441098043,0.906736704,3
0.000229601,0.353536004,3.251168146,10.88371004,2.161874826,0.014051163,0.999391835,3.178352337,3
0.000543941,0.353067535,3.247955773,10.90342827,2.161662565,0.016976328,0.868141528,0.539857805,3
0.000711737,0.341426001,3.351606787,11.82685237,2.172931344,0.016361926,0.059614271,0.777263385,3
0.000966902,0.327455393,3.530336668,13.17228558,2.172571073,0.01243417,0.908987908,4.192849143,3
0.00210126,0.338694319,3.423386024,12.15452296,2.166593497,0.011200699,1.083704875,7.260310857,3
0.001042753,0.328109116,3.530932632,13.16331255,2.164284297,0.011408967,1.21929291,8.486198461,3
-0.000833738,0.328806582,3.528755865,13.12244828,2.172651182,0.017102129,0.65580845,1.656237263,3
-0.001204756,0.341765363,3.396491205,11.98243386,2.175750242,0.017336578,-0.35468746,9.536709676,3
0.001605828,0.341624056,3.383033574,11.92567713,2.169419425,0.013373436,-0.647102418,23.54806694,3
0.005379514,0.352199885,3.268228272,10.97275367,2.174730573,0.013275772,1.023677909,1.375441069,3
-0.000558485,0.356114422,3.206673384,10.67416986,2.178936386,0.012723395,0.922016075,1.509688057,3
-0.003735679,0.358116294,3.163141272,10.46927518,2.176089914,0.011238187,1.341100382,3.277038925,3
0.002425598,0.377592154,2.990946837,9.050974537,2.173244313,0.01055785,1.520549954,5.510122597,3
0.001231711,0.378172939,2.964777708,8.94437592,2.173592922,0.012580847,0.802072225,11.57139796,3
-0.001989853,0.356206958,3.158559624,10.48093227,2.175957598,0.012620124,0.65776435,11.88968885,3
0.00255816,0.340357314,3.357641112,11.82634296,2.174443654,0.010847266,0.961908957,5.51828555,3
0.000194635,0.327725342,3.521668993,13.10210684,2.168349457,0.011528114,0.571684404,5.684413995,0
-0.001791268,0.330559345,3.484344951,12.88583088,2.161314883,0.011147151,1.003542163,5.785002331,0
0.001502034,0.34297361,3.325884529,11.61682426,2.158695766,0.012308339,1.270241052,2.373211373,0
0.000606158,0.343045251,3.327140432,11.63439846,2.166175515,0.015372635,0.710887599,1.501856803,0
0.001681693,0.353548635,3.238522824,10.82241097,2.180636052,0.018175321,0.799911863,1.151149071,0
-0.000405637,0.354211865,3.260162731,10.92005407,2.194784818,0.01878826,0.176223027,0.642278219,0
-0.001356949,0.343183854,3.372386921,11.88030264,2.19604345,0.015814173,0.574248718,5.379077782,0
-0.000296958,0.360507562,2.692543574,8.322178124,2.196711404,0.017546904,0.621511017,2.665550238,0
-0.005114116,0.376700023,2.640648094,7.747144859,2.198489053,0.019405542,0.106066011,-0.354160222,0
0.00137539,0.382462586,3.018897714,9.099149646,2.185181972,0.017960854,0.713540503,-0.043687285,0
0.001207417,0.381092736,2.990833671,8.977670419,2.182584272,0.015012994,0.377873231,17.38266898,0
-0.003195007,0.37007634,3.054329962,9.590107835,2.191889409,0.017066725,-0.076869779,12.61715646,0
0.00448131,0.368203305,3.067304333,9.677502844,2.189359283,0.015639442,0.72099168,3.251679036,7
0.000202632,0.345719327,3.320681885,11.60568369,2.18103932,0.011612397,0.962521225,6.720627166,7
0.000401439,0.344750546,3.339606398,11.6600594,2.181478173,0.017293882,0.141415733,14.83216041,7
-0.000485805,0.357400877,3.188156602,10.53170725,2.185791016,0.016828,-0.209008202,16.21033725,7
-0.001710251,0.345273956,3.314172218,11.52770806,2.183738164,0.011648589,1.069088046,3.818716186,7
0.001647119,0.344407092,3.327846394,11.60550322,2.182213756,0.01090686,1.062744007,4.178504834,7
0.00026428,0.344754258,3.349400556,11.72253229,2.180065972,0.011499539,1.207545838,5.310233745,7
0.001577872,0.355930914,3.232489589,10.72497366,2.178799765,0.011228765,1.507959611,6.791845565,7
-0.000275881,0.356923527,3.194418097,10.55286285,2.18520159,0.012255013,1.180516181,2.052292273,7
-0.001383362,0.357317236,3.182262412,10.51589197,2.190565491,0.01152497,0.969739689,1.867142311,7
-0.000387517,0.358371234,3.129222758,10.26348376,2.194200189,0.011228889,1.359411397,4.282765903,7
0.000434699,0.359772718,3.084383439,10.05296082,2.195890481,0.011015795,1.433043703,4.570617554,0
0.002977557,0.37035163,2.996951275,9.303353169,2.194475065,0.011259537,1.256506804,5.166176744,0
0.000892659,0.359251712,3.111508074,10.14707107,2.207902581,0.019297788,0.431011974,0.17160179,0
-0.000495261,0.33599732,3.360552118,12.18888716,2.207881927,0.019486452,0.370658026,0.051122498,0
0.00346875,0.34673778,3.281266892,11.35029717,2.190698406,0.011927257,1.219363125,3.568974783,0
0.001724716,0.357497662,3.118927634,10.16096098,2.185766002,0.010605299,1.25155818,3.14171349,0
0.000320788,0.359450399,3.111634285,10.1526851,2.181691469,0.011448481,1.072004588,2.404826031,0
-0.001305496,0.361544897,3.174558012,10.44961777,2.172396142,0.013389774,0.781709693,1.305662402,0
-0.001611479,0.347966632,3.306705566,11.46217882,2.165066528,0.010876978,1.099536211,2.360995307,0
-0.000348554,0.335144723,3.434727305,12.54618329,2.172216906,0.015906916,0.808115412,2.400139432,0
0.001419185,0.336774714,3.395556815,12.29420983,2.192867824,0.021486051,-0.046829582,-0.081308761,0
0.002242813,0.337494707,3.381957894,12.20615839,2.194142805,0.025319079,-0.390426616,-0.82631291,0
-0.001843532,0.325904787,3.509125197,13.40470548,2.177410344,0.027701028,0.255484589,-0.388061699,0
-0.001263807,0.327162842,3.471797958,13.1912607,2.164445387,0.026482335,0.396001673,0.644307659,0
0.002499226,0.339265853,3.347255668,12.01903742,2.141213172,0.024054365,0.513161068,-0.216434708,0
0.000926324,0.339011682,3.355543417,12.06795143,2.115041896,0.018803186,0.482340721,0.544593046,0
-0.000618334,0.33885319,3.354107667,12.08821569,2.105035455,0.013493345,0.81976588,3.137546547,0
0.000780042,0.350177042,3.256455191,11.19091641,2.098496846,0.014904907,0.600907826,2.61868056,0
0.000450289,0.336516791,3.399506818,12.36303481,2.086734554,0.013690794,1.08431179,4.778173081,0
0.001161124,0.322814555,3.546078652,13.60276182,2.082334736,0.013072489,1.049294953,5.846034678,0
0.001122417,0.324835168,3.501695946,13.32245559,2.082871628,0.012723729,0.868214328,3.250571542,0
0.001788509,0.325793557,3.470650648,13.1495681,2.079036822,0.013491031,0.374099353,10.18073846,0
0.001498529,0.326211204,3.465770613,13.12839329,2.073489816,0.013255405,0.535932838,11.77010051,0
-0.000649854,0.326708326,3.467770302,13.15302496,2.054904992,0.02432711,-0.055189967,-0.742516381,0
7.94E-05,0.326157389,3.465591166,13.17358754,2.079566465,0.049593196,0.13269624,-1.568591065,0
-0.001092911,0.338964792,3.351981918,12.10526372,2.102646147,0.030971859,-0.054932472,-0.468661784,0
-0.000137421,0.349873725,3.274421362,11.27831399,2.067551804,0.024930946,-0.335675022,-0.343948199,0
0.001022742,0.335709059,3.433696417,12.53488272,2.038479887,0.024599172,0.377751515,0.689375767,0
0.001812626,0.325221132,3.511801847,13.3198886,2.014424787,0.02013005,0.469398867,2.97254421,0
0.003850564,0.348517597,3.271574477,11.25153821,1.997384044,0.016050401,0.788685291,1.690424883,0
-0.000832012,0.346959678,3.318212234,11.5696545,1.988207844,0.013293864,1.14784989,2.851277633,0
0.000685815,0.335619042,3.426269999,12.47521641,1.982700402,0.012504186,1.308658557,3.020846885,0
0.001686925,0.326806346,3.494170269,13.17615315,1.979817799,0.012956319,0.974894796,7.237585569,0
-2.14E-05,0.33224116,3.43193306,12.69037284,1.977802549,0.013353289,0.860425113,5.884617115,0
0.000420783,0.357394041,3.209313999,10.68014635,1.983350972,0.031521178,1.95244185,3.735071182,0
-0.001638415,0.36292999,3.144071853,10.15489045,2.041001293,0.05873666,-0.377697424,-1.568174241,0
-0.002441541,0.369072678,3.092658584,9.754201624,2.10056294,0.017582431,0.672244082,0.075058762,0
0.000489631,0.3552363,3.233386802,10.80571512,2.105463954,0.020155871,0.460806638,3.075414049,0
0.001571941,0.327283019,3.535691392,13.21172442,2.080640302,0.026604866,0.815541882,1.286478052,0
0.000224147,0.315573862,3.675523857,14.44853277,2.055852727,0.012383618,1.089341284,3.375678294,0
0.000685723,0.328925329,3.47675499,12.8140709,2.050542286,0.013084298,1.261311653,5.763347639,0
-0.001463555,0.357333047,3.184260725,10.50903343,2.055637305,0.018295464,0.290188082,2.288223529,0
-0.002500292,0.37982731,2.983080138,8.934257148,2.080323574,0.037196327,0.463669153,1.038597393,4
0.001482834,0.366856827,3.05143238,9.582210378,2.071101379,0.041988783,0.656611532,0.116785774,4
0.003614332,0.355562578,3.14952457,10.44740249,2.030835288,0.019160271,0.791780822,0.222888843,4
0.00057743,0.341414473,3.30340626,11.60667011,2.007086563,0.022413446,-0.87842168,0.872803493,4
0.000334835,0.315562724,3.60415665,14.08784112,1.97460834,0.028801332,0.582345335,-0.900688962,4
0.002352624,0.3163784,3.603879083,14.03068128,1.94883134,0.012814596,1.142950748,2.476910508,4
0.005955008,0.31734041,3.586726166,13.90398542,1.943109294,0.015911389,-1.504114639,57.37294198,4
-0.00107596,0.308115705,3.660574758,14.88057699,1.943882588,0.017078055,-1.178618743,43.3440935,4
-0.003563736,0.309659401,3.636714818,14.74893251,1.938775907,0.015120751,1.030593188,1.643498641,4
0.001359506,0.332047838,3.438739405,12.62608796,1.92748582,0.01256547,1.35506558,3.476338731,4
0.001730974,0.331479216,3.431461929,12.59569386,1.920956094,0.011580182,1.387773683,2.938808426,4
0.004238715,0.330709914,3.449973773,12.67297789,1.916093009,0.0118076,1.316980585,2.878452687,4
-0.001696721,0.33310731,3.448398174,12.66024378,1.910241045,0.012918495,1.388371406,5.367201607,4
-0.003586206,0.333521356,3.441109983,12.64127773,1.904105105,0.014067571,0.622544244,14.44977033,4
0.003062609,0.330586821,3.453118425,12.72426318,1.916247504,0.021677909,0.075688641,3.473484297,4
0.001492185,0.318509187,3.578528094,13.85378635,1.961873354,0.036664418,0.087762474,-0.943537951,4
0.001881507,0.324945314,3.547308619,13.38138835,1.996721758,0.020094441,-0.921102771,3.035724339,4
0.002373989,0.321698418,3.577014533,13.6881947,1.998154286,0.014552276,0.774779762,2.253618401,4
-0.001993646,0.323359115,3.575734374,13.63540566,1.99763358,0.01685125,0.587033304,-0.041304574,4
-0.000373149,0.325333658,3.549982319,13.39414143,1.994070108,0.019045956,0.534125186,-0.275769193,4
0.000994073,0.317115374,3.627307441,14.15685084,1.992241342,0.014906761,0.497478006,0.938996739,4
0.000448393,0.318502982,3.607966469,14.03465569,1.990607125,0.013450232,0.720867423,1.816854229,4
0.000540678,0.330795928,3.487949878,12.89873283,1.982730539,0.013096342,0.904667328,2.298028306,4
0.005715886,0.329801718,3.469227632,12.76642557,1.982155882,0.012606705,0.826929816,1.832101858,4
0.001894677,0.316920361,3.537087791,13.60208846,1.979735783,0.015407221,0.204430335,0.874700993,4
-0.003267805,0.332606738,3.426998155,12.50233349,1.97695803,0.015187207,0.51888439,1.997359309,4
-0.001172359,0.355109109,3.267094147,10.97180247,1.97160323,0.013702144,0.913426822,2.953761347,4
0.000468672,0.349724252,3.32472034,11.34780323,1.961562184,0.012439675,1.030796703,2.752935561,4
0.001652272,0.32605519,3.569743218,13.40757753,1.955104337,0.012395366,1.162890202,2.795835824,4
0.000515187,0.386026621,1.70636393,8.310922415,1.947502954,0.013447347,0.714835031,1.618081026,4
0.005891543,0.395434266,1.710347287,7.781087173,1.941934313,0.015353365,0.812828771,3.738666106,4
0.000670146,0.315376739,3.666291687,14.4049791,1.937362616,0.016641779,0.707413754,5.934316191,4
-0.003353407,0.317212636,3.649071557,14.28598216,1.932726942,0.013875077,0.743565283,7.587369209,4
0.000719748,0.317344669,3.636331565,14.2057472,1.925891767,0.014023534,0.666658439,2.301077476,4
0.00224316,0.30954419,3.696131541,14.86594581,1.917237418,0.013573768,0.942332032,2.85493049,4
-0.000402819,0.316759202,3.63074047,14.15705887,1.908185141,0.013777073,0.923738601,1.791427099,4
-0.002078724,0.312899251,3.68282087,14.68897038,1.900553731,0.014622233,0.54873706,9.642557817,4
0.002258227,0.317429755,3.593369554,13.92248684,1.907403183,0.022189658,0.309037815,1.217716148,4
0.00184176,0.33118518,3.441938459,12.61404659,1.915540804,0.019498767,0.038306769,1.232190888,4
-0.000351504,0.332312758,3.469198402,12.77429553,1.917275728,0.013817613,0.760595986,4.374314422,4
0.00070406,0.317031402,3.645923722,14.24731147,1.912936183,0.013877322,0.766539096,0.974886538,4
0.001115394,0.315232391,3.678520625,14.45975511,1.899229322,0.013656873,0.674925343,0.656468508,4
0.002128523,0.316508148,3.633127933,14.21832673,1.896863556,0.013539552,1.03155868,1.723297326,4
0.000910799,0.305643736,3.730528659,15.31414014,1.899057279,0.013504939,0.906501688,2.892751621,4
0.000319447,0.31732825,3.641145967,14.20987471,1.897933415,0.014419188,0.752818781,1.588273937,4
0.000460621,0.318935119,3.569223903,13.82256261,1.899617004,0.014325192,0.723588776,3.183641588,4
0.000736313,0.320776674,3.527115212,13.51416744,1.901202829,0.012701019,0.852140664,5.48252888,4
0.001178898,0.329543918,3.520429764,13.0107114,1.894874791,0.014207944,0.734071997,0.640661412,4
0.001406243,0.315674219,3.66281317,14.38143937,1.887862669,0.011933027,1.201269241,2.405270645,4
0.004598373,0.315397771,3.644621721,14.25009457,1.887037986,0.01317068,1.186647744,6.30768826,4
-0.001096161,0.303304353,3.810743571,15.76743502,1.883933367,0.012274804,1.430289069,8.659119119,4
-0.001618835,0.305711312,3.738880386,15.3284188,1.878036826,0.013659223,1.156335729,7.984769536,4
0.002552771,0.306178592,3.715450542,15.21805286,1.873869596,0.013052656,1.573614167,10.65725978,4
0.001554127,0.305716182,3.706435668,15.17669904,1.869014522,0.014019031,0.256657329,7.4908019,4
-0.002088233,0.319611797,3.56750842,13.78989624,1.865050779,0.012714879,0.453495367,10.62889589,4
0.002041593,0.332313282,3.479015099,12.78725895,1.865571976,0.011647804,1.049707783,4.712840833,4
0.005650242,0.326991405,3.531723647,13.19500788,1.859418597,0.013105567,0.999389185,3.370731319,4
-0.002469995,0.304899514,3.772682687,15.59752999,1.848915318,0.012490001,1.189155837,2.557721864,4
-0.002813167,0.308887624,3.721412536,15.11189936,1.842581885,0.011296383,1.972902471,9.755409495,4
0.000992556,0.306231703,3.722012182,15.22024287,1.841468539,0.011664717,1.853873565,9.782784976,4
0.000789852,0.308933499,3.671988761,14.88573209,1.84021274,0.012554822,1.447583664,6.217907594,4
0.0008045,0.310458718,3.620246996,14.57035313,1.835471889,0.012606802,1.476139131,6.498657975,4
0.000546576,0.308984443,3.658101001,14.83169172,1.834744699,0.011681679,1.325636079,6.333627986,4
0.000726981,0.319769675,3.599623564,13.93389875,1.837346431,0.011652604,1.733737722,9.463940178,4
0.00220563,0.319697968,3.572688644,13.78557368,1.835981206,0.011426873,1.88200443,8.526958915,4
0.002949718,0.309272828,3.601599866,14.52019005,1.832074738,0.011655186,1.420241314,6.284279879,4
0.001940905,0.297360049,3.690352637,15.66887594,1.825142452,0.01222791,1.322210586,5.524635632,4
-0.001327776,0.295986546,3.789829498,16.26873627,1.816780145,0.01184589,1.206542004,2.79274479,4
0.005018999,0.306447754,3.699285845,15.08757872,1.811322839,0.011570383,1.471225239,6.471807024,4
0.005076697,0.30471549,3.684654373,15.15507999,1.809009606,0.011262654,1.513769157,6.685494527,4
-0.004096802,0.284631295,3.875379736,17.61083582,1.807796151,0.011222225,1.056445795,5.995572325,4
-0.001877694,0.288551226,3.795525502,16.84520748,1.807306889,0.011494604,1.070656832,5.575701938,4
-0.000860079,0.312840593,3.574967166,14.2726017,1.806284441,0.011313953,1.395793475,2.817674388,4
0.000250959,0.312017819,3.599416284,14.44247306,1.804559762,0.014380728,0.478591446,22.8103374,4
0.002920415,0.311394613,3.572571289,14.31335328,1.80181427,0.018741552,-0.235294112,25.26339853,4
0.002274006,0.311083403,3.585648887,14.398262,1.795105961,0.019453195,0.374257113,16.67071398,4
-0.000799491,0.296665078,3.791543294,16.25408092,1.781150109,0.01850377,0.559296062,9.400689307,4
0.000444423,0.296376931,3.812093327,16.38718113,1.764269529,0.015614515,0.274523938,9.886131811,4
0.001660688,0.297382944,3.728674875,15.86685283,1.750046921,0.013181064,0.894492961,1.417806919,4
0.000206236,0.298505993,3.684496064,15.54243157,1.738484464,0.01278263,0.928976297,3.284905504,4
0.000785503,0.298368833,3.701293034,15.6719146,1.738006101,0.015784174,1.052127432,1.753571859,0
0.001246052,0.317667892,3.407069892,13.35513115,1.776271984,0.037737223,-0.008737809,-1.371177379,0
0.001222164,0.342392875,3.229857346,11.41005469,1.812702778,0.015954374,-0.100244692,3.399919331,0
-0.002202399,0.347796603,3.318788464,11.52583455,1.810134288,0.013903706,1.042068625,1.399942744,0
0.001993711,0.350816971,3.26850988,10.96735549,1.812623378,0.021688516,2.263473283,5.947310343,0
-0.000755173,0.347870753,3.336926384,11.30320225,1.815534156,0.024256196,1.193181907,6.181860884,0
-0.003561709,0.352615532,3.380552726,11.50806035,1.817938723,0.021496016,0.033481303,10.92345334,0
0.001634942,0.351967207,3.394422256,11.56117975,1.821562576,0.017176619,0.778893141,14.49667037,0
-0.000434313,0.329057868,3.640479232,13.61789953,1.818589946,0.012771748,1.454439809,6.002832689,0
-2.81E-05,0.318649019,3.719641384,14.5000838,1.826467514,0.017376758,1.225000246,4.74492506,0
0.001709996,0.333239917,3.534088074,12.95374652,1.838782174,0.020367172,0.771174999,2.322168156,0
0.000246395,0.333931786,3.531707842,12.92062941,1.854463904,0.021502052,0.203682966,-0.130447716,0
-0.001762174,0.321509563,3.659885967,14.12957222,1.865047836,0.0174803,0.347469258,0.135018613,0
0.001298532,0.334289,3.496350096,12.75577798,1.872842189,0.020255022,0.201945583,0.04598056,0
0.003359998,0.33359923,3.505495666,12.81257199,1.8742836,0.021851654,0.136737905,-0.322152072,0
-0.001659263,0.321902635,3.650451179,14.1095812,1.862829317,0.024899292,0.588506555,1.44364878,0
-0.001465733,0.334433091,3.505985073,12.86061917,1.862256404,0.023423872,0.57564022,2.307861914,0
0.001120664,0.345171144,3.402549623,11.91095551,1.856621497,0.019489365,0.777243534,0.53255748,0
0.000333782,0.344165207,3.425123142,12.03087929,1.842535891,0.016781757,0.750152578,3.985979974,0
0.002173854,0.355806579,3.302775046,11.01586099,1.903097425,0.068714029,0.144625391,-1.55824488,0
-0.000537153,0.355294918,3.330524161,11.18615667,1.937875475,0.037545387,0.477547171,-0.741390482,0
0.000612717,0.34197909,3.463646252,12.27722453,1.888472857,0.026605287,0.005042274,-0.504794238,0
0.004565159,0.341665385,3.455709911,12.20118652,1.871209063,0.020599556,0.391580822,0.286407039,0
-0.000886603,0.331679222,3.55532986,13.14841987,1.870490537,0.018858194,0.532526624,0.373125171,0
-0.003948748,0.34707859,3.357162773,11.67794477,1.906700788,0.047053024,0.430572274,-1.222804051,0
-0.001045663,0.357939133,3.248038764,10.78811806,1.962605613,0.030559342,-0.995906284,0.72317285,0
0.004777895,0.349321946,3.354383321,11.45529683,1.992688206,0.026635314,0.697030654,0.17838968,0
-0.000807057,0.35148534,3.355794485,11.37359587,2.021780559,0.027553356,-0.55758851,1.144754497,0
-0.004209242,0.356035486,3.304322879,11.02168252,2.027778516,0.016567503,0.532171549,11.25131127,0
0.005623339,0.360562403,3.247630069,10.53270392,2.01643655,0.011034014,1.634753797,6.069384134,0
0.001115328,0.33852495,3.471706428,12.43094014,2.021250425,0.013051759,0.874704697,1.383271813,0
-0.003249167,0.317603728,3.675433613,14.40479981,2.023805237,0.012890861,0.500187265,5.2060256,0
0.001813326,0.317532312,3.642044375,14.16419297,2.019488416,0.012316017,0.76269517,8.599963801,0
0.000849001,0.318048941,3.637491354,14.16019285,2.020095008,0.011934631,1.182645203,5.437402066,0
-0.001117558,0.318050052,3.668545068,14.33271329,2.027423368,0.021966168,1.474730329,2.71339938,0
0.002108427,0.339143506,3.223678472,11.25402181,2.043818719,0.028734664,0.423983778,-0.230635628,0
-0.000769442,0.365852481,2.972072671,9.322622405,2.04752546,0.022467248,0.68981403,0.853766616,0
-0.000799635,0.371921173,3.01138572,9.391374666,2.039733941,0.013664413,1.097951277,1.801330467,0
0.002321751,0.355983852,3.079007094,10.20484722,2.044579533,0.013444604,0.837155541,1.90534801,0
4.82E-05,0.341084303,3.213639116,11.31265442,2.054880197,0.012576227,1.414875089,5.06157578,0
-0.00131526,0.357048922,3.0314101,9.984082384,2.057886887,0.011631797,1.500880727,6.229533795,0
0.002680082,0.368916579,2.928204053,9.151744959,2.065282331,0.013738402,0.828883954,1.428192332,0
0.002233004,0.358985526,2.989548493,9.725879453,2.071388463,0.012002207,1.200785615,2.88610096,0
