mean_ecg,std_ecg,skew_ecg,kurt_ecg,mean_eda,std_eda,skew_eda,kurt_eda,Label
-0.000516096,0.30609227,3.696628676,14.67055379,5.410671343,0.013804043,0.659240174,-0.465537272,0
0.002607376,0.308283921,3.585302789,13.88259766,5.425818689,0.012512511,-0.623542107,0.314508736,0
0.002348798,0.294394391,3.764467106,15.33023433,5.428056499,0.008288259,0.599119998,1.275580514,0
0.002597724,0.286499604,3.933865535,16.47125701,5.42375036,0.007828224,0.85832324,2.595138327,0
0.00065814,0.291928249,3.774989954,15.45265034,5.433403833,0.014526736,0.6481246,0.231076308,0
-7.31E-05,0.304668547,3.6015751,14.01950534,5.441083418,0.011633016,0.719924746,0.986268749,0
0.000993556,0.309682573,3.590648481,13.68730816,5.422967039,0.018815168,0.183320276,-0.914041015,0
0.000937441,0.309227752,3.568945645,13.57788845,5.404304886,0.008870819,1.270262409,3.372324869,0
0.000154914,0.307615741,3.58787642,13.7555009,5.398934337,0.00738499,0.96754423,4.22172622,0
0.001999754,0.299583019,3.680228228,14.69029883,5.410432707,0.041310066,2.543269131,5.499986479,0
0.003917201,0.289476441,3.798104812,15.73677158,5.50387764,0.089354156,-0.264962818,-1.708213706,0
0.001544488,0.290181595,3.82576507,15.84015025,5.577271816,0.016826125,0.454764528,-0.133326708,0
0.002830706,0.280468887,4.023186825,17.37760549,5.580975887,0.013715619,0.034874045,-0.215831193,0
0.00086843,0.271058833,4.236825609,19.27993501,5.600992366,0.014782653,0.216940487,-0.534896685,0
-0.004108416,0.262244419,4.429469146,21.3123054,5.611401585,0.009388638,0.276724385,0.706276011,0
-0.000759057,0.247407756,4.657168561,23.36842815,5.617247391,0.013442656,1.263108374,0.928904129,0
0.001179618,0.28348431,3.93996933,16.7661983,5.636070524,0.030884543,0.673623282,-0.397783537,0
0.000636488,0.288042278,3.853248087,16.29647636,5.600481088,0.055821096,0.470689067,-1.217475774,0
0.001692908,0.285194717,3.878708199,16.44544072,5.556892994,0.017293488,0.332477597,-0.650876774,1
-2.65E-06,0.296300365,3.569341178,13.99995585,5.58323337,0.031608418,0.215826869,-0.535371686,1
-0.00184176,0.290272741,3.699397817,15.34420988,5.593333817,0.025890494,0.090767823,0.191428195,1
0.000957269,0.291049666,3.920592326,16.73224072,5.547210475,0.039897727,-0.007910684,-1.252966625,1
0.00299968,0.280346178,4.126999832,18.2923566,5.487346758,0.03066558,0.202405528,-0.942096251,1
0.0015377,0.268737338,4.325615094,20.13516393,5.449279731,0.01873171,0.609672169,-0.413733089,1
-1.68E-05,0.258325484,4.483034112,21.87936226,5.425650624,0.015621724,-0.810019265,10.23376488,1
-0.000663169,0.259761066,4.460351623,21.70285918,5.403172084,0.016320474,-0.073335462,5.491255498,1
0.001051038,0.259381061,4.447054857,21.5887701,5.379612568,0.014527282,0.066011375,-0.654890876,1
0.002199293,0.258699828,4.420819027,21.31842572,5.365141078,0.009256629,-1.628455646,54.43759904,1
0.00492574,0.269674423,4.266551605,19.53123727,5.356483623,0.010058794,-1.276672208,33.67685885,1
-0.001806159,0.261246407,4.41322792,21.29968691,5.342698669,0.011571092,-0.01537885,0.130977785,1
-0.00276348,0.261697896,4.375485664,21.09160588,5.327948271,0.010391158,0.535560337,0.732416157,1
0.001492918,0.259785217,4.393976256,21.15397171,5.322136252,0.007068622,1.290429987,7.541399191,1
0.000692211,0.249159227,4.556125882,23.04208969,5.320135771,0.007685557,0.972693934,5.213682204,1
0.002770968,0.250815709,4.513667285,22.72517604,5.317221887,0.007043478,0.982624623,4.578181974,1
0.001936484,0.251277491,4.470425377,22.39319299,5.318044499,0.007777461,0.807510871,3.033030597,1
0.001652102,0.262274362,4.311337864,20.519609,5.319258118,0.008565882,0.649163755,1.582576615,1
-0.000793102,0.273177736,4.165762813,18.95682651,5.316421454,0.008578174,0.911050696,2.243689502,1
-0.000582073,0.271618488,4.178854266,19.19572796,5.308914893,0.008747177,-2.727714515,98.93147797,1
0.002782647,0.269327339,4.220122254,19.44654085,5.30651425,0.00810132,-3.5057644,128.3276469,1
0.000418788,0.258669558,4.410613712,21.36626881,5.310360227,0.00789337,0.810030427,3.587994247,1
0.002242022,0.270835956,4.217552741,19.33847325,5.313498633,0.007398216,1.134831368,5.539571439,1
0.00276365,0.271477514,4.209366457,19.2277294,5.315015575,0.007099234,1.007298901,5.080131977,1
-0.001266972,0.248935158,4.583577031,23.29116874,5.320036534,0.00882782,0.528384027,1.304434364,1
0.000770848,0.248890202,4.54896452,22.96654807,5.324845014,0.007276311,0.860947028,4.834815239,1
0.001462136,0.250429611,4.52767046,22.78826862,5.323131016,0.007039038,1.12559336,6.456262059,1
0.001309073,0.250665387,4.517229419,22.68215963,5.321071025,0.007197106,1.280543616,5.137374905,1
0.000614116,0.262470191,4.292255168,20.36594261,5.327272742,0.009965341,0.596378398,1.580503733,1
0.002136828,0.272751811,4.162969821,18.85964736,5.329032625,0.008847259,0.89519092,5.044541966,1
0.00092123,0.261449472,4.360381998,20.85371141,5.31970629,0.009156184,-0.874304601,29.49115245,1
-0.000446202,0.251411482,4.485456103,22.50110929,5.313752801,0.007947846,-1.733562337,53.98820851,1
-0.000379081,0.250574098,4.491676212,22.55986243,5.312802941,0.007431066,0.177279129,19.196816,1
0.001650395,0.2612993,4.323552729,20.58179252,5.309937177,0.007818682,0.69135743,2.070234143,1
0.002426697,0.262584007,4.284193038,20.30924713,5.30425366,0.007453449,0.832938159,4.260604499,1
-0.000192208,0.251983369,4.466503072,22.37660809,5.302736446,0.007638337,0.97659778,5.736675248,1
0.000536349,0.250847325,4.484762,22.43674312,5.304576111,0.007384095,1.030700469,6.520962386,1
-0.000236448,0.251098166,4.47223995,22.35901957,5.302415466,0.007763556,-0.748568046,38.75201212,1
0.00130719,0.252096037,4.465918686,22.31098396,5.300069482,0.007077206,-1.149236465,50.88387866,1
0.000237252,0.252317484,4.464457507,22.25189468,5.299382183,0.007461121,0.800460216,3.252514833,1
0.003749163,0.25967651,4.352888322,20.90379558,5.296382959,0.007559436,1.109918911,4.870642799,1
0.001202133,0.251873237,4.456327601,22.21857754,5.295883887,0.006864268,1.369044489,7.810135856,1
-0.00193927,0.244375752,4.562287407,23.60097915,5.296617726,0.007269441,1.003780284,4.496251921,1
0.004202042,0.263361868,4.28133474,20.15870521,5.292918777,0.008047103,0.898576231,2.681734677,1
0.001291214,0.264088734,4.247784866,19.96195557,5.288641303,0.007203117,1.230452574,6.451186763,1
-0.002343462,0.252962931,4.410517265,21.9133141,5.289378847,0.007411903,1.100994153,5.62769444,1
0.001917827,0.263463556,4.291719411,20.30324878,5.28973187,0.007104168,1.232101847,5.682047493,1
0.003849034,0.263601677,4.279602838,20.19443121,5.287504469,0.006940885,1.094985114,5.176135444,1
-0.00085454,0.252351342,4.466294731,22.2831489,5.288140706,0.007169352,1.276177686,7.204716268,1
8.18E-05,0.26299158,4.319393123,20.48992275,5.29147486,0.007348848,1.081509433,4.937248493,1
0.003710508,0.263164294,4.278783834,20.21979162,5.292433711,0.007043476,0.660444955,3.950514876,1
0.000931157,0.252858241,4.44355021,22.13288361,5.288925498,0.007564536,0.74498008,4.54061791,1
-0.001052654,0.252106877,4.477746672,22.32859474,5.288745826,0.007595446,1.038457929,5.069075088,1
-0.000491292,0.251442438,4.441091803,22.07935452,5.294913701,0.008606609,0.887372418,2.307838195,1
-0.00025385,0.252330549,4.441935571,22.10895007,5.301399612,0.008157708,0.539327619,2.334645471,1
0.001048965,0.252722328,4.456419438,22.14714485,5.302687781,0.007267276,1.276413259,6.995358114,1
0.002034825,0.252308177,4.433731257,21.96807932,5.301441084,0.00720552,1.401230019,7.121366686,1
0.001256104,0.263632141,4.289602905,20.26149259,5.30357448,0.007309543,0.828586766,4.176584712,1
0.002479928,0.272289946,4.104395866,18.50037133,5.309429332,0.009485659,0.484023167,1.825957528,1
-1.54E-05,0.259999457,4.26127625,20.26860895,5.312507357,0.008782439,0.421463027,2.929134003,1
3.27E-05,0.261531251,4.305681642,20.5463597,5.310514123,0.007297685,1.169016188,5.639339588,1
0.003003028,0.263191478,4.292957726,20.40073623,5.310192108,0.007708441,-4.10998637,139.0986195,1
0.002502293,0.252275237,4.453905798,22.15387848,5.311094666,0.007613601,-5.250293317,158.3297721,1
0.000860099,0.253137227,4.391052806,21.66701293,5.313851765,0.007318075,-0.076555801,16.63603818,1
-0.003234879,0.253864119,4.40853192,21.79851847,5.318386078,0.007346701,0.960918564,3.79330128,1
0.002126083,0.263996128,4.267937501,20.09562657,5.324359458,0.0082144,0.568137755,2.304151157,1
0.001169809,0.264255186,4.260477782,20.10146208,5.324926812,0.008173932,0.052661986,12.25805051,1
-0.001121037,0.264253923,4.271117069,20.1910335,5.318201937,0.008005162,0.429201592,12.60659725,1
0.001308171,0.274241559,4.116865451,18.51453011,5.315945489,0.006832351,1.302693181,6.480351101,1
0.00463882,0.282182193,4.033538159,17.4540958,5.318258776,0.007080089,1.34320771,5.363441773,1
0.001164505,0.272563635,4.193424153,19.07857503,5.316887992,0.007561233,1.138644723,5.102421957,1
-0.001117597,0.263603843,4.309733658,20.47867308,5.31474375,0.007432971,1.037338236,3.983856286,1
0.002771569,0.262043657,4.324468014,20.51956763,5.321889659,0.00980648,0.228583752,0.747420061,1
-0.000527363,0.251144153,4.508435088,22.57666464,5.326963915,0.007150804,1.121045593,5.738774912,1
0.000519555,0.252376484,4.466657869,22.21542885,5.320587431,0.008691181,0.837665822,3.563908971,1
-0.000249762,0.252940849,4.460036942,22.14908508,5.316114698,0.00810032,0.701309315,9.239732136,1
0.001096651,0.264160512,4.265483332,20.03703298,5.320760618,0.009067238,0.066299545,4.934746703,1
0.002029718,0.274758549,4.129630019,18.4998662,5.324500765,0.007622617,0.911172611,4.061045916,1
3.58E-06,0.263757901,4.326187939,20.53118892,5.319858442,0.008661268,0.837024093,2.786874271,1
0.001747591,0.257255905,4.387873796,21.3186684,5.316144289,0.006930743,1.130018951,5.334946986,1
0.001273682,0.263050577,4.291504949,20.26617028,5.321816036,0.009030732,0.669396312,1.512678295,1
0.001098868,0.268922552,4.231031555,19.52072999,5.327999333,0.007532749,1.04351439,4.796506911,1
0.001392654,0.263630275,4.297954814,20.32297688,5.327799061,0.007022582,1.059007431,5.694001986,1
-0.000616765,0.252964145,4.438247445,22.07155515,5.329290499,0.007341934,0.663226602,3.035270948,1
0.001011743,0.263760385,4.298378096,20.3127614,5.334680939,0.008168668,0.786212089,3.283143316,1
0.00360585,0.273386877,4.128987774,18.55491012,5.335127858,0.008474616,0.664792375,3.265165449,1
0.000216064,0.274400161,4.098932365,18.41215325,5.332307489,0.008046765,0.553294185,3.48846054,1
-0.001827772,0.263784426,4.278601395,20.37909108,5.326281629,0.009832239,-0.355836601,12.68623867,1
0.003385189,0.262147199,4.323295712,20.59008732,5.32190737,0.008658589,-0.224093726,20.94777847,1
0.003757671,0.263559846,4.277365721,20.1278521,5.32534899,0.008413759,0.618069275,4.373548774,1
-0.002002775,0.253640296,4.410185178,21.80942927,5.328970718,0.007254163,0.994459917,4.797158985,1
-0.000310076,0.257898603,4.38120491,21.23482414,5.332296698,0.007198767,0.563102165,2.927632916,1
0.00269288,0.263192484,4.302456748,20.29357885,5.335050419,0.006688821,0.870966053,6.380841399,1
0.000891115,0.270511861,4.165762088,19.02342643,5.336802346,0.00678637,1.184264716,6.943567903,1
0.000707356,0.264500705,4.23490092,19.90912495,5.341140311,0.008047079,0.459964121,6.156464159,1
0.002027278,0.263078587,4.267073087,20.13931329,5.343674251,0.007918249,0.155574026,7.326242096,1
-0.000424942,0.263474716,4.282902829,20.26809293,5.343207986,0.00754291,0.616951967,5.862563009,1
0.000178096,0.263478479,4.289763754,20.29763855,5.347487531,0.007980081,0.581139668,3.034968035,1
0.002005875,0.264110279,4.279827128,20.15726926,5.350933511,0.00681391,0.99781206,4.108389138,1
-0.00195469,0.25388936,4.442084214,22.09128095,5.352532251,0.007643671,0.911590042,3.847495893,1
-0.000287744,0.263776079,4.255812767,20.13959508,5.357782146,0.009036637,0.497122635,3.192606305,1
0.002063998,0.273283215,4.131417714,18.74209234,5.362511553,0.009005402,0.172391751,7.276681809,1
0.000896949,0.273162508,4.159409124,18.93779757,5.363873346,0.008730992,0.613132858,9.615965796,1
0.000896883,0.271033093,4.164894022,19.00336745,5.364393616,0.008246879,0.927041989,5.9515491,1
0.00155004,0.269139828,4.191403879,19.25212748,5.365434047,0.007675243,0.971939637,3.712570715,1
-0.000186826,0.270248462,4.198236119,19.25262223,5.36510413,0.007461881,1.206503439,5.141154807,1
0.001663409,0.270824253,4.194386305,19.16376595,5.366425432,0.008056021,1.186476558,4.772934753,1
0.004486627,0.270104363,4.228787516,19.33180751,5.372275761,0.008851568,0.688188516,3.606272481,1
0.001329947,0.260427962,4.363273521,20.87627811,5.379917744,0.008095036,0.840851998,4.518666227,1
-0.002309241,0.252559993,4.463951787,22.20250077,5.382845088,0.006944809,1.058550178,5.429985633,1
-0.00010609,0.262043683,4.34496941,20.68865601,5.38082101,0.007198975,0.837144417,4.341058422,1
0.001384062,0.270624681,4.205587622,19.2551378,5.383960887,0.008600026,0.513704134,1.606218538,1
4.27E-05,0.271523793,4.193647896,19.08823947,5.389274652,0.007068522,0.655083459,3.174593181,1
0.003736058,0.270922358,4.210607805,19.18336898,5.387079348,0.007402991,0.735687921,4.468362268,1
0.000781344,0.260929349,4.369209511,20.95522472,5.384552765,0.007051787,1.369192129,8.539261414,1
0.002097617,0.260942444,4.350913342,20.76049064,5.386466217,0.007441785,1.177063716,5.786330526,1
0.002145002,0.256632546,4.39995573,21.36307203,5.386400332,0.007554308,0.951902379,4.609961613,1
-0.000660252,0.252421633,4.430629246,22.06013353,5.383350318,0.007554137,1.010681218,6.042723691,1
0.001964284,0.267561319,4.227789837,19.61930271,5.38200373,0.007135159,1.03686354,7.617772323,1
-0.00119919,0.262447125,4.30558948,20.42618824,5.383727373,0.007118668,0.27867383,21.9914749,1
-0.000393114,0.263008382,4.28860912,20.33976073,5.385959189,0.007242966,-1.922731536,75.61692338,1
-0.000216032,0.262090771,4.351006502,20.775182,5.386339188,0.007287945,-2.241452734,80.08697013,1
0.002451076,0.261249823,4.352596729,20.74546215,5.386038535,0.007022424,-0.269208948,29.6377487,1
0.002569526,0.272221197,4.133691137,18.69967857,5.393579647,0.011888644,0.704812634,0.243163239,1
-0.000936598,0.261320488,4.281042436,20.3427809,5.409221867,0.012714762,-0.294944159,-0.159876794,1
0.001840655,0.250198248,4.499359083,22.53851123,5.414673233,0.00777732,1.060732995,5.629123508,1
0.000640725,0.25234198,4.446323696,22.1219177,5.414361191,0.00749364,1.245208939,6.103119559,1
0.000404715,0.254753711,4.406191851,21.85931556,5.429789298,0.014881314,0.12274241,-0.967836102,1
0.004163001,0.263201846,4.192108776,19.59654134,5.44549566,0.007737198,0.654814143,4.154297097,1
0.001240657,0.261304727,4.200184594,19.59772438,5.447840881,0.006981544,1.101309811,6.377482058,1
-0.003587926,0.252410414,4.436744438,22.05044904,5.448344149,0.008161544,0.859263683,3.148772116,1
0.00128249,0.263885836,4.255574982,19.98484572,5.455695561,0.0108613,0.237944774,0.360434054,1
0.001234863,0.263020553,4.287696793,20.23063683,5.454023416,0.011096657,0.498049256,0.191732444,1
-0.000557726,0.251017246,4.513575297,22.66273738,5.447017343,0.007521113,1.163011572,5.000608247,1
0.004121194,0.262502281,4.296200146,20.30905786,5.453420912,0.009533779,0.396825907,1.0974582,1
0.000527036,0.252153543,4.424580513,21.96632284,5.46182736,0.008163344,0.654131585,2.094494441,1
-0.001691685,0.241475904,4.592700162,24.12141061,5.460607747,0.008772343,-0.961011855,34.34050567,1
0.000992543,0.253954345,4.385892644,21.64957934,5.455329732,0.007587345,-1.53252638,54.88535143,1
0.001842564,0.265125167,4.240261585,19.87661662,5.457932227,0.008334803,0.634946879,2.134169002,1
0.00255969,0.264984773,4.223705886,19.78752071,5.463153185,0.007648919,0.913723371,4.427832631,1
0.001637715,0.253384746,4.389156113,21.70401189,5.462115152,0.007503518,1.027154739,4.074324966,1
0.000728479,0.253152977,4.414787792,21.86092316,5.460551671,0.006983326,1.086478536,4.485635653,1
7.03E-05,0.253440855,4.391023965,21.68011036,5.464967619,0.007742083,0.691032502,2.616771481,1
-0.000703236,0.252888653,4.429803104,22.00095947,5.469635228,0.007032137,1.007544662,5.313934486,1
-0.002136677,0.264011622,4.269835999,20.13898376,5.468756648,0.007630757,-3.100883112,118.1783726,1
0.001705098,0.274203097,4.088177848,18.35266122,5.466647775,0.00731701,-3.639770349,132.671527,1
0.003127265,0.262317123,4.278673236,20.33341096,5.465095084,0.007269143,0.785420897,2.645282185,1
0.003724666,0.250041004,4.479033673,22.42619202,5.46365896,0.007159187,1.190810504,5.038381078,1
0.002984129,0.25201738,4.407827287,21.8185135,5.465250233,0.00699681,1.320674064,6.059042019,1
-0.003738451,0.24281434,4.553673007,23.7070428,5.466070829,0.006686061,1.179814945,5.333981429,1
-0.000387098,0.242304433,4.547503533,23.65750972,5.468625041,0.007355501,0.694489008,3.006960596,1
0.001810704,0.253731,4.356943936,21.43523521,5.472721917,0.0069003,0.91361158,5.161387711,1
0.001665985,0.253705937,4.379880561,21.59241407,5.475946971,0.007320026,0.84443004,4.558929745,1
0.003054951,0.253829908,4.382112941,21.56581083,5.479657146,0.006912679,0.841522115,4.472950241,1
0.002849683,0.253608327,4.362672772,21.41790338,5.481363623,0.006567801,1.12849052,4.749821586,1
0.000953803,0.254029303,4.37720222,21.54024432,5.481088856,0.006914584,1.902756101,16.99576898,1
-0.000975128,0.253714569,4.423687296,21.86605094,5.479460852,0.007421838,1.292417761,12.79884021,1
0.0007894,0.254295855,4.380551555,21.56675826,5.47877715,0.007243459,0.711011404,4.09815631,1
0.00132862,0.254373412,4.344161731,21.33113062,5.484351403,0.009118927,-0.079290838,14.40984899,1
0.004070618,0.285182146,3.810902061,16.07368688,5.510111019,0.027707666,0.728378913,-0.628358111,1
-0.002499677,0.307222551,3.515585434,13.61324917,5.538456454,0.021363183,-0.595420736,-0.43183211,1
-0.00338749,0.296276754,3.734236697,15.39807654,5.533432715,0.016589136,0.670118591,-0.359669372,1
0.004508449,0.281900472,4.007112724,17.50420127,5.519079045,0.006991335,0.897394516,3.837833518,1
-0.000657532,0.249933452,4.486702191,22.66203924,5.520030376,0.007162643,0.828357486,4.448133278,1
-0.000951534,0.240805052,4.619366649,24.35182154,5.524780273,0.007655233,-1.456870249,54.87792922,1
0.003379061,0.265969025,4.16831935,19.36493255,5.534593528,0.010570719,-0.768036736,17.70030366,1
0.002235973,0.265636098,4.165314835,19.29857179,5.537784358,0.008333319,0.371882021,1.374695121,1
0.000766806,0.253865424,4.402915059,21.76710832,5.529643685,0.007889716,0.647228468,1.179610762,1
-0.001730726,0.255555014,4.41231543,21.84492482,5.538577162,0.016487295,0.572375322,-0.735290088,1
0.000668394,0.24239863,4.565855885,23.87115521,5.555588259,0.011911786,-1.412969475,16.41616327,1
0.002389794,0.240954665,4.499222263,23.34330092,5.553153719,0.011435106,-1.043458262,17.59272649,1
0.00146742,0.253320045,4.34229679,21.29804314,5.541534696,0.010011509,0.561923395,4.851463793,1
-0.000525768,0.242527123,4.540399436,23.62826933,5.53548802,0.007025002,-1.071283476,39.39862437,1
-0.000241477,0.243541915,4.517069616,23.43607783,5.536457552,0.007390023,-0.389576376,31.76167877,1
0.002432831,0.266054268,4.18019933,19.43413766,5.537506703,0.007775301,0.467730928,10.51234336,1
0.000347227,0.265749464,4.209546115,19.70404577,5.533146177,0.00821165,0.691562061,2.443205424,1
0.001993077,0.253070775,4.405723724,21.84667705,5.526656614,0.007656255,0.82728204,3.490577602,1
0.000511106,0.253147755,4.392822315,21.71152039,5.523736354,0.006717734,1.220199814,5.830084826,1
0.000881025,0.265399178,4.231499779,19.8120887,5.521714292,0.00724514,0.723286367,3.114388921,1
0.002016946,0.265963751,4.227366131,19.78288986,5.51797142,0.00696944,0.938648913,3.640991366,1
0.000731742,0.265037356,4.238132775,19.92389563,5.521794837,0.008718705,0.506898896,0.724236303,1
0.001229396,0.274124957,4.126825952,18.57946599,5.529556547,0.007392411,0.53124628,4.032597718,1
0.001652651,0.272908279,4.143521244,18.77837983,5.533001328,0.00763413,0.907127346,3.914006283,1
0.001541094,0.272874249,4.144139148,18.79985972,5.529182434,0.008942308,0.804686357,1.84469871,1
-0.000815244,0.262952591,4.294416075,20.40483747,5.525082724,0.006576837,1.030000313,5.286246078,1
0.000498485,0.253635786,4.428383893,21.86925674,5.52259407,0.007350428,0.564366665,1.444005217,1
0.001946633,0.262909394,4.314085011,20.41827126,5.519067219,0.006990924,1.007823593,4.441020516,1
-3.86E-05,0.261816149,4.34251446,20.80645228,5.515739386,0.007308622,0.968453493,4.651426107,1
0.000589979,0.275190566,4.096138282,18.3913294,5.517271478,0.007821328,0.563021879,1.918683494,1
-0.000450204,0.27493603,4.104902718,18.45467372,5.520430265,0.006863209,-0.400990863,31.71026058,1
0.000673769,0.263390775,4.299940669,20.40598301,5.51533432,0.007727745,-0.164502842,17.47842182,1
0.003694637,0.273540492,4.168299809,18.82358701,5.515180043,0.00764826,0.77311571,3.84937847,1
0.001973648,0.262190741,4.325533627,20.52437106,5.521538544,0.007481431,0.913990617,5.25694751,1
5.47E-05,0.252409741,4.433475541,22.04195919,5.523448563,0.007540957,0.632540724,3.382073635,1
0.002253381,0.263868636,4.287466554,20.24478612,5.520968846,0.007962156,-0.811035762,27.47230069,1
0.003028009,0.274286512,4.114345873,18.46213001,5.521584102,0.007491481,-0.893572634,36.76474714,1
-0.002625569,0.26511035,4.238002278,19.98986737,5.520133427,0.00765163,0.613637721,2.795975751,1
-0.001566513,0.263967118,4.282716784,20.35894131,5.514703914,0.006796681,0.898152023,3.910569107,1
0.002237183,0.273813324,4.143210853,18.71509225,5.513648932,0.006658804,0.967238939,5.501849166,1
0.000735018,0.273844645,4.161263938,18.7914242,5.516379384,0.007148087,0.55668988,3.263781114,1
0.001869088,0.273878854,4.148012441,18.70489657,5.518288422,0.006675152,0.726130398,4.296964804,1
-1.24E-05,0.274544665,4.156381848,18.76065798,5.516618293,0.006592585,0.868158876,4.127651586,1
-0.001000789,0.274419462,4.183168336,18.9574296,5.518869945,0.007740336,0.593833078,1.896756997,1
0.002264491,0.274144008,4.165298381,18.84982066,5.523812866,0.008290059,0.267641422,1.734719016,1
0.001755419,0.273840989,4.15909432,18.78079461,5.528907667,0.008794044,-0.158465812,1.43504834,1
0.001000972,0.263733462,4.310620987,20.39546441,5.532946832,0.006676611,0.640968674,3.596650187,1
9.34E-06,0.264468188,4.288348418,20.25627738,5.531654412,0.00654847,0.839583704,4.252566499,1
0.001573275,0.264356775,4.25769612,20.04631068,5.531157248,0.006203568,1.09842031,5.864579462,1
0.005191328,0.273849047,4.090990966,18.34519482,5.532707105,0.006491405,1.019732754,6.901995846,1
-0.000373967,0.26255702,4.258827327,20.17012788,5.535380445,0.007126452,-0.087829671,22.07285764,1
-0.003712424,0.240766999,4.62838614,24.42066973,5.538276563,0.006931979,0.089305235,26.46429532,1
0.003842821,0.252833113,4.413407577,21.84103095,5.538723101,0.006606485,1.276244407,7.602282874,1
0.002923599,0.253213146,4.411016076,21.78671041,5.537448393,0.006606365,1.089290678,8.400060758,1
-0.001623014,0.254747593,4.380961322,21.56279006,5.537343597,0.006959964,0.996713933,7.012599885,1
0.002322307,0.265790677,4.250800743,19.93717055,5.534471403,0.00785243,0.9018095,4.139687374,1
0.005162064,0.28461332,3.761330069,15.82475812,5.572860227,0.065609137,1.179889253,-0.141201433,1
-0.002947423,0.307056191,3.401418387,13.17336461,5.665330342,0.074062972,-0.712119019,-0.721605493,1
-0.001942913,0.32390595,3.376317831,12.39333657,5.674226107,0.051094255,0.040863399,-0.970204723,1
0.002210737,0.308272501,3.619432505,13.99098166,5.594724001,0.045364455,0.392153376,-0.951533923,1
-0.002061114,0.288086123,3.901295336,16.62191986,5.551118796,0.014733276,1.056392063,0.869228815,1
0.002417273,0.278569016,4.087402147,18.2128439,5.543876702,0.007321979,1.020001424,5.724896432,1
0.007580926,0.257296901,4.421835551,21.3879222,5.541038568,0.008012973,0.490223928,13.49804344,1
-0.004162295,0.26621136,3.883178654,17.91320967,5.575382832,0.041099607,0.604741943,-0.800944089,1
-0.005763415,0.296020202,3.636528404,14.87643312,5.589565495,0.029943996,0.978439322,0.191066481,1
0.002224764,0.289309358,4.000557688,17.12017673,5.564774758,0.009077688,1.006591036,1.205106882,1
0.00156034,0.271210858,4.279801795,19.81444048,5.562513896,0.006567536,0.877418979,2.840911144,1
0.00113802,0.26180896,4.383524401,20.99549553,5.561337062,0.007730619,0.281482031,0.982436219,1
-0.000445901,0.263372521,4.361653885,20.81800268,5.558333315,0.007384053,0.235308288,6.095785339,1
0.000576828,0.275622557,4.129109369,18.55731759,5.584198706,0.032448349,0.529259793,-1.365191537,1
0.003146419,0.296177166,3.821896088,15.70720019,5.610652924,0.020842681,-0.715372873,-0.162558596,1
0.003142587,0.296877178,3.841553437,15.82727839,5.59705707,0.017873675,0.533367571,-0.834374884,1
-0.00078668,0.264271004,4.341725924,20.66977132,5.581650216,0.0072744,0.864651583,3.192422209,1
-0.000349411,0.250755848,4.556622139,23.00176137,5.583193861,0.007780456,0.90342405,1.87354952,1
0.00071128,0.252164883,4.477710103,22.33623856,5.592811312,0.009727861,0.280965856,-0.015943172,1
-0.001253821,0.253548969,4.453080405,22.10307859,5.598350252,0.006628913,0.916781776,3.58065774,1
0.001597275,0.253719319,4.46002023,22.167203,5.597776086,0.0063861,0.246131224,18.77857817,1
0.002526372,0.264646889,4.253687243,19.98613593,5.606703023,0.012067946,0.306498942,1.034160841,0
-0.001475111,0.276437997,4.085471348,18.26815526,5.615896334,0.008220502,0.266959765,1.558665304,0
0.003610022,0.284679012,3.73637662,15.69854575,5.681445748,0.085606506,0.81683276,-0.974673066,0
-0.001698571,0.295736191,3.411102154,13.54952657,5.808546284,0.084654573,-0.985341894,-0.15848512,0
-0.001978716,0.316028665,3.362263269,12.5851246,5.837978418,0.037945833,0.357370913,-1.082256834,0
0.005084002,0.323525861,3.335365843,12.17445987,5.797083991,0.018923395,-0.046964556,0.572366415,0
-0.001188858,0.320643299,3.338403728,12.25079026,5.778084891,0.018030269,0.613057098,-0.441593944,0
6.91E-05,0.327141547,3.264732372,11.5145995,5.785873141,0.024177641,0.666933765,-0.354404119,0
0.002963601,0.321116059,3.357952032,12.2743938,5.783465467,0.031093043,-0.122887245,-0.903619283,0
0.000646748,0.309436617,3.52479528,13.51311269,5.754911641,0.021110204,1.05373111,0.496500666,0
-0.001290965,0.308216538,3.535873753,13.62421089,5.744503675,0.011701055,0.021205697,0.503361599,0
0.000296193,0.30922053,3.613924446,13.96910662,5.723860332,0.020636033,0.274188073,-1.133405726,5
0.001834449,0.297657978,3.843349013,15.61857518,5.703379549,0.00786775,1.042035946,5.161915038,5
0.004814863,0.297778335,3.85079195,15.62563854,5.694851031,0.009469587,0.367321621,1.585355893,5
0.001380785,0.299864556,3.823005238,15.51265354,5.695196642,0.011416654,0.606854578,0.402864731,5
-0.002533146,0.291521959,3.979582649,16.89136271,5.697268241,0.010472151,0.55995345,1.105127496,5
6.40E-05,0.279164665,4.192807401,18.64065541,5.682641983,0.013420163,-0.046922021,-0.050434158,5
0.00160042,0.280694932,4.18264985,18.51053981,5.659361703,0.016138634,-0.031090747,-0.860351556,5
0.001378503,0.29280729,3.976964616,16.71209052,5.639191764,0.011947801,0.316214684,0.312453264,5
0.002721392,0.290739562,3.97334436,16.67703367,5.631179755,0.008537201,-3.228641036,116.6076763,5
-0.000644996,0.281672417,4.115964927,18.09166934,5.632182802,0.008070364,-3.606025997,149.2041796,5
-0.002489155,0.281895811,4.079352007,17.94011603,5.629874747,0.008412273,1.219516538,5.589277897,5
0.00201346,0.290591264,3.949164872,16.53207551,5.627287946,0.007158539,1.657970703,11.01176897,5
0.005326636,0.290748665,3.967962402,16.57453286,5.630578504,0.007065455,1.066043534,5.99919718,0
0.001801503,0.27969724,4.149236462,18.36231629,5.654170391,0.028983123,0.690031899,-1.078351224,0
-0.002699406,0.26059076,4.418125102,21.4029369,5.692497907,0.025284452,-1.230931033,0.523186296,0
0.000646709,0.249868045,4.568568657,23.00718579,5.714386477,0.008819436,0.235471521,0.244380186,0
0.001045022,0.260747396,4.386378477,20.96643007,5.725459562,0.009724405,0.666198088,0.95460911,0
0.002543126,0.273846947,4.126156246,18.49926108,5.738081414,0.011306466,-0.28757582,7.687098619,0
-0.000492953,0.274035035,4.139859995,18.68564425,5.749221148,0.00924691,-0.969379855,23.82309264,0
-0.001165754,0.261841634,4.385938362,21.08229373,5.748379898,0.008641113,0.514670238,1.603480965,0
0.000150683,0.250116598,4.55625219,22.99620194,5.743650872,0.007474162,0.182053815,7.077516393,0
0.001440877,0.250129518,4.497207299,22.51367331,5.750073896,0.010805328,0.293939382,1.555867992,0
0.003721736,0.260554923,4.341496451,20.65628694,5.765047128,0.012162862,-0.16962272,-0.336080028,0
0.001179729,0.271170341,4.170830698,18.97819628,5.774552591,0.008384639,0.790536119,2.454534054,0
-0.000403597,0.258892191,4.318825453,20.76194052,5.772664806,0.008805152,0.802581711,1.499503167,0
0.000856168,0.259008203,4.357296096,20.97486041,5.766857365,0.007643163,0.440809323,0.615062035,0
0.001270961,0.258933077,4.377589009,21.12765838,5.759144374,0.008007186,-0.744863738,28.52427273,0
-0.001008604,0.248177244,4.525916929,22.93377371,5.754569299,0.006679903,-1.291262136,54.6602623,0
0.000517724,0.263002757,4.212050883,19.83322544,5.755531257,0.00764276,0.72747829,2.278900624,0
0.002395503,0.274629722,4.051958541,18.12521651,5.775467791,0.022566636,0.350619314,-1.274727306,0
0.00170415,0.274265924,4.125307759,18.52743696,5.791515732,0.013847847,-0.305385891,1.419028492,0
0.001514413,0.264125661,4.258016558,20.07265204,5.783435985,0.011203435,0.255790501,3.97534138,0
0.002694155,0.253467863,4.384857226,21.71053333,5.772277451,0.009760545,0.410915099,0.78768617,0
0.002819151,0.253004496,4.412299189,21.79419925,5.76244218,0.007965833,0.713028478,2.024951097,0
-0.00047028,0.254573611,4.400493576,21.69556852,5.758073861,0.006589517,0.863074757,5.051287709,0
-0.000500898,0.255753411,4.36311042,21.43906454,5.752733013,0.008480112,0.236255295,1.60816551,0
0.001769387,0.255798606,4.313922958,21.15684287,5.749086816,0.007218397,-1.040715152,46.00763331,0
0.001043583,0.255659227,4.304451573,21.11393686,5.749744851,0.006951121,-0.97470107,54.20519242,0
0.00062917,0.254564988,4.344610221,21.39519525,5.750066376,0.007153797,0.783732233,3.128115196,0
-7.14E-05,0.26653088,4.168693997,19.49905004,5.751588331,0.009168535,0.865257518,2.508669166,0
0.001005203,0.265947447,4.202387025,19.73820203,5.749809538,0.009109741,1.304076243,3.982740109,0
0.000338784,0.254204186,4.396525325,21.80934019,5.746978433,0.006732757,1.428147086,7.584077037,0
-0.001150537,0.254578178,4.371702649,21.6181839,5.7475314,0.006963507,0.094658404,21.49079588,0
0.004173719,0.265482376,4.22909989,19.83658908,5.748292977,0.006859203,-0.054259135,23.68181977,0
0.00367698,0.26655789,4.194561793,19.58543622,5.745730046,0.007303561,0.954288999,5.666406522,0
-0.002132433,0.255514845,4.353681357,21.40999624,5.744233595,0.006817955,1.09943171,5.661426089,0
-0.001792825,0.266699599,4.199569189,19.67482908,5.744033595,0.010037268,1.893937243,5.434855441,0
0.002423237,0.284797737,3.92374052,16.88972022,5.758864539,0.020043514,0.21425517,-1.202228823,0
0.002354612,0.290779472,3.798926363,15.86244037,5.773385511,0.012048203,-1.040976863,23.78397642,0
-0.001728843,0.281373128,3.944726455,17.22964169,5.76758303,0.010683744,-0.972665748,35.72229912,0
-0.000350614,0.260695531,4.298147635,20.58402815,5.760932105,0.007664526,0.442647373,3.160968608,0
0.002557918,0.262327697,4.257012496,20.20843498,5.757315336,0.007919746,0.484532259,2.842560518,0
0.003087544,0.264291842,4.21254459,19.83971305,5.749666214,0.009722992,0.421208669,0.745539513,0
0.002313492,0.253280566,4.380077125,21.65553422,5.749717821,0.012591197,0.763330305,0.062998262,0
-0.002092209,0.254754075,4.373953926,21.55009881,5.759656198,0.011548073,-0.319640636,0.764758973,0
-0.001347695,0.255250232,4.362912565,21.49451672,5.762292698,0.007487999,-0.666618518,44.73830357,0
0.002022576,0.254678405,4.359418213,21.43625144,5.760241263,0.00752424,-0.734302258,41.90292997,0
0.001562105,0.268026864,4.135138705,19.07710833,5.758715003,0.008733675,-2.472491073,95.31322308,0
0.001408127,0.277213501,4.027456885,17.88094139,5.749215589,0.012477672,-0.509649552,19.1389425,0
0.003565358,0.268880578,4.196189378,19.43657963,5.734301867,0.0095896,0.439856989,1.632500524,0
0.00124551,0.265547519,4.225120622,19.86805721,5.726793507,0.007585353,0.908113432,3.7162999,0
-0.001518925,0.260816421,4.264887734,20.40194065,5.724109486,0.007488983,-0.031507922,22.35471661,0
0.001565532,0.255002005,4.355459056,21.38692282,5.719706781,0.007814187,-0.004265247,17.21233026,0
-0.000329865,0.255343582,4.342291937,21.30997512,5.714384569,0.00727732,0.694935215,4.183763317,0
0.0012844,0.267003285,4.146526381,19.26747147,5.708996964,0.00803643,0.955355035,4.005495013,0
0.000975841,0.266971138,4.145747535,19.28590839,5.705953435,0.006990989,1.357725955,7.082266523,0
-0.000520915,0.264954158,4.224430669,19.97510401,5.709098434,0.009368067,0.67272932,1.558616677,0
0.002518086,0.274943624,4.087719796,18.34931332,5.721941812,0.018247253,1.228670522,1.622907476,0
0.001909424,0.274785326,4.081690716,18.27332979,5.749689593,0.023170378,-0.258695877,-1.449944489,0
0.001474496,0.272753482,4.095594862,18.53576283,5.760980279,0.010417646,0.423454396,0.218229594,0
-0.000400393,0.268576398,4.129900171,18.96831679,5.761031996,0.013195023,1.179816829,1.991936695,0
-0.000375981,0.290302574,3.727951789,15.63267628,5.804465812,0.039836084,0.010916503,-1.576346747,0
0.004271275,0.31751517,3.434473729,12.7825224,5.820315225,0.025471712,0.083576903,-1.256648192,0
0.001914839,0.312539644,3.512333954,13.19719419,5.784587588,0.019997782,0.099387265,-0.569875376,0
-0.002342769,0.301606605,3.638315864,14.32671167,5.755549731,0.018455108,0.446122079,-0.711543729,0
0.000822117,0.291227026,3.878082963,16.17013407,5.737983922,0.008365608,0.824234896,0.998774418,0
0.002546415,0.269918695,4.253282591,19.31372758,5.735455268,0.0061454,0.930780725,3.48214131,0
0.000670401,0.259731824,4.519979707,21.59464379,5.745534352,0.012360152,0.410212406,-0.785171961,0
0.001928238,0.27123096,4.37608671,19.95806654,5.749514062,0.010523024,0.130332936,-0.364310869,0
0.000677588,0.270942166,4.351980879,19.87468525,5.736556189,0.011666896,0.153185359,-0.398632185,0
-0.00201248,0.271536543,4.257674408,19.43232965,5.724925014,0.009190221,0.947676807,2.130021011,0
0.000961853,0.271628663,4.262764553,19.37760007,5.724204963,0.008269784,-5.271459232,132.6870817,0
0.001284132,0.251186505,4.714618178,23.74022503,5.723128074,0.008513597,-4.649290732,115.4072899,0
0.001197739,0.251738949,4.652776275,23.28256292,5.716289847,0.006431614,1.10200539,5.876344727,3
0.001223046,0.252124104,4.595243397,22.81083152,5.717785427,0.008090809,0.89339517,2.22803573,3
0.000509242,0.241655115,4.812083269,25.22332018,5.727788217,0.009496429,-0.012148965,0.476606325,3
0.001014849,0.254036954,4.58882731,22.73939225,5.736785017,0.007228824,0.753740646,2.257779156,3
0.003666321,0.259598828,4.500429099,21.65370197,5.741592407,0.007589145,-0.946261385,32.75868816,3
0.000251299,0.252977715,4.631641912,23.01706734,5.741130066,0.007294116,-0.83777298,37.79542382,3
-0.001328626,0.257480992,4.531493786,22.01961678,5.742397417,0.007046156,0.595260094,1.079637384,3
0.001015581,0.263015663,4.439081373,21.02200751,5.742027937,0.00728096,0.460414804,0.903023958,3
0.002999503,0.281195596,4.072482158,17.69495088,5.744413539,0.009901651,0.502896892,-0.298402099,3
0.002163659,0.291780521,3.839508069,15.9846884,5.7561403,0.009403458,-0.191944235,0.427682687,3
-0.002587208,0.295466631,3.801628044,15.81057363,5.76931245,0.012298574,0.76161979,-0.019417096,3
0.001151681,0.304959437,3.687722,14.68659881,5.782944434,0.011034928,-0.33953427,-0.179686094,3
0.002382366,0.292429392,3.875451012,16.16541485,5.785149929,0.00810288,0.147958533,1.158943199,3
0.001280947,0.279998443,4.058251461,17.86828512,5.795951353,0.016833995,0.078755178,-1.238693393,3
0.000267909,0.276006689,4.03150569,18.37480764,5.81061385,0.009498234,0.015985887,1.057070164,3
-0.005584508,0.292576193,3.717075197,15.90001286,5.848950904,0.045453577,0.597162755,-1.165147774,3
-0.001349769,0.302945343,3.629805286,14.44560779,5.90947816,0.033293318,-1.121419814,-0.068567174,3
0.006504737,0.284008936,4.013637371,16.9836918,5.931834194,0.008604334,0.072827283,0.114207378,3
-0.00028535,0.265667912,4.399245445,20.51701599,5.94106429,0.012539202,-0.261424473,-0.515710972,3
0.002010361,0.255371085,4.517885573,21.92187819,5.958718654,0.011511038,0.401404724,0.068819594,3
0.001447148,0.269214254,4.190030205,19.22585287,5.995965849,0.031918543,0.247461797,-1.46572483,3
-0.001402483,0.279272908,4.106791616,18.17183257,6.032207326,0.01466895,-1.353286333,3.432854305,3
0.003785117,0.26553987,4.39046088,20.41710511,6.043286187,0.007261884,-2.045912116,57.32640486,3
0.000315785,0.245827414,4.71720883,24.02414945,6.044220679,0.006357967,0.589629745,1.622749184,3
-0.001566336,0.236603748,4.836272725,25.69184904,6.041270229,0.005617514,0.742351332,2.778315215,3
0.003741858,0.248159717,4.588891631,22.91349311,6.045087596,0.006925761,0.433640561,1.29937032,3
0.001939721,0.249475488,4.576322885,22.81613235,6.050502723,0.008390519,0.654889249,0.879188319,3
-0.001732537,0.261786791,4.394280053,20.99781459,6.046610532,0.009882687,0.779471742,0.299874237,3
-0.000727897,0.270679736,4.253783383,19.57518036,6.043954413,0.008542672,1.09617752,1.489620513,3
0.002241381,0.268018625,4.308065337,19.89580845,6.055815942,0.012277777,-0.195356765,-0.852511118,3
0.004597556,0.267510077,4.345501734,20.02732227,6.062118694,0.007765608,0.060491645,0.628348629,3
9.30E-05,0.24925646,4.632142418,23.3194402,6.049246979,0.012524397,0.266681744,-0.70672985,3
-0.000826093,0.240005975,4.803450405,25.37862414,6.033449772,0.009033644,-0.321274552,10.44172589,3
-8.19E-05,0.250861524,4.604800431,23.030234,6.028453009,0.006999151,-0.62394712,25.20550095,3
0.000537382,0.260562604,4.421858177,21.03583906,6.027091163,0.007436314,-3.748327154,132.0086485,3
0.002262327,0.269793152,4.291044591,19.54423288,6.021228354,0.010171205,-1.370192274,33.3468866,3
0.003786732,0.26933085,4.302017111,19.59765424,6.011010742,0.010978869,1.066093685,0.90945728,3
0.000495464,0.249063345,4.676755614,23.60652602,6.002810124,0.006386553,0.493357685,1.628275031,3
-0.001242246,0.250481739,4.657082575,23.4061222,5.997268513,0.007907747,0.032644603,0.500756473,3
0.001751835,0.261514281,4.448307922,21.12554641,5.988438361,0.008274415,0.55330048,0.218819904,3
0.002080595,0.260554717,4.472049655,21.34161503,5.984679304,0.005713944,1.027401785,5.38824673,3
0.000333069,0.259723812,4.49122197,21.52136309,5.984915161,0.005809299,0.965248177,4.57852982,3
0.000954405,0.26046345,4.470728648,21.34023795,5.98308863,0.006275171,0.440862652,2.096582135,3
-0.000413603,0.271496217,4.225099515,19.1537785,5.97818549,0.008763692,-0.026564114,0.587549942,3
-4.85E-05,0.281956456,4.052391961,17.56301284,5.964597375,0.013306046,-0.092403187,-0.285237758,3
0.003947911,0.281435238,4.126460266,17.9258412,5.946080671,0.012817762,0.256813798,-0.544567751,3
0.002376205,0.271732983,4.31573358,19.58870901,5.932399477,0.00952321,-0.471755734,8.921861003,3
6.36E-05,0.262968865,4.447863273,21.09645801,5.919705909,0.011199626,-0.041420004,2.425658894,3
-0.00027647,0.252532006,4.601805945,22.89635568,5.913024303,0.007118527,0.501071679,1.066433174,3
-0.000269636,0.253021571,4.597633982,22.81551179,5.91573628,0.007158094,0.424408494,0.933888113,3
0.001319903,0.264387792,4.397112461,20.6588995,5.91656892,0.007499044,0.590913808,0.970038341,3
0.002509022,0.264562134,4.396825104,20.65145833,5.911221586,0.008810211,-2.222542419,79.21974723,3
0.000195177,0.263166659,4.376669133,20.65320278,5.912269374,0.010051315,-1.336549821,47.75237628,3
4.84E-05,0.271150759,4.204581466,19.09570102,5.927265494,0.012425878,-0.180197458,0.122619888,3
0.002580028,0.290247028,3.973108335,16.74195901,5.937498311,0.006989866,0.046197596,7.212515307,3
0.000805697,0.279919915,4.15980607,18.42147035,5.938549151,0.008193408,0.25184882,1.881860127,3
0.000900624,0.269591771,4.30023229,19.69054537,5.949895586,0.016052558,0.254261704,-0.367856036,3
0.002765808,0.270082946,4.30920845,19.63830639,5.949746432,0.015233085,0.581592007,-0.403863534,3
0.002141432,0.24989645,4.666269724,23.40749471,5.932586016,0.008071606,0.368008711,-0.034027795,3
-0.001126805,0.240761914,4.769853797,24.90041259,5.929497583,0.006067583,0.673665211,2.120345474,3
0.001057794,0.252266416,4.558262923,22.43497487,5.935202789,0.006922581,0.616899992,1.212381203,3
0.00158587,0.263765041,4.390431612,20.57720492,5.939976229,0.007130584,0.526819224,1.268706491,3
0.000372358,0.263252207,4.403059115,20.78134902,5.93898528,0.006879946,0.746797334,1.545133253,3
0.003098668,0.270880665,4.267782223,19.38820877,5.939341627,0.006145093,0.48222171,1.234902374,3
0.001655692,0.269935918,4.285647362,19.54430509,5.944755445,0.006683435,0.641139556,1.216448558,3
-0.001556965,0.26026645,4.483757805,21.4936416,5.943289621,0.008198608,0.228625111,0.689096073,3
-0.000744847,0.26060601,4.505121328,21.61626081,5.938747406,0.006805048,0.632745926,2.444008427,3
0.003285815,0.261184282,4.45605885,21.18504355,5.94137328,0.006855166,0.539100364,1.437037705,3
0.000650306,0.261914712,4.428092998,20.97383907,5.954151426,0.01288686,0.604516915,-0.435453787,3
0.001077556,0.261687952,4.457997947,21.23285607,5.96463138,0.009286096,-0.439405524,10.27486292,3
0.002739532,0.27201535,4.251963554,19.24186998,5.966401018,0.009431492,0.24749137,11.06864743,3
-0.000444659,0.281280834,4.038440836,17.34358345,5.971925899,0.012422747,0.294388233,-0.787174606,3
0.001119729,0.281750738,4.069557736,17.55987424,5.960503823,0.019944662,0.071899598,-1.122589715,3
-0.00061339,0.275179259,4.138181751,18.6472745,5.946917834,0.01232458,0.104839975,-0.8410621,3
0.000298946,0.256091161,4.379940127,21.49568728,5.950770678,0.009903561,-0.44994487,0.448081187,0
0.00268568,0.255510118,4.500817799,22.0342835,5.953942108,0.006461815,0.852063792,1.849638168,0
0.002591518,0.265931519,4.342604284,20.2162316,5.954096821,0.007159264,0.509403617,1.299007763,0
0.001774011,0.27580078,4.150327894,18.53353038,5.950328554,0.008642268,0.377261897,0.358764159,0
0.000762817,0.274792699,4.143871906,18.63188855,5.952007675,0.009086446,0.160686564,-0.109691263,0
0.000820234,0.285870152,3.812594548,16.11254959,6.043449184,0.097032959,0.295369049,-1.811033839,0
-0.005580316,0.293788804,3.422781217,13.33987023,6.128631755,0.066187599,-0.609223415,-0.464995793,0
0.00247845,0.293268404,3.470873394,13.85642689,6.078810229,0.071851407,0.938847794,-0.451485,0
0.001049587,0.287210662,3.758906304,16.03696416,6.070054572,0.047455145,0.302334366,-1.058283084,0
-0.001968181,0.282323418,3.855361547,16.7173871,6.104084614,0.027228231,0.417378914,-1.118497158,0
0.002854425,0.300736219,3.69576093,14.80292099,6.109101977,0.018587515,-0.177321556,-0.709340273,0
-0.002237385,0.294925492,3.835508021,15.81173252,6.123933029,0.010259908,-0.171378572,0.604760493,0
0.000172675,0.296830683,3.824885688,15.66041277,6.129765756,0.008540134,0.322174316,0.55805722,0
0.002723818,0.299105498,3.770593353,15.21625013,6.116891697,0.015832507,-0.067992913,2.16126954,0
0.004502439,0.298102425,3.780614226,15.33020269,6.106917844,0.008024224,-1.312736346,40.97157415,0
-0.000780422,0.290683093,3.893710151,16.37576647,6.123597554,0.015801142,0.38684843,-0.819791137,0
0.000820934,0.280028546,4.037817812,17.78118433,6.119952992,0.019432748,0.157545986,-1.139838897,7
0.002592172,0.279889686,4.031629547,17.74728292,6.100113732,0.0091381,0.642554198,1.618453138,7
-0.001067675,0.272317286,4.135384835,18.84704709,6.094188091,0.009386584,0.37761541,0.503574802,7
0.000499139,0.271410129,4.18538048,19.15647194,6.089982496,0.012382592,0.414548033,-0.304871715,7
0.000661102,0.282193698,4.054704064,17.74644902,6.103685706,0.018806105,-0.445953074,-1.097006049,7
-0.005186848,0.294757582,3.900293713,16.29636528,6.127864402,0.023758861,1.810468961,2.412005681,7
-0.000199448,0.284058722,4.018756714,17.53716879,6.172278922,0.041476998,-0.470322661,-1.49466026,7
0.006209924,0.271182359,4.191777017,19.16709419,6.209748622,0.007100976,0.60689943,4.592490785,7
0.002532035,0.271628242,4.153697562,18.82047115,6.222853742,0.012811633,0.0965193,-0.653787286,7
0.004529146,0.271256917,4.167363627,18.85119908,6.238012423,0.008784342,0.422941105,0.791084346,7
-0.000749595,0.252501316,4.441205755,22.16942953,6.248221043,0.009846942,0.192036171,1.945870341,7
-0.002422525,0.254630542,4.323364722,21.36990197,6.251823534,0.007919374,0.623344624,7.894837309,0
0.000983492,0.263152561,4.215607028,19.86458346,6.254988698,0.00950648,0.308734558,2.765450143,0
0.001391778,0.252273021,4.424504943,21.98738184,6.263808223,0.008930712,0.45902671,2.006071914,0
0.002272751,0.25365518,4.387820583,21.66428278,6.273270689,0.014084584,0.917713506,0.350840182,0
0.000293577,0.24322242,4.487787593,23.22556687,6.288030079,0.014649895,-0.571851897,-0.834505782,0
0.000762896,0.245964875,4.364210473,22.2095631,6.299270248,0.007080967,0.715599842,2.371137547,0
0.001218292,0.256943309,4.245492587,20.58889857,6.301703862,0.006839471,0.764108809,4.901888112,0
0.001852838,0.266214119,4.133780243,19.39667201,6.309217998,0.011224329,-0.297818342,13.01693602,0
0.001239696,0.265917596,4.136348387,19.38114253,6.302731759,0.017249978,-0.172676831,0.917356581,0
-0.000713183,0.255926168,4.309731747,21.08124194,6.283513369,0.009670212,1.143130591,2.170622396,0
0.001206142,0.257495063,4.230831478,20.50824793,6.273398808,0.010222587,-0.03251787,0.847601747,0
0.002898972,0.257338539,4.217965738,20.33882619,6.256110219,0.015553563,0.468957322,-0.194879945,0
0.000970217,0.246557157,4.362076564,22.12039768,6.237857437,0.009819933,0.481220753,2.239851158,0
0.000894019,0.247234575,4.342352393,21.94873314,6.221793093,0.013137123,-0.043934209,0.021280475,0
0.000983858,0.247955093,4.340847489,21.9770027,6.202700697,0.012799878,0.179598572,-0.140943181,0
-0.001073305,0.250028338,4.276086677,21.48121445,6.188608115,0.009687882,0.533833634,1.084806655,0
0.002265414,0.261329259,4.11529966,19.51124865,6.180143847,0.007789079,0.76291866,3.144860361,0
0.002100128,0.259962567,4.201192518,20.13641471,6.175260544,0.006990805,0.817046177,5.76869329,0
0.002273352,0.269892807,4.070129545,18.71335442,6.170567976,0.00855633,-0.477258599,12.33643799,0
0.002940667,0.25760344,4.174401307,20.20206661,6.172154617,0.008874023,-0.714951253,10.53985066,0
-0.002220625,0.233789708,4.580824198,24.85936032,6.173338318,0.007141993,0.663460967,2.673409743,0
-0.000383416,0.247441681,4.403648609,22.42489417,6.171920122,0.007752362,-4.760506661,185.3985051,0
0.000225141,0.249039774,4.33532362,21.90883832,6.169313812,0.009152485,-2.758281382,91.42498399,0
0.002396216,0.249795479,4.287118293,21.58176351,6.161045347,0.008052724,0.693995132,3.765955723,0
0.004076124,0.261208441,4.140245503,19.70578165,6.151638303,0.010428166,0.104503473,1.64464247,0
-0.002224104,0.261201377,4.194603674,20.15318938,6.157120895,0.018350228,0.416030529,-0.791014347,0
0.002077279,0.268274117,4.1176106,19.09820003,6.15622624,0.018510303,0.532899564,-0.790082428,0
0.001637303,0.258865088,4.241648698,20.50576724,6.138729749,0.008945933,0.496203196,2.657502053,0
-0.00196293,0.249109521,4.377262184,22.22602534,6.129586411,0.007835375,0.610369804,3.025361196,0
0.001130317,0.257943921,4.236573366,20.49422439,6.120690645,0.008108377,0.569396702,2.062215311,0
0.000219916,0.258883857,4.205309278,20.21456195,6.112449918,0.007014,0.711303247,3.747007195,0
0.001038345,0.259229064,4.219468502,20.31772798,6.105213111,0.007476137,0.450450501,2.014549893,0
0.006049406,0.268565652,4.116227466,18.92048753,6.098985345,0.00709939,1.146385058,6.543997258,0
6.83E-05,0.256807719,4.259836682,20.66993382,6.096835273,0.006913378,-0.023990529,35.89737136,0
-0.004055498,0.258910161,4.175840221,20.28745781,6.121374948,0.033939872,1.174364015,0.375933399,0
0.001929252,0.280607299,3.935387833,17.39192948,6.172574071,0.036073289,-0.639815108,-1.076372284,0
0.00147377,0.268769128,4.126190916,19.21534132,6.191186578,0.01261523,-0.093785784,1.848589106,0
0.00064085,0.255450611,4.29671231,21.09008146,6.148027911,0.038380772,-0.273354026,-1.51183731,0
0.001705314,0.255813449,4.205393256,20.36848362,6.109799848,0.022698242,0.43630373,-0.9247357,0
0.003553214,0.269444121,3.995470019,18.19464117,6.13128188,0.032532823,-0.206231833,-1.169890611,0
0.002945709,0.271189687,4.027362395,18.33739832,6.137123762,0.023480851,0.396621122,-0.092131511,0
-0.000214704,0.262039931,4.152194287,19.76881715,6.119072069,0.009770833,-1.214543173,27.02534333,0
-0.003327837,0.272268993,4.044729644,18.44579743,6.132645416,0.015934726,-0.099450859,0.625727467,0
-1.77E-05,0.274144831,4.038157156,18.06032323,6.155921064,0.015519699,0.57677448,-0.280733794,0
0.002999496,0.271148186,4.09825349,18.57838969,6.181196921,0.019650325,0.208108457,-0.070060674,0
0.002158539,0.284453226,3.920652214,16.93424036,6.208048957,0.021930498,0.355474639,-1.22282454,0
0.002421138,0.272421018,4.116028422,18.73404129,6.206724058,0.022242073,0.359862828,-1.125639458,0
-0.001116839,0.252199362,4.499955651,22.56519488,6.180008044,0.016133217,0.433292296,-0.76674132,0
0.001195803,0.264124632,4.31424487,20.42926303,6.164083808,0.007079592,0.682730289,2.919541746,0
0.001621425,0.2632591,4.323413485,20.50336087,6.157796642,0.007010721,0.662697299,2.290984949,0
-0.000258597,0.277488993,3.905857764,17.35682374,6.174396351,0.027619452,0.870813687,-0.618935598,0
0.002101528,0.300511592,3.555528886,14.26849363,6.207492774,0.024006195,-0.790229984,0.117101704,0
0.001509391,0.298420899,3.65627086,14.78807879,6.22609411,0.011859065,0.086902186,0.536469319,0
0.000522727,0.305507069,3.590805692,14.07733722,6.218973487,0.018104991,-0.368684548,-0.4685193,0
0.000505927,0.294115498,3.745229366,15.46991777,6.215366745,0.026655082,1.32066158,1.802928671,0
-0.000772254,0.272056857,4.103849487,18.62461961,6.205408914,0.029899945,1.525467335,1.816865805,0
0.00051076,0.270517306,4.173329112,19.0255128,6.185024043,0.008462866,0.421521256,0.847560499,0
0.001555644,0.260938714,4.321174283,20.59154704,6.179113933,0.009019091,0.88642288,1.20558723,0
0.004518042,0.263975358,4.230941576,19.89189619,6.181957245,0.011804114,0.719249582,0.033923838,0
0.003416866,0.26457914,4.201279186,19.64254644,6.192835399,0.009558911,-0.556819034,1.418128728,4
-0.002930106,0.253270136,4.428992306,21.92113837,6.192331096,0.006661836,0.375331639,1.811020447,4
-0.001296007,0.276000554,4.007565813,17.84711376,6.212835748,0.033913065,1.11156203,0.252193601,4
0.001985419,0.290975607,3.718594003,15.17359745,6.235572379,0.024227934,0.513579759,1.528527626,4
0.000444953,0.27619794,4.04573484,17.81543335,6.222370093,0.014235245,0.254241115,-0.620123993,4
0.00120146,0.257460888,4.466999653,21.8668744,6.202659607,0.010850545,0.074416265,-0.256162128,4
0.002653551,0.247424252,4.479893232,22.6108074,6.194873592,0.008592757,0.441074945,0.282803316,4
-0.000119143,0.2510234,4.369604344,21.63447508,6.187495967,0.011868442,0.417329057,-0.086958073,4
0.000871419,0.253059939,4.436007911,22.06773165,6.169900404,0.013493425,-0.22083872,-0.190626445,4
0.004036305,0.250842405,4.453409161,22.25260385,6.156980787,0.008882419,0.294424119,-0.0133976,4
0.003645303,0.250348,4.435921655,22.08246223,6.154020745,0.006772577,0.561863117,1.431855607,4
-0.001570783,0.252293627,4.438644396,22.08782075,6.158120346,0.007736059,-0.032923252,-0.117479173,4
-0.00085817,0.251164066,4.456306759,22.22714104,6.157702582,0.00851948,-0.220182073,0.470775936,4
0.002071963,0.250827449,4.45090621,22.19822235,6.148036303,0.008854507,0.646801468,0.709488279,4
0.001034356,0.25107818,4.467361714,22.35362021,6.140612738,0.005923066,0.74465083,3.126103756,4
0.000453938,0.25029411,4.460173069,22.31209679,6.137436131,0.005659422,0.979460084,6.567214431,4
0.000298318,0.262193702,4.293488538,20.35137545,6.139611053,0.00714115,0.887233258,4.392579543,4
0.001677671,0.261302974,4.353341504,20.84349904,6.13601799,0.00920229,0.58063245,1.079257354,4
0.004266717,0.268734776,4.235408687,19.45440471,6.130049024,0.00547315,1.159727113,6.782030323,4
-0.0015048,0.259392548,4.353935715,20.8895578,6.130438287,0.005305496,1.063758658,5.666005863,4
-0.000701471,0.249235101,4.497357081,22.59754369,6.130166789,0.005488832,0.929811815,4.069820011,4
0.003338588,0.259630423,4.366368055,20.87569354,6.128101839,0.006218169,0.555011084,2.107952483,4
-0.001449568,0.238325516,4.665899175,24.72758213,6.123972375,0.005875614,0.608789282,1.442641904,4
0.000939913,0.238731895,4.611105255,24.3210042,6.126072747,0.008386375,1.314597604,2.640347647,4
0.003839414,0.24965069,4.462308458,22.31183808,6.138402993,0.011261111,-0.016372715,-0.387945592,4
0.000636115,0.2498789,4.434465934,22.11180834,6.144706181,0.006180458,0.84334216,5.110448126,4
-0.001162641,0.25095577,4.421091489,22.07396192,6.143430328,0.005623933,0.758805665,4.128050413,4
0.000650986,0.250264829,4.482034461,22.49121166,6.147607749,0.006521985,0.596307849,2.590416427,4
-6.88E-05,0.250537792,4.468221462,22.32987505,6.150483377,0.00687183,0.631826865,2.779474817,4
0.000623108,0.250191946,4.460612552,22.31190257,6.145868465,0.00783533,1.01296652,2.727595583,4
0.000625214,0.250298111,4.438239115,22.17306421,6.144612067,0.00729721,-0.016277692,25.64437866,4
0.003333742,0.256360604,4.346228189,21.03060326,6.149605615,0.007662447,-0.613835311,21.48152388,4
0.002693305,0.271820579,4.151307408,18.7962715,6.15199792,0.006271624,0.450019116,1.478188827,4
-0.00287112,0.264900893,4.277568363,20.07307408,6.156225967,0.007043081,0.25975591,0.931983754,4
-0.00199258,0.258607819,4.394676051,21.20903128,6.154479272,0.008136209,0.206016591,0.047426087,4
0.004031348,0.279857412,4.01345533,17.39633991,6.154150881,0.008874797,0.407537908,-0.173000232,4
0.003050432,0.288703472,3.891079319,16.25220082,6.160740389,0.007504555,0.038465357,1.234166667,4
0.000616496,0.286053117,4.019939394,17.17761255,6.164749091,0.006753865,0.052886688,1.409246756,4
0.001755936,0.266093111,4.30964048,20.13003236,6.167545101,0.005143462,0.414028041,3.573355286,4
0.000480855,0.24623018,4.579459732,23.42589931,6.167693492,0.005148027,0.64279648,3.610602142,4
-0.000982949,0.247378218,4.520186076,22.86803876,6.170328031,0.005760103,0.585797432,3.378502823,4
0.000444672,0.259980057,4.33515101,20.73375229,6.168930217,0.006673399,0.509281672,2.732096233,4
0.002448597,0.258340117,4.336461849,20.74241104,6.168500628,0.006564519,0.695255652,3.622677639,4
0.000872105,0.246749581,4.420500377,22.09907249,6.170400238,0.00570308,0.819562307,3.679691294,4
0.002833047,0.257720881,4.320346975,20.71599933,6.168533162,0.005588828,0.624270464,1.583096396,4
0.003026773,0.257027966,4.386117744,21.14519533,6.168942915,0.005935122,0.641637071,2.479989064,4
0.000829095,0.24734009,4.493236772,22.66149051,6.170338058,0.006231014,0.706683972,3.007319204,4
-0.000508726,0.247108223,4.519874941,22.90911295,6.169937243,0.005939097,0.940890762,3.873131235,4
0.00135689,0.258006373,4.355896866,20.90168993,6.176773943,0.011900798,0.777422968,-0.415791037,4
0.003522034,0.267291821,4.232056867,19.41664148,6.190782547,0.011371419,-0.490971367,-0.174162698,4
-0.002083655,0.257080328,4.440612085,21.59242408,6.197687095,0.006229615,0.533048484,2.216991619,4
0.001613977,0.255785324,4.425073561,21.4960341,6.200381742,0.006214145,0.907997721,3.711438373,4
0.002275046,0.256917686,4.385622686,21.21340741,6.203997149,0.006422819,0.678508547,3.473718983,4
0.000713608,0.257178167,4.315201012,20.78776597,6.212478202,0.008929259,0.035244895,-0.023216383,4
0.003165429,0.265328416,4.198481986,19.36009166,6.220098278,0.005562864,1.153443506,9.080634543,4
-0.003487773,0.245229422,4.566316994,23.34324555,6.223145131,0.006468162,0.869253393,4.932722828,4
0.002370922,0.244182585,4.585497856,23.41453835,6.227337102,0.00634614,0.778619939,4.137546934,4
0.002413958,0.246344765,4.538170009,23.05217722,6.226442228,0.006180093,0.821510921,4.148661132,4
0.000403689,0.247883094,4.493675845,22.69321396,6.223531069,0.005582932,0.665136371,2.878105165,4
0.004391484,0.258294637,4.316162848,20.58815489,6.224910409,0.005834852,0.612585815,2.746643446,4
-0.001793492,0.248806777,4.461671243,22.43508896,6.220790591,0.008234513,-0.566722386,12.06140027,4
-0.002104987,0.249144703,4.465296341,22.48179524,6.218665368,0.007478375,-1.359488615,37.35362397,4
0.000771476,0.247827867,4.496339806,22.68306992,6.218389075,0.007389351,-0.498999458,21.29892502,4
0.000668008,0.247805793,4.499089774,22.7099594,6.213137926,0.006058872,0.691115472,1.925453749,4
0.001025633,0.249089907,4.463598073,22.36941248,6.21016001,0.005654793,0.777922584,3.019137023,4
0.001335689,0.249117566,4.440492485,22.15603331,6.211245401,0.006050938,0.724698874,2.339964173,4
0.003612285,0.259697636,4.273648832,20.25903861,6.214935793,0.00576938,0.802389954,3.977042938,4
-2.51E-05,0.259665543,4.285416399,20.38936502,6.21688118,0.005530796,0.964754754,6.313822238,4
-5.28E-05,0.258680491,4.335281106,20.75060041,6.217733547,0.005542246,0.84290241,5.298478124,0
0.0029054,0.258760571,4.344623545,20.80781022,6.223560715,0.010461734,0.35522964,-0.830572379,0
0.00154335,0.252129504,4.307112186,21.17572023,6.240962274,0.016337672,0.156016772,-0.050975389,0
0.00119131,0.275078962,3.967439084,17.66823569,6.258277294,0.013553272,0.278957938,-0.725347337,0
0.00021152,0.270962733,4.085832412,18.52643465,6.25998655,0.010431391,0.808341231,0.481146628,0
0.000501735,0.245991798,4.527052027,22.99372226,6.25288353,0.006626137,-1.18344924,38.60014767,0
-0.00083502,0.247423386,4.539371172,23.07075704,6.249837276,0.006136734,-1.285988868,48.87281433,0
0.000551847,0.24820498,4.435879232,22.1456567,6.255724716,0.008536787,0.229517693,0.55287324,0
0.003388877,0.259599445,4.230489391,19.97526207,6.259601321,0.006220648,0.706946678,4.97059106,0
0.000430716,0.249143598,4.43311808,22.18864731,6.257661819,0.005775211,0.978365879,6.985679908,0
0.000448131,0.248057366,4.45448363,22.36670941,6.257774626,0.006038564,0.819562554,4.367933099,0
0.002242545,0.260007421,4.245529395,20.09760961,6.262436022,0.007587036,-0.999430311,24.18669047,0
0.002308953,0.260232068,4.252583849,20.13881611,6.265479006,0.006359064,-1.730077009,53.54773144,0
0.001870488,0.260051938,4.287519628,20.36593065,6.269594138,0.008275515,0.08521325,0.085620095,0
-0.001309662,0.250361748,4.450393777,22.25372135,6.274008887,0.005512613,0.850901264,3.202238574,0
3.50E-05,0.262998022,4.199906722,19.72979669,6.28130128,0.01041599,0.231279131,-0.813128415,0
0.00421705,0.293023231,3.748069309,15.39084169,6.293770054,0.008843594,0.335552989,1.3254197,0
-7.52E-05,0.281727764,3.943982428,17.18780685,6.295381165,0.008102254,0.633524467,1.080809829,0
-0.000969785,0.259897393,4.356291597,20.90814046,6.29144249,0.006029968,1.075516569,4.625227989,0
0.00196359,0.260722711,4.312346118,20.51210173,6.291817474,0.005649104,0.89099916,5.469197819,0
-0.000721429,0.252769146,4.347416037,21.37272696,6.296030807,0.006046674,0.734238077,3.882399211,0
0.00270176,0.264887628,4.175914772,19.40884239,6.298987416,0.005555137,0.754742505,5.379428102,0
0.00242981,0.263659159,4.23324093,19.8592848,6.298475647,0.005522647,1.192635801,9.948878058,0
0.000697423,0.262145274,4.258792584,20.10616682,6.299713898,0.006239433,1.075999538,6.864098891,0
0.001065183,0.262692956,4.236690936,19.95698454,6.302718299,0.005594448,1.155445502,7.392085532,0
0.001498221,0.261632973,4.307083584,20.47159999,6.301226262,0.005751247,0.419305217,21.02848787,0
6.83E-05,0.260416325,4.324800429,20.61565888,6.299342074,0.005443932,0.159736687,21.96284444,0
0.000100276,0.261554556,4.263025678,20.17094039,6.298085839,0.005539189,0.720127188,3.867859895,0
-0.000280204,0.26120947,4.313556145,20.55951767,6.293695123,0.006798548,-6.169216142,241.9293457,0
0.001574092,0.26985718,4.171547991,18.98408157,6.291801398,0.006369118,-7.463041376,303.5813175,0
0.002553177,0.27025582,4.147934158,18.78440422,6.288594927,0.007265159,0.328207347,0.617046868,0
0.002019908,0.271377259,4.114672521,18.64970569,6.29695925,0.034705561,3.866050145,15.33162866,0
-0.002595442,0.293977893,3.749174054,15.46450716,6.401465552,0.101762757,0.073885595,-1.681278464,0
0.001586262,0.300635558,3.533354737,13.91472558,6.47040596,0.039584149,0.646179207,-0.742061922,0
0.005388264,0.301062056,3.51994364,13.49329722,6.464572089,0.022182358,-0.474189303,-0.138107812,0
-0.002867647,0.290560966,3.551822181,14.48669056,6.478918239,0.023810229,0.131746508,0.212707027,0
-0.000602469,0.292030913,3.58129815,14.79949661,6.445519257,0.038507231,0.838295607,-0.474698635,0
0.000146406,0.297138231,3.742530731,14.98169642,6.39937221,0.018808445,-0.242111474,-0.88033468,0
0.001059167,0.285713347,3.954881456,16.70960853,6.366007069,0.021728804,0.043765972,-0.981558727,0
0.004255999,0.285531406,4.066482933,17.34357253,6.340980366,0.012518968,0.453928871,0.098745082,0
0.002748786,0.277592074,4.238406794,18.74307579,6.325260544,0.01135744,0.211418312,-0.650241761,0
0.000419684,0.269240451,4.381557073,20.16326286,6.3135346,0.006984758,0.588139776,1.557262118,0
0.000420731,0.267696681,4.40515058,20.36840736,6.312502016,0.006033333,0.652130248,3.078328112,0
-3.44E-05,0.267510455,4.414372507,20.41484245,6.315932247,0.006020133,0.61248896,2.674423519,0
0.000403918,0.27748525,4.267905233,18.87089369,6.31671524,0.0064316,0.385551263,2.021632151,0
0.002019196,0.277258333,4.274837131,18.93722633,6.312791225,0.006897598,0.735700241,2.234886447,0
0.000584878,0.268062056,4.407207857,20.39378759,6.306945855,0.006306081,0.734408652,4.100618706,0
0.000370364,0.268247521,4.413514194,20.41054818,6.304537637,0.005724541,0.584135478,1.427141434,0
0.002591165,0.267773559,4.414192057,20.38766581,6.303014537,0.00573151,0.513261839,2.199094041,0
0.001093866,0.258904292,4.55389809,21.89373916,6.300671387,0.006015948,0.523654574,2.287281476,0
-0.004329764,0.271019635,4.281481465,19.62440892,6.310214996,0.020335899,2.744800846,8.777578461,0
-0.002517347,0.283783691,4.046515514,17.70163257,6.436826379,0.121692643,0.113283955,-1.798007872,0
0.006359913,0.293436729,3.862565987,16.14102997,6.598011889,0.057079037,-0.830115274,0.433488505,0
0.000862106,0.280888038,4.047857838,17.7251744,6.668707493,0.03205379,-0.492503083,-0.793698035,0
-0.002870813,0.264776346,4.372411125,20.24011714,6.689277485,0.012383976,0.013679117,0.701308738,0
0.00345745,0.270864804,4.27838307,18.97272445,6.683409064,0.00677166,0.720510659,2.204395518,0
0.004422618,0.271483145,4.273332822,18.95708801,6.68031796,0.006810658,0.384674231,1.284088975,0
0.001337906,0.268851864,4.347044448,19.72869796,6.678079932,0.006745533,0.474730873,0.9520151,0
-0.001696243,0.264152491,4.45094375,20.751273,6.681959098,0.007837067,0.213547891,0.240008591,0
-7.83E-05,0.26951897,4.359683197,19.83623984,6.694226292,0.010565793,-0.153050862,-0.799262604,0
-0.000464316,0.288748998,3.961334243,16.75883594,6.711229542,0.014735669,1.288834511,0.835763536,0
0.000388648,0.281804527,4.03224098,17.78797654,6.74585762,0.029133849,-0.304277887,-1.464058581,0
0.005143681,0.289246924,3.936051016,16.49640517,6.775007302,0.011282999,1.084336709,1.299448946,0
0.00021014,0.297072306,3.808127151,15.35309618,6.795950644,0.022156609,-0.056654934,-1.283173354,0
-0.001540584,0.277882881,4.162011836,18.46381159,6.814172908,0.009425282,-0.23682058,0.164013426,0
0.000828212,0.285004888,4.044779363,17.28572992,6.812913023,0.006031665,0.409853509,2.09265087,0
0.001537785,0.292211991,3.88742529,15.99805505,6.813693292,0.007755517,0.268260711,0.421289013,0
0.002584952,0.293155706,3.903887338,16.06932465,6.814037922,0.008798946,-0.136675617,0.354316533,0
0.000333298,0.285576333,4.00770028,17.10042737,6.809344591,0.007950571,0.19147517,0.53307653,0
-0.002358738,0.298284221,3.828667908,15.54853508,6.812655204,0.018753849,1.559973486,1.753548207,0
0.000907104,0.318348213,3.563610653,13.2478672,6.85614515,0.041488199,-0.336881568,-1.560492146,0
0.004840387,0.313489979,3.49074079,12.77348412,6.897844805,0.010078161,0.416716543,1.646597135,0
0.001570666,0.300585275,3.605088511,13.72858975,6.910602406,0.011800377,-0.165069781,-1.0220091,0
-0.000777819,0.293746644,3.748001075,15.00632617,6.924161312,0.00920753,0.387048388,-0.122056258,0
0.002554746,0.283362262,3.922291667,16.48729843,6.932144002,0.00773847,-0.428536437,1.011423947,0
0.002859669,0.27151475,4.176073856,18.55343586,6.935204261,0.00505206,-0.357053085,16.4385957,0
-0.003968523,0.284765027,3.928496714,16.58952759,6.948045894,0.025338427,2.105248545,3.906190688,0
-0.000777734,0.315596136,3.456588443,12.74689471,6.958997018,0.024175544,1.309548876,1.908739261,0
0.002424532,0.342603865,3.078517849,9.968195977,6.94860333,0.014689807,0.555161896,0.212090437,0
-0.001150144,0.357921779,2.705627378,7.912010751,6.930096545,0.013810733,-0.405255305,-0.307841406,0
-0.000593288,0.363215055,2.522525962,7.006945058,6.929003579,0.0213359,1.214810948,0.897987141,0
0.002273876,0.358037734,2.543762183,7.249452713,6.964596449,0.03251482,-0.540058001,-1.339879716,0
0.004281326,0.35775887,2.582658507,7.4785493,6.997471074,0.009273947,0.54315394,0.652969145,0
0.004349945,0.355320245,2.690463486,7.980936814,7.016756221,0.015687909,0.142898231,-0.922836629,0
0.001959013,0.349667275,2.752579369,8.358445395,7.04446204,0.016995969,0.096610823,-1.261402142,0
-0.000352347,0.341350406,2.840257539,9.008292922,7.070927266,0.015541183,-0.076316567,-0.864632126,0
-0.001400646,0.327978372,3.056709016,10.48971784,7.086214011,0.008810123,-0.803621209,1.958823253,0
-0.000551004,0.323960867,3.196127471,11.26128002,7.08450688,0.007515097,0.335038109,1.209356003,0
0.002186685,0.332380937,3.047706805,10.2098166,7.080908312,0.012568421,1.008431527,0.78680528,0
0.001537955,0.337381695,2.93207419,9.580420198,7.099290303,0.021445799,-0.460925421,-1.188079143,0
0.001241246,0.343724569,2.912075773,9.435154733,7.110303988,0.00994643,-0.19693023,2.114845702,0
0.001314933,0.335845894,2.968529407,10.00891391,7.097537231,0.01018408,0.361945755,0.098470712,0
0.000223068,0.326244321,3.018326376,10.55900465,7.085088948,0.008932764,0.133417055,-0.108228559,0
0.000270617,0.332516823,2.995968888,10.15163001,7.080465535,0.0068227,-0.487829701,15.92759107,0
0.002821557,0.32292016,3.096955037,10.9156362,7.081002917,0.006332548,-0.680113149,21.99490169,0
0.000756572,0.322687785,3.123180449,11.13878509,7.074490956,0.00903275,-0.140396768,0.015247633,0
-0.000151579,0.309869814,3.319895623,12.62891051,7.064473343,0.007614182,0.687541123,1.448669219,0
0.000781102,0.300264406,3.452083717,13.70051388,7.059519468,0.005183887,1.008955242,8.345676714,0
0.001888471,0.300591047,3.419933645,13.48243794,7.062612425,0.006905364,0.601275091,1.707965374,0
0.002537489,0.289404317,3.552859402,14.64897174,7.072495161,0.008166192,-0.054283318,0.076674699,0
0.000689144,0.278576516,3.768942678,16.44000368,7.076550838,0.007159069,-0.246111065,1.619981898,0
0.000433463,0.267753108,4.001510856,18.51153928,7.064397267,0.012904984,0.148480698,-0.743605633,0
0.001368282,0.267474876,3.981836251,18.44785426,7.051230785,0.006793968,0.823685632,2.539789181,0
-0.000880796,0.289838333,3.628582091,15.12505261,7.045586341,0.005952717,0.496636165,4.84221351,0
0.000961977,0.302875527,3.390141315,13.28744433,7.037533188,0.008429937,-0.129204241,1.428441559,0
0.003077447,0.303599608,3.350567956,13.0984402,7.024209268,0.010368372,0.341998645,0.128379204,0
-0.000699476,0.313778814,3.211519618,11.964743,7.014343643,0.006356622,0.268135417,2.613291018,0
0.000889951,0.313827142,3.167037557,11.70954864,7.01739878,0.008595953,-2.386290097,65.91221736,0
0.001733061,0.313328913,3.216765676,11.99228902,7.019418934,0.007349217,-3.901507596,128.4817961,0
0.0018887,0.302427767,3.356417126,13.18040464,7.008298002,0.010361614,-0.029914301,-0.848519033,0
0.000934525,0.301529989,3.392751812,13.33677138,6.995711899,0.00790994,0.024371766,11.95380863,0
0.000394409,0.300988924,3.405169377,13.42332039,6.987280927,0.00708363,0.19095971,17.12625621,0
7.90E-05,0.299730761,3.373640223,13.32017976,6.995459311,0.017223709,1.056776645,0.056454801,0
0.002023106,0.319920892,3.1654577,11.51496998,7.038659395,0.039768617,0.63301054,-0.608573759,0
0.004351227,0.341754792,2.8967528,9.430794124,7.090633174,0.031124204,-0.760687843,-0.956987475,0
-0.000647624,0.365374854,2.482483307,6.995452722,7.111018535,0.008028115,0.234957932,1.32957564,0
-0.000627372,0.387632905,2.0301296,5.099130955,7.097779465,0.017449488,-0.676901193,-0.278717572,0
0.005316775,0.383080201,2.000758808,5.122979624,7.0734375,0.017125941,0.490927331,-0.642081156,0
0.000162179,0.362932966,2.25836312,6.295441497,7.066999435,0.009089076,-0.319940765,1.078648938,0
-0.001161503,0.376284211,2.094270358,5.554330205,7.08171839,0.013346887,0.407235963,-1.014445293,0
0.001999093,0.368604317,2.128291431,5.830747019,7.184593528,0.101282718,0.257183724,-1.693779022,0
0.000729701,0.339433757,2.540666318,8.059068817,7.272871562,0.042393887,-1.337630688,4.376567874,0
-0.000297566,0.351801364,2.620856167,8.083046645,7.239602334,0.034729818,0.414651751,-0.621876303,0
0.002620625,0.379943038,2.390835781,6.366179212,7.211889267,0.013600179,0.031610444,-0.295021447,0
0.001266233,0.395550715,2.19667197,5.252759428,7.212610081,0.011682152,-0.53881427,0.770014054,0
0.002564968,0.397146518,2.046829065,4.679239276,7.198804092,0.017203917,-0.095704705,-0.91253998,0
0.002131066,0.392141393,2.008920193,4.699038948,7.175796509,0.01255852,0.308675688,-0.238070985,2
-0.003112113,0.391500228,2.107287478,5.109564854,7.165027509,0.007091301,0.339729216,3.452930571,2
-0.001705804,0.395408154,2.119227348,5.045518221,7.165140097,0.007964539,0.468977884,1.068470024,2
0.003463858,0.394773681,2.068606183,4.880737379,7.166666521,0.009021206,0.213585629,0.406123502,2
0.005491287,0.384897185,2.100873866,5.252877544,7.155314418,0.014162063,-0.118601698,1.541541829,2
-0.001356733,0.355194649,2.332072974,6.885257986,7.139568274,0.009566704,0.339603777,9.745632892,2
-0.001398331,0.336098723,2.623020658,8.622305277,7.136167908,0.006976105,1.314054042,13.88195684,2
-0.000750255,0.341259564,2.657226999,8.618856257,7.128355626,0.011852661,0.07681221,-0.154113577,2
0.000509504,0.347735858,2.516706955,7.86343209,7.112826429,0.009198709,0.825246721,2.334226911,2
0.003814774,0.350855256,2.417158733,7.339115595,7.096541214,0.012956864,-0.39209997,-0.616426404,2
0.002722222,0.35172825,2.372136669,7.194043682,7.077380317,0.012589358,0.483816159,-0.334624756,2
-0.000229209,0.350506756,2.419402207,7.454224511,7.064351,0.007778759,0.603046687,1.772665973,2
0.001923111,0.344986911,2.527401856,8.007531261,7.061935425,0.006796062,0.725650747,4.628440514,2
0.001548647,0.331441597,2.726472327,9.259457261,7.059731184,0.007893376,0.409099823,2.334603863,2
-0.000374778,0.336848836,2.647698174,8.756609904,7.06652516,0.012848504,-0.134078159,2.54839526,2
-3.51E-05,0.356251697,2.351889053,6.972434319,7.075056131,0.007564059,-0.946652522,35.67300945,2
0.001810534,0.360429327,2.249980969,6.483860126,7.074414662,0.006851259,0.662127916,3.244862787,2
0.002518956,0.344316936,2.416930213,7.586867197,7.072120558,0.007384132,0.628108503,2.417097691,2
0.001503381,0.349792449,2.391044605,7.269246737,7.065452358,0.00699322,0.891872139,7.097014404,2
0.005488959,0.349472013,2.428139965,7.405613394,7.062220655,0.006116462,1.242319514,12.55284881,2
-0.001406119,0.316896968,2.872009168,10.44443318,7.062810843,0.006156194,0.789012513,3.485481445,2
-0.004280208,0.341500226,2.481085803,8.336238844,7.073920005,0.01414876,0.418860559,-0.92068011,2
0.001635779,0.379744788,2.121987554,5.788900478,7.102576665,0.028499756,1.509157711,3.302926593,2
0.00182532,0.36168477,2.294426678,6.678598643,7.156192453,0.041099845,-0.289190527,-1.53420879,2
0.002495643,0.350935524,2.398358799,7.286487055,7.182682419,0.012409231,0.009480967,4.960058644,2
0.003191358,0.371908958,2.200836442,5.870357269,7.173850523,0.00857859,-0.480296845,18.62665928,2
0.000669316,0.370665068,2.157924783,5.768958094,7.174047961,0.007986953,-0.135015877,14.39189658,2
-0.002519577,0.370174545,2.211828422,5.965730259,7.173021807,0.007029253,-0.239998622,25.00304516,2
0.00013075,0.365536958,2.269959637,6.332668489,7.165549905,0.00989753,0.053502101,1.480273658,2
0.002734085,0.344078065,2.429234096,7.592286489,7.159000833,0.007914451,0.128076096,2.642067943,2
-0.000170707,0.340949146,2.602014853,8.409171728,7.161807414,0.014941598,1.807942474,3.590390877,2
-0.000131156,0.334722176,2.765782852,9.302758814,7.198873683,0.03685064,-0.236330762,-1.691558572,2
0.000851761,0.318948885,2.948083775,10.58955297,7.225763593,0.010824776,-0.71039323,6.651740177,2
0.005903516,0.326562242,2.857246969,9.844131845,7.203977966,0.01740477,-0.05725216,-0.570575956,2
0.002920218,0.349987985,2.493496266,7.653160976,7.19951864,0.021180381,1.050463972,0.044685043,2
-0.003080926,0.370356661,2.259701832,6.206991294,7.214823587,0.020547432,-0.11449399,-0.926915332,2
-0.000281237,0.377700692,2.199861611,5.746913421,7.206481443,0.017264487,0.62441186,-0.50673676,2
0.002691363,0.354591637,2.332510887,6.837679051,7.189965221,0.007480143,0.699347921,3.165119612,2
0.003769481,0.342967263,2.394376272,7.449444352,7.185552761,0.00661701,-1.572283518,61.77106931,2
-0.001831892,0.353984499,2.350881578,6.958171969,7.187909862,0.010371384,0.159086071,15.48183663,2
0.000545327,0.351567307,2.409504335,7.290100852,7.196441269,0.011020993,-0.276864023,4.210906964,2
0.003761006,0.342640002,2.422571744,7.648565489,7.199890791,0.007543947,0.806270509,5.778233763,2
0.001633052,0.342543103,2.429056699,7.669884648,7.201706532,0.008664359,0.633127151,3.111985982,2
-0.001519291,0.350382936,2.453839579,7.499009077,7.214220319,0.012813314,0.274627157,-0.462100652,2
-0.000121432,0.340150816,2.538406375,8.17237396,7.236064039,0.015540039,-0.10689277,-0.76573781,2
0.004305804,0.337323501,2.627690252,8.666955925,7.249186816,0.008340356,0.289837288,1.633432504,2
-0.000162205,0.33708315,2.671646767,8.845926114,7.255682918,0.011820676,0.543031246,0.615945511,2
-0.000946511,0.340549462,2.58236143,8.326603775,7.274389267,0.017996962,0.198620599,-0.618477103,2
0.001482056,0.339452181,2.595478037,8.415336988,7.292218345,0.01193595,-0.532747955,0.041907676,2
0.000257727,0.327982925,2.668771506,9.127708782,7.294568089,0.008813955,-0.266790912,1.637187403,2
0.002299713,0.323607134,2.745559869,9.556003823,7.296080944,0.010533065,-0.239500739,4.60772531,2
0.002247541,0.306057605,3.068218286,11.62945482,7.305081667,0.010335467,0.040953578,5.677932828,2
-0.001607568,0.307617034,3.100363794,11.8101955,7.324024527,0.037331437,2.623492903,6.310435251,2
0.000886767,0.319626269,2.97536645,10.76965399,7.414572253,0.084461735,-0.232564894,-1.738355297,2
0.007825274,0.321861222,2.97650048,10.4442512,7.475558308,0.020475025,0.424804082,3.107171275,2
0.002511363,0.325145083,2.871629046,9.850960341,7.456224823,0.007776735,0.546206244,1.745727647,2
-0.002086598,0.336897262,2.626813712,8.526438239,7.44344041,0.014116583,-1.234768841,10.48818668,2
0.000291282,0.358302626,2.409772421,6.973167925,7.425534003,0.014735625,0.190703868,6.102604204,2
-0.001582463,0.360629903,2.389901433,6.816412366,7.419194739,0.00874903,0.64977042,1.934769159,2
3.82E-05,0.351343881,2.432996738,7.238168016,7.42424796,0.00796553,0.191752473,1.465151618,2
0.003686116,0.353978261,2.426526039,7.165256661,7.425744465,0.007642084,0.264424927,2.113087262,2
0.004236354,0.356996551,2.41035763,7.022864914,7.435019139,0.012463914,-0.147448923,-0.478365513,2
0.001263225,0.345679073,2.463102288,7.570512282,7.4478508,0.008899152,0.658280803,3.158840129,2
-0.000605412,0.339895618,2.552164291,8.10840208,7.457642038,0.013665429,0.435541983,0.355139143,2
-0.001285217,0.343180096,2.619816722,8.26882903,7.454644012,0.014501295,0.741704606,-0.087739578,2
0.000408489,0.334315831,2.68590032,8.905766137,7.438313511,0.009541544,0.247560314,0.169727764,2
0.005710517,0.329127143,2.75346335,9.366233091,7.439539228,0.011101944,0.263715307,-0.517021205,2
0.000260206,0.316163351,2.991756206,10.85511372,7.451210022,0.008824414,-0.289294381,2.066982648,2
-0.002599673,0.294555043,3.342890077,13.49874996,7.455750057,0.006463641,0.701840474,3.72054004,2
0.002093052,0.299422357,3.37398746,13.27478392,7.446855818,0.011555317,0.049270144,-0.764021248,2
0.000729106,0.298471513,3.433755811,13.55663102,7.429086794,0.011550481,0.111611261,-0.100641479,2
0.000562703,0.287812694,3.595130152,14.90872898,7.412088558,0.011227338,0.586703939,0.299286541,2
0.002420157,0.276827634,3.770539159,16.46970978,7.397278867,0.011582208,-0.872129423,0.756423243,2
0.002289315,0.277713655,3.777363904,16.55171203,7.386149052,0.015533923,1.145127864,1.992970224,2
0.003624651,0.309175697,3.323097459,12.59532575,7.423440988,0.044231179,-0.083364692,-1.824484178,2
-0.002002579,0.323113409,3.065936811,10.86599044,7.463142885,0.00983228,0.191940185,0.282557844,2
-0.000951004,0.32991788,2.805152005,9.453011455,7.461092922,0.010342538,0.239614423,-0.272847575,2
0.002419098,0.342672703,2.580005869,8.11331614,7.461188289,0.009076695,0.176716474,0.084646334,2
0.001195156,0.341411707,2.573463824,8.102030687,7.451469367,0.01269211,-0.090219976,-0.206726643,2
0.002534147,0.352554303,2.50215253,7.398425876,7.445345524,0.009843014,0.401622546,1.564708636,2
-0.000257348,0.368621514,2.338681818,6.331414683,7.444553103,0.014823465,-0.938521127,1.063833579,2
0.00194286,0.379804099,2.26180654,5.790936286,7.413093294,0.031068875,0.251830276,-1.428684508,2
-0.001649349,0.3814041,2.287121183,5.841166473,7.371291624,0.017959225,-0.023877925,-0.793411679,2
5.90E-05,0.381705806,2.278422462,5.810003902,7.347558975,0.013406328,0.532714275,-0.321641525,2
0.002242931,0.391295249,2.214506381,5.383541146,7.345418712,0.010848873,0.343626096,0.034924666,2
0.001127184,0.394933571,2.146060178,5.078523945,7.354454368,0.007878945,0.251868894,1.698576176,2
0.000526716,0.402942007,2.093495224,4.746174179,7.360409001,0.011063182,0.746869058,0.246586941,2
0.001061541,0.408084147,2.070063549,4.563621163,7.365923636,0.011532787,0.001832564,-0.450602043,2
0.003430147,0.402148775,2.042379985,4.60276236,7.361303874,0.010485092,0.478367939,0.077003575,2
-0.001530814,0.405394978,2.04126748,4.553214008,7.353918185,0.006956331,0.672820441,5.922693316,2
3.86E-05,0.406385028,2.040451167,4.578766988,7.356448582,0.008405396,0.752902318,3.996711967,2
0.00356076,0.396931094,2.062966306,4.883855464,7.35077204,0.012924801,0.061797775,0.142688538,2
0.000279615,0.394862257,2.125878901,5.164626978,7.34597762,0.009381498,-0.044877184,1.450691075,2
0.004246458,0.394490743,2.12312492,5.195334402,7.36431645,0.019921004,1.026782007,1.066932603,2
0.003656669,0.375394722,2.24520394,6.068433873,7.373369435,0.015942096,0.820675915,2.619020068,2
-0.002504235,0.37566391,2.279835642,6.210438022,7.358797128,0.013201659,0.370733598,-0.480891889,2
0.000757684,0.376626704,2.223427028,6.027764463,7.350360053,0.008649671,1.126295726,4.328749009,2
0.001256699,0.353889438,2.417041758,7.367131721,7.348537445,0.009277522,-0.716899672,41.39342323,2
0.001259439,0.337768461,2.654043483,8.780286415,7.339542171,0.011638182,-1.521271443,16.4385128,2
0.000914808,0.333430382,2.782051461,9.453163778,7.316451209,0.020631483,0.181977068,-1.04241965,2
0.000927645,0.331676647,2.829640614,9.756514662,7.293933269,0.009355329,0.81593152,1.385603105,2
0.001513753,0.320931704,2.943105409,10.67992418,7.289042609,0.006327831,0.936574323,4.687097264,2
0.000814067,0.337214157,2.705172487,9.050384625,7.288506808,0.006460151,1.044909115,5.446476438,2
0.000396796,0.337678554,2.701725234,9.014136817,7.282654735,0.008836902,-1.661641161,50.60747509,2
-0.000497066,0.353132004,2.522260059,7.817612027,7.292864118,0.023770698,1.083361602,1.813312405,2
0.002502522,0.384872225,2.1156291,5.453323297,7.298547854,0.020667009,1.250206881,1.316954968,2
0.003288064,0.382720901,2.090354635,5.36933371,7.279329954,0.012254376,-0.218490466,6.743791659,2
0.003098445,0.390117937,2.085315927,5.171933815,7.267988532,0.008135697,-0.739617992,31.89674759,2
-0.000749241,0.391632712,2.116567262,5.228027959,7.277029364,0.017866573,1.109631918,0.740819873,2
-0.004049142,0.392907774,2.106468365,5.134150227,7.27505673,0.018894052,1.076325423,0.574803874,2
0.001609177,0.402710192,2.008854008,4.586797016,7.263719777,0.007748787,0.639876112,2.281728252,2
0.003319866,0.401625622,2.01422267,4.635050694,7.266416659,0.007544851,0.394279422,2.103189295,2
0.002241799,0.393719771,2.047049424,4.907036179,7.266917038,0.007256873,0.745420107,7.111200411,2
0.000136466,0.390633763,2.10587062,5.193817326,7.282193865,0.024982127,0.976706091,-0.388837554,2
0.001312428,0.397136581,2.092021439,5.013233255,7.286053903,0.024657914,0.603665784,-0.755538007,2
0.002351179,0.401584022,2.031904759,4.715975386,7.267757089,0.013448241,1.211851168,1.148344665,2
0.001286218,0.402532448,2.028669215,4.705400747,7.26052257,0.006924153,0.476311012,2.028158481,2
0.001928925,0.401872795,2.021510248,4.681139192,7.254318292,0.008588385,0.336315431,0.582881109,2
0.000833993,0.401343612,2.022444965,4.688077398,7.2486466,0.006798354,0.793792005,4.206142809,2
0.000827493,0.40348097,1.978707698,4.531737581,7.251091984,0.008279598,0.613079712,2.098679237,2
0.001912694,0.403675814,1.964318343,4.504941091,7.26687415,0.020361825,0.750319758,-0.140761487,2
-0.001431283,0.402993652,2.00618176,4.661420976,7.274244145,0.016320533,0.613354833,0.861888942,2
6.36E-06,0.411454716,1.956215442,4.310424025,7.269514465,0.007200262,0.594372455,2.546075288,2
0.001764927,0.408358225,1.968225123,4.387107715,7.271426555,0.007935163,0.5227283,1.453908684,2
-0.001703868,0.402626127,2.024724895,4.727375454,7.272862516,0.007682504,0.509982737,1.718205897,2
0.002517027,0.406788728,1.969189548,4.48871395,7.272261483,0.007035577,0.675625103,2.134134832,2
0.003507699,0.412983424,1.925364218,4.195234467,7.271604102,0.007060511,0.858992836,3.24880031,2
0.002077959,0.410170044,1.961549501,4.360718346,7.274388668,0.007623132,0.60477883,1.860701545,2
0.000983839,0.394638285,2.035948995,4.983876798,7.276391384,0.006906576,0.55194242,4.023603328,2
-0.001401731,0.380821023,2.156100871,5.766755904,7.277442932,0.00790699,-3.131977914,118.1782149,2
0.000414538,0.385426505,2.17560152,5.704316516,7.309243883,0.034761055,0.450322878,-0.594597315,2
0.001276363,0.363761067,2.348993469,6.85174035,7.330117307,0.030610349,0.844158859,-0.110158478,2
0.002909801,0.354321544,2.429314857,7.498219789,7.347075708,0.040316979,0.218697678,-1.316814878,2
0.005479398,0.388542539,2.168374184,5.667521332,7.351783807,0.029026855,0.869889482,-0.464760562,2
-0.000556471,0.393332337,2.091993561,5.272741641,7.321057619,0.012190138,0.24030974,-0.373344473,2
-0.001583352,0.37566911,2.135808292,5.863171368,7.310102081,0.007530884,0.906024404,3.220886049,2
0.002311523,0.380530871,2.154052224,5.775968687,7.313849258,0.012998121,0.89266856,0.068130111,2
-0.000746187,0.367230302,2.317759776,6.665680599,7.318234525,0.012060966,0.410759938,-0.164983303,2
0.003555437,0.370329746,2.204326539,6.206614836,7.334708187,0.022070676,0.44679132,-1.128043723,2
0.005786989,0.366941702,2.243913115,6.446668978,7.342353603,0.017418926,0.263943858,-0.73779179,2
-0.002180577,0.344374247,2.510716321,8.14268097,7.328599657,0.009750588,0.513518242,4.485503705,2
-0.004269111,0.368662078,2.301701776,6.650886944,7.335723877,0.013119892,0.063935055,0.711921843,2
0.000885635,0.379939223,2.189078657,5.942526324,7.34793505,0.007858766,0.284186138,1.338978757,2
0.004581135,0.394611556,2.059322554,5.107051993,7.348251016,0.007304205,0.429564409,1.492031067,2
1.68E-05,0.395955897,2.088507975,5.180783982,7.378626197,0.038640207,0.462711329,-1.547873495,2
-0.001468127,0.380566297,2.182124355,5.840870533,7.405522592,0.023614233,-0.822314979,0.766653775,0
0.001153512,0.363035237,2.313190425,6.740193745,7.396890259,0.009796589,0.924714994,2.142740638,0
0.003059496,0.349536633,2.452145066,7.669941155,7.39892322,0.01751679,2.427532992,8.3340297,0
0.000733279,0.368911604,2.206135323,6.376259564,7.484146445,0.084955494,0.140321171,-1.741056103,0
-0.001031499,0.392770452,2.031141577,5.137097333,7.569353158,0.0284268,-2.120984561,4.43380327,0
0.00174336,0.406082684,1.935409116,4.487209188,7.583524758,0.032520891,1.282281086,0.514662585,0
0.000103749,0.407402925,1.889843812,4.396567004,7.642534637,0.063698732,-0.163339647,-1.241627771,0
0.003090271,0.391463871,2.026217005,5.197176616,7.647351565,0.055522659,0.074714923,-1.073576519,0
0.001719642,0.349765766,2.439450177,7.808423015,7.574428449,0.034675085,0.779118542,-0.714544522,0
0.001752241,0.301956526,3.11056805,12.48293094,7.544727979,0.00920887,0.556470538,0.381998335,0
0.001513962,0.280950277,3.502014806,15.5612259,7.538543592,0.008749449,0.20668622,0.593535157,0
0.000234996,0.27622661,3.591314239,16.42792932,7.538197327,0.010004884,0.545643732,0.864113036,0
0.001210216,0.283104216,3.500187032,15.47282479,7.546149717,0.010356556,0.050829949,0.904483336,0
0.000824112,0.289004516,3.442922118,14.81081063,7.565330669,0.020190016,1.013682217,0.105795767,0
0.000849348,0.284463455,3.497400125,15.42351589,7.598480933,0.023854512,-0.507581813,-1.161664405,0
0.003641556,0.287460705,3.475354373,15.00477526,7.621352223,0.007791698,0.397090499,2.256665094,0
0.004846625,0.292990941,3.449740872,14.4791896,7.62917099,0.007563147,0.714575513,2.767543165,0
-0.001893997,0.2753889,3.615340368,16.61552538,7.634025247,0.008014159,0.546322767,2.952428019,0
-0.002194114,0.274036018,3.617835031,16.66295195,7.633691897,0.007987171,0.434429622,2.563758604,0
0.000913749,0.272599958,3.67564035,16.94182118,7.626892199,0.009501386,-0.160011095,0.372222277,0
0.000811079,0.261182046,3.834786419,18.74228738,7.610650907,0.013657501,0.093940007,-0.587102743,0
0.000733697,0.260464544,3.832641226,18.79425566,7.599369485,0.008267196,0.318474504,0.563682604,0
0.001151871,0.272545874,3.606151721,16.68442289,7.598905945,0.00706386,0.615683525,1.743655778,0
0.002437199,0.283927639,3.472413178,15.19607157,7.596934891,0.007226019,0.094957574,2.758269086,0
0.005047917,0.270618442,3.714998373,17.22440301,7.587949208,0.009580842,0.494762166,0.238819068,0
0.001459776,0.261241726,3.777555762,18.42298435,7.586856243,0.008239307,0.598217261,2.575852345,0
-0.002925744,0.263332953,3.74156361,18.07708673,7.58913765,0.007245486,0.777881231,5.769544777,0
0.000101251,0.261454899,3.834204528,18.56336203,7.582922145,0.006586244,0.907545068,6.262764546,0
0.000371187,0.27391569,3.685047906,16.90017391,7.587133517,0.011281671,1.073095277,1.054405493,0
0.000385071,0.28521678,3.551208446,15.51867879,7.60307857,0.012935897,-0.204041598,-0.49106419,0
0.00196688,0.28382873,3.582821558,15.71851002,7.607067817,0.008159965,0.571404575,1.80211749,0
0.001264808,0.270438746,3.811479139,17.72742483,7.605523246,0.007482895,0.538500627,1.553209061,0
-0.000280138,0.256956771,4.021569442,19.91913876,7.597942625,0.013262491,0.046439061,-0.80079996,0
0.001355209,0.257483838,3.981335025,19.64294505,7.576848766,0.012499006,0.115723195,-0.532222229,0
0.002857779,0.2706394,3.756096611,17.29047186,7.564198249,0.007357502,0.142388526,14.83151147,0
-0.000461759,0.282875505,3.627049267,15.87549311,7.568781444,0.010444142,0.447862492,3.942836687,0
0.000676045,0.292867571,3.536754997,14.90418633,7.576079069,0.008409867,0.795689709,1.459930129,0
0.001585131,0.290417412,3.558787305,15.09246571,7.571106883,0.008797026,0.85526098,1.726783664,0
0.002026539,0.278111318,3.721984395,16.58544247,7.562269647,0.007011679,0.648736928,3.102612742,0
0.002700649,0.278249978,3.768481483,16.7791583,7.571090916,0.018524801,0.835565606,-0.817780442,0
-0.000155365,0.267169095,3.898783711,18.24134171,7.579451043,0.015574581,0.313470821,-1.119522603,0
0.000884923,0.267300503,3.857575167,18.00786163,7.566445432,0.013093648,-0.069080522,7.724355807,0
0.001402477,0.268198189,3.868851497,18.0653755,7.550162234,0.010626691,-0.419995135,12.98270001,0
0.000399314,0.268686827,3.906609292,18.17279589,7.542205865,0.005629059,0.397778819,4.463721625,0
0.001416504,0.269018623,3.91759234,18.16454885,7.539613342,0.006708236,-0.321490688,3.778127045,0
0.003402034,0.268431354,3.955095208,18.30974365,7.527583585,0.01263885,-0.058865843,-0.59616013,0
0.000669231,0.269402675,3.930972476,18.16727622,7.516404125,0.008354219,0.511350127,1.717517803,0
-0.0006876,0.270788759,3.872934538,17.83316634,7.520665686,0.00902666,0.19022477,2.919633383,0
0.000556471,0.280175903,3.773218768,16.66294889,7.523739842,0.006207455,1.242927085,13.22839271,0
0.000719879,0.290049494,3.66554205,15.55518968,7.529526683,0.028092404,1.7012878,1.569226251,0
0.001100588,0.301970441,3.381254177,13.59150615,7.565910721,0.04528712,0.431021645,0.047590146,0
0.002631631,0.290735265,3.449351348,14.5389962,7.631686892,0.049298444,0.106887958,-1.559180386,0
0.001816995,0.300950973,3.345390481,13.4397387,7.626563699,0.04833773,0.390436415,-1.455848113,0
-0.003145785,0.322013657,3.020947834,11.09465169,7.582336807,0.013577739,-0.45201883,0.496866236,0
0.00014345,0.322104361,2.922903056,10.58848329,7.563855307,0.021531707,0.380765085,-0.621425559,0
0.005849664,0.309861465,3.191246438,12.12865453,7.525119999,0.025380458,-0.351088427,-1.038497429,0
0.004100327,0.299288425,3.467768903,13.9752419,7.480261448,0.026836599,0.317886967,-1.00738512,0
-0.001983843,0.289291585,3.623950301,15.41908823,7.471623775,0.022667693,0.658362358,-0.703910827,0
-0.001249472,0.285060385,3.766798531,16.36260318,7.510919189,0.032073121,-0.176490571,-0.59698305,0
0.004797671,0.294389256,3.610156998,14.90003289,7.515036501,0.026480131,0.359983778,-0.767117143,6
0.000862224,0.297436325,3.525714872,14.42256046,7.497777884,0.012508844,0.426814954,-0.108792787,6
-0.003367434,0.297906554,3.532716198,14.47886568,7.506400081,0.010866876,0.33467664,0.252307165,6
0.002156891,0.296780356,3.597905924,14.73482797,7.507743563,0.010746495,0.369874379,0.128464873,6
0.0059126,0.292954767,3.727544907,15.46001468,7.527050727,0.026822816,0.376122133,-1.094283276,6
0.000392062,0.283382749,3.868199076,16.86053331,7.54058718,0.016947867,0.621462728,-0.293869258,6
-0.00247917,0.287337578,3.714747457,16.00387473,7.536925888,0.011578649,0.019989308,-0.537328724,6
0.000389969,0.297322607,3.605902982,14.83187214,7.534921428,0.013304831,-0.393098398,0.104181841,6
0.002154837,0.278810808,3.915139021,17.41328416,7.517644882,0.013693499,0.38988992,-0.733864665,6
0.001472449,0.273173325,4.002002296,18.25587644,7.514961624,0.010288526,-0.518918792,9.968464569,6
-0.000550735,0.282277276,3.829167355,16.78042001,7.513342503,0.011030203,-0.28797063,6.94535996,6
0.000431174,0.285380015,3.799326741,16.30844719,7.499943815,0.008599514,0.363535586,1.11385221,6
0.001053687,0.284828159,3.829587749,16.56427039,7.49061421,0.008029057,0.472003922,1.833153894,0
0.004101177,0.280474477,3.937025,17.35294515,7.482371902,0.008914302,-0.761139979,11.94059879,0
0.001578225,0.273401164,4.073660495,18.48825009,7.486652919,0.018635776,0.866305387,0.266304476,0
-0.002585462,0.272912693,3.93942361,17.99589677,7.511161641,0.029038406,0.693812935,0.570036744,0
0.001268535,0.281840688,3.7059243,16.17734923,7.579589844,0.059811538,0.142662614,-1.444441764,0
0.015161466,0.311211414,2.971901092,10.83643828,7.635449219,0.027256605,-0.000857603,-0.078216374,0
-0.006226495,0.388471988,1.371924092,4.386909813,7.648228128,0.024373737,1.026831248,0.75190405,0
-0.010996268,0.360225262,1.550396699,6.313160231,7.634886878,0.029149895,0.874365852,0.345569921,0
0.005337537,0.265354327,4.162185581,19.77130352,7.601765551,0.014083614,0.67201342,-0.094041172,0
-0.000950527,0.257012226,4.186723255,20.47439613,7.589863477,0.008337845,1.256940548,3.689335073,0
0.001277985,0.289865068,3.633008572,15.2806683,7.601257815,0.015975949,0.25787498,-0.929479118,0
0.000698645,0.297437688,3.549092177,14.35968826,7.608295005,0.010251909,0.613423704,0.722236934,0
0.001315266,0.272850943,3.964516009,17.87764917,7.601138197,0.006397904,0.415473893,4.859740141,0
0.000329394,0.283573137,3.855246129,16.63276668,7.603878021,0.011358143,1.931984703,4.363866924,0
0.001802314,0.283399266,3.773898375,16.11989713,7.620644815,0.017093142,-0.100190691,-1.16840379,0
0.00121569,0.281956842,3.787501586,16.33198907,7.623091071,0.015226679,-0.320676387,-0.67521598,0
-0.000140514,0.270078026,4.088098232,18.72882958,7.596559198,0.021064803,0.134204928,-0.686749675,0
-0.000439303,0.248038911,4.51141945,22.89919229,7.560934067,0.022285524,0.176529508,-0.83833939,0
0.002156459,0.250207795,4.411586709,21.99967642,7.528936168,0.01534365,0.219602312,-0.546216156,0
0.003346324,0.261747163,4.217204228,19.91055914,7.506417901,0.012768117,-0.206978658,0.815241932,0
0.001646654,0.261627086,4.250517218,20.21917624,7.489366095,0.010919538,0.389767501,1.814124655,0
0.001646511,0.263937241,4.188506804,19.64475522,7.47381788,0.010385369,0.148372841,-0.191374391,0
-0.002472735,0.265895659,4.170395709,19.61619361,7.463689041,0.007612145,0.781451043,3.628155803,0
0.002361851,0.25072391,4.316917528,21.43713377,7.474490084,0.014869469,0.03275456,-0.824456898,0
0.003097229,0.236747776,4.487887934,23.4472543,7.474479239,0.01614329,-0.381309174,-0.56084295,0
-0.001586347,0.239728016,4.526900053,23.72991425,7.444424602,0.02078555,0.130919341,-0.999708635,0
0.000519307,0.240548516,4.489648425,23.43730359,7.421972874,0.009954591,0.274275895,11.95845461,0
0.003822817,0.241949957,4.423898181,22.88420917,7.410490363,0.008906016,-0.807705158,13.6562283,0
0.001020381,0.255412079,4.277282534,20.82498935,7.399151938,0.008298472,0.301553765,1.384132674,0
-0.001566925,0.256497992,4.288830942,20.96591272,7.384820339,0.011509046,-0.024691645,-0.513050547,0
0.002105059,0.269600558,3.869213805,17.52170528,7.376526042,0.006656316,0.13617148,2.678718241,0
0.000549911,0.270213612,3.878245068,17.5058615,7.374143328,0.006598577,0.454776201,3.58959605,0
0.005131335,0.256382818,4.232908536,20.54349303,7.375104359,0.019422745,2.279897023,4.530664036,0
0.00300516,0.2758151,3.636442895,16.02305512,7.423190798,0.056160686,0.506898585,-1.018220358,0
-0.01759981,0.323259119,2.902306422,10.68077856,7.591148703,0.152164464,0.467561129,-1.416180569,0
-0.005073924,0.343427135,2.897904261,9.891647545,7.680970928,0.102835251,0.005687568,-1.445039293,0
0.005601268,0.339451401,3.02251514,10.3059643,7.635299083,0.054497391,1.307772341,0.867572354,0
0.00264265,0.327601649,3.03243414,10.7230145,7.623871613,0.023971637,0.695839824,-0.491478315,0
0.007256771,0.307255717,3.296617723,12.34284855,7.600568226,0.030205995,0.813596121,-0.065171264,0
0.001782532,0.320864922,2.953080983,10.22372531,7.638489042,0.06777532,0.34249203,-1.597855969,0
0.000175729,0.32453847,2.867227712,9.907382232,7.707266617,0.031290891,-1.435830742,1.700044555,0
-0.001846024,0.296471095,3.42955053,13.70318724,7.713977214,0.015559791,0.154141269,1.322374849,0
-0.002260287,0.300043091,3.552929548,14.21602654,7.730523736,0.02151154,-0.395294301,-1.015552422,0
-0.003564782,0.308458151,3.338531783,12.92846082,7.790978949,0.066236591,1.302324258,0.272467126,0
0.004633974,0.314205473,3.284062144,12.28610853,7.888679286,0.106952177,0.53691276,-0.838390275,0
0.004706961,0.303806704,3.577389942,13.91367618,7.827038901,0.14168595,0.671467086,-0.933551754,0
0.00014706,0.281344415,3.899657958,16.67672216,7.699813734,0.031424038,0.765062192,-0.376297903,0
0.0004504,0.273571321,4.012245552,17.84074104,7.705835996,0.032935379,0.62569423,-0.369357456,0
-0.000806848,0.277271837,3.976635467,17.63804735,7.776726423,0.062334462,-0.035785285,-1.317376173,0
0.004392857,0.285694279,3.840737561,16.17952211,7.84054778,0.023400207,-0.966700069,0.372928326,0
0.006477474,0.277875676,3.811066544,16.3429323,7.869933537,0.032817911,1.376137588,0.745537459,0
0.000726366,0.291758344,3.545440265,14.4643117,7.921189553,0.043148633,-0.427962149,-1.07868149,0
-0.003940005,0.285557965,3.818913269,16.15434441,7.93023747,0.028557892,0.246702318,-1.017401636,0
-0.001201937,0.274600646,4.113937851,18.3587594,7.912948009,0.018125891,0.250543097,-1.024331951,0
0.00163589,0.27704104,4.076544044,17.90284435,7.951707241,0.038807572,-0.042005056,-1.262360035,0
0.000342616,0.266486173,4.228530567,19.49461025,7.999180004,0.026263112,0.26076349,0.196179238,0
-0.000257002,0.266822852,4.186664133,19.37496746,8.035601207,0.032542602,-0.038606351,-0.818644861,0
0.002134127,0.270086884,4.099325643,18.57728015,8.090440205,0.038018457,-0.168248423,-1.17547075,0
0.0001066,0.259636635,4.278834768,20.29170907,8.129124832,0.017176866,-0.231059331,-0.335938348,0
0.000389917,0.257879935,4.364038294,21.03271789,8.123105403,0.02177475,-0.044208981,-1.067721118,0
0.004503381,0.270847515,4.104752225,18.60495304,8.093451255,0.023748917,0.939712124,0.494043706,0
0.003429448,0.26097933,4.229909314,19.96044061,8.065606962,0.014095999,0.146879526,-0.735905103,0
0.000552462,0.250092303,4.414265396,21.97782976,8.041828537,0.019437525,-0.690508911,-0.326726344,0
-0.00301013,0.263781211,4.160610736,19.62634933,8.02030171,0.017180893,0.544538485,-0.695454538,0
-0.000362228,0.263980261,4.156846617,19.48534171,7.99383267,0.021648693,0.06485823,-0.994996713,0
-0.000111616,0.251130705,4.401557288,21.90981571,7.960232271,0.020351936,-0.113622278,-0.407868344,0
0.001632294,0.27191294,4.095951193,18.49182379,7.943088695,0.018246717,-0.071800374,-1.128984821,0
0.003823445,0.282797332,3.932307832,16.91776456,7.935684586,0.017754619,0.647812169,-0.642214015,0
1.37E-05,0.273653756,4.077546969,18.35612474,7.930730983,0.008337332,0.413880112,1.751299607,0
-0.000846157,0.261819705,4.214535879,19.98411957,7.896145521,0.055259506,-0.996585497,-0.757895639,0
0.000882621,0.258645878,4.232077676,20.26310263,7.793774469,0.081557069,0.581104924,-0.930331516,0
0.001839268,0.257492322,4.297805445,20.57628504,7.693120793,0.042593106,0.101475991,-0.61772919,0
-0.00072343,0.258838343,4.262633085,20.41715298,7.659351839,0.030041137,0.155570046,-1.024459221,0
0.001071847,0.261305852,4.170575629,19.61893778,7.616840145,0.050501112,0.430454888,-0.891081138,0
0.006109706,0.259326394,4.214622764,19.79539732,7.551398468,0.027615992,0.465340766,-0.91745612,0
0.000527121,0.249238656,4.374086679,21.75486301,7.512648337,0.01956097,-0.339773663,-0.822140413,0
-0.00188492,0.252407872,4.335701067,21.4091059,7.479771042,0.020386388,0.408766405,-1.146750101,0
0.002924587,0.273992575,4.019007861,17.88416831,7.458133643,0.011324364,-0.272631708,0.376002467,0
0.000744572,0.263058322,4.138155845,19.25528765,7.440787888,0.016981802,0.462402158,-0.519392372,0
-0.000707193,0.250279257,4.36594229,21.58502395,7.421830586,0.010643797,0.001955363,0.526352484,0
0.002129981,0.250513973,4.347536449,21.48973614,7.398471396,0.020112689,-0.119038008,-1.198244389,0
0.001597739,0.25241908,4.264721584,20.80867221,7.379131535,0.018386767,0.633411924,-0.269173767,0
0.001115701,0.252274101,4.276296476,20.85172856,7.353198569,0.030082281,0.757140433,-0.260107228,0
0.001617259,0.25266414,4.248572805,20.71115423,7.312361962,0.020510047,-0.005558338,-0.82951263,0
0.001481055,0.26279761,4.112616227,19.13992787,7.286057118,0.013383997,0.814719591,0.037229913,0
0.000658303,0.264315669,4.119044381,19.10492384,7.271786063,0.008161837,-0.010467836,1.511590861,0
0.000131175,0.266364519,4.07786305,18.82662556,7.266406849,0.007775338,0.796624479,2.542408403,0
0.002255774,0.264544846,4.082350913,18.88642877,7.256481225,0.012380617,0.18769326,-0.240578181,0
0.000678111,0.264822835,4.115124927,19.12300435,7.230531311,0.019507308,-0.281735583,-0.556468902,0
0.000180908,0.275483693,3.981690169,17.62092609,7.210880933,0.011754952,0.028888242,2.2091421,0
0.00045386,0.25212863,4.264623461,20.83795521,7.197934886,0.013231229,0.479608001,-0.382072787,0
0.001881396,0.252804124,4.252752822,20.71256574,7.178572192,0.011913025,0.188899366,0.317340023,0
0.001374985,0.265156314,4.084025309,18.8137667,7.171078873,0.007635739,0.563850594,2.768164438,0
0.001110404,0.274452772,3.929279662,17.38569846,7.185921424,0.034604531,1.349434095,0.306796567,0
0.001538184,0.272604434,4.005585067,17.95424437,7.190138517,0.036141147,0.852822218,-0.617813697,0
-0.00111028,0.24934267,4.439829498,22.27273129,7.165207836,0.025671808,0.436006772,-0.697343805,0
-4.15E-05,0.262590006,4.205321523,19.84092726,7.14095726,0.019796809,0.398944587,0.0123076,0
0.001409546,0.262400865,4.126763554,19.24573817,7.12668626,0.018525099,0.167931196,-0.635664569,0
0.001775423,0.250401005,4.27387075,20.98020173,7.121456582,0.012446962,-0.104246036,0.074761949,0
0.002244978,0.263432244,4.132887704,19.29081248,7.116493007,0.010822324,-0.579048335,0.555751848,0
0.001077674,0.274303789,4.025138484,17.92362921,7.098708398,0.015014073,0.482470757,-0.470871702,0
0.00260066,0.263106797,4.152818521,19.35321859,7.078505434,0.010831666,-0.002187872,-0.410228505,0
0.00127597,0.241270732,4.411615917,22.70244832,7.07423548,0.007401484,-0.060656367,1.612206392,0
0.00025606,0.243445413,4.353333104,22.17734546,7.074435479,0.006795818,0.376145161,2.132658475,0
0.001251872,0.256490618,4.156713234,19.87462524,7.062114716,0.010595493,-0.048041401,-0.017576932,0
7.22E-05,0.25657551,4.132191611,19.6626017,7.051768167,0.007194963,-2.806569757,122.0802952,0
0.00077757,0.256168556,4.149171089,19.80290618,7.048559734,0.006093368,-6.096854002,253.9365943,0
0.001150988,0.267716199,4.034310791,18.49569836,7.054091808,0.020699504,2.176969906,3.978846245,0
0.001400685,0.265974163,4.052727766,18.79854108,7.059791456,0.022590245,1.262739211,0.659380945,0
0.002483008,0.265302046,4.079212995,18.89051733,7.042784773,0.020614561,0.818694108,-0.007834323,0
2.46E-05,0.256102536,4.184573132,20.16851852,7.018654633,0.010685617,0.236535979,0.167546827,0
-0.000876787,0.245387094,4.289607128,21.63651434,7.010362952,0.005908289,0.679778971,4.56544799,0
0.00301561,0.268984316,3.942368859,17.76337997,7.024898856,0.023396051,1.322850622,0.48587264,0
-0.001285727,0.267670558,4.01976438,18.37010615,7.024209104,0.023999563,1.169963494,1.198839134,0
0.00110854,0.266023249,4.043145802,18.58165886,7.003210449,0.008416837,-1.651581374,40.42899696,0
0.004120717,0.267225395,3.995782919,18.18828936,6.992775127,0.008598402,-0.681313343,12.06891431,0
0.000651391,0.253430272,4.107941882,19.59477158,6.987062509,0.008712415,-0.074719731,9.704611015,0
-0.000389864,0.250806917,4.144332179,19.99000224,6.971499252,0.018532131,-0.210567284,-0.755451587,0
0.001616429,0.263905733,4.093186875,18.99736629,6.939833832,0.020067616,0.374340746,-1.021509214,0
0.003999377,0.26609369,4.083509613,18.8602843,6.917020743,0.009573688,0.533237073,1.085542754,0
-0.000773182,0.244723157,4.382682432,22.43512319,6.9045784,0.009444472,0.515108745,1.640537837,0
0.00240972,0.256385739,4.135902831,19.78470191,6.885675158,0.014864435,-0.176888458,-0.687103656,0
-0.001496979,0.277710172,3.296053177,13.96884067,6.889724949,0.030394554,1.365822072,0.434928405,0
-0.003943059,0.277303933,3.381414689,14.72820571,6.898939024,0.030679599,0.681203933,-0.782453492,0
0.004883475,0.274554314,3.974064506,17.74099006,6.876649748,0.023050563,1.151686386,0.296492163,0
0.005425297,0.267604766,3.862279024,17.28647005,6.880666133,0.043403819,1.998395818,2.847215892,0
0.000592091,0.287961916,3.515795838,14.66649968,6.961901474,0.074493089,-0.400800304,-1.51897533,0
-0.000839035,0.304727799,3.378164692,13.38200028,7.029396602,0.016173234,-0.968489622,0.720855918,0
-0.002679153,0.32062013,3.0002751,11.3769726,7.148776845,0.135479474,0.53530647,-1.531215562,0
-0.001748271,0.316783054,3.07353616,11.72134699,7.286031451,0.077603384,-1.802483731,2.225871098,0
0.002613916,0.290111724,3.727952856,15.43973005,7.276079505,0.037174753,0.035345092,-1.375441406,0
-7.76E-06,0.280517883,3.930934946,17.00587002,7.23564464,0.014813731,0.604539331,0.45634092,0
-0.000532883,0.28123913,3.928356868,16.93650939,7.220896367,0.015593329,-0.296348006,-0.495540422,0
0.000244053,0.270537965,4.0030879,17.97850677,7.204328537,0.015939396,1.180958777,1.221596762,4
0.003123707,0.260184596,4.127440826,19.34744925,7.196857234,0.007017258,0.138997847,0.367190225,4
-0.002362636,0.29786151,2.828874698,11.58673176,7.248692158,0.066973569,0.687684717,-1.387859097,4
0.000458208,0.299851392,2.776627936,11.25304124,7.30259879,0.046450436,-0.980070873,0.133193604,4
0.007301658,0.274851337,3.903902747,17.18330131,7.30230217,0.02082473,0.115107571,2.085446431,4
-0.000223336,0.250700531,4.320139798,21.3685276,7.276638086,0.026940376,0.459819342,-0.360631073,4
-0.000471575,0.240479557,4.474541001,23.22417404,7.246127701,0.012075535,0.364784131,-0.504902519,4
0.001165152,0.24224705,4.402162366,22.56492618,7.235158539,0.007242583,0.597961957,1.301992745,4
-0.00201125,0.243347077,4.405605335,22.55297546,7.231012998,0.006259981,0.717178149,3.612241961,4
0.001327286,0.258059559,4.128961121,19.63855563,7.22953137,0.005512822,0.488560257,4.464828389,4
0.002958644,0.279238802,3.864501973,16.73597049,7.224474171,0.009376372,-0.546518589,2.495436642,4
-0.000238456,0.26598599,4.073787822,18.80214956,7.214294325,0.008951862,0.425351663,2.297992514,4
0.005139228,0.254284297,4.242721615,20.57303755,7.201331002,0.011226931,-0.423332642,-0.208716881,4
0.005673536,0.25666177,4.124313741,19.64439754,7.188883427,0.008505912,0.606856486,0.730190692,4
-0.002243487,0.24582571,4.234004143,21.20621492,7.192270933,0.009646066,-0.726555788,15.87077963,4
-0.002112501,0.258814817,4.131749258,19.71198899,7.193896593,0.008864258,-1.976972671,38.00932141,4
0.003328792,0.269559883,3.9668972,17.87512227,7.186022295,0.006793052,-1.518690766,34.20319039,4
0.005139542,0.267894227,4.013937734,18.23524637,7.17121048,0.015658714,-0.34627788,-1.020751198,4
0.001563283,0.247980483,4.247948512,21.33889217,7.150610951,0.012567146,0.373111544,-0.413710347,4
-0.004906108,0.236849052,4.281650542,22.51244552,7.136931937,0.009481261,0.670971351,0.134289727,4
-0.002751984,0.236853211,4.27367767,22.39932981,7.134733091,0.007629758,0.375985839,0.075803519,4
0.003041467,0.249994906,4.131399992,20.28852833,7.130887985,0.010316121,-0.617139508,16.19331562,4
1.20E-05,0.266533407,3.945557067,17.97036562,7.133121109,0.011752853,-0.981537549,17.80414311,4
0.001139544,0.281540951,3.741277167,15.9234197,7.141490773,0.006539801,-2.952297635,109.8733645,4
0.005820975,0.274047605,3.789330277,16.54679609,7.139525441,0.005757132,-0.061477749,13.9706075,4
-0.003219812,0.256984456,4.076844209,19.4331251,7.153238188,0.017497873,0.613226059,-0.881524933,4
-0.002972724,0.258326493,4.122417876,19.69426608,7.165279606,0.010507446,0.44486997,0.058459223,4
0.00356269,0.257588471,4.136706993,19.73648754,7.154872622,0.010462508,-0.141930263,-0.304134681,4
0.003956909,0.257641151,4.161143643,19.93013029,7.138075692,0.011100744,0.04781316,-0.029265607,4
0.005523703,0.2479661,4.154250915,20.5235642,7.124285834,0.007955829,0.265091834,-0.455743617,4
-0.001814333,0.237288012,4.245027561,21.99437264,7.121165739,0.005535116,0.585877947,1.915112375,4
-0.000740027,0.262644781,4.005826965,18.60615378,7.126607023,0.009320033,1.213775203,1.286148892,4
0.003394998,0.274261944,3.813608341,16.65047507,7.133187866,0.009882062,0.152144283,-0.199637406,4
-0.000880711,0.274470627,3.877643817,17.1552249,7.127283423,0.012499221,-0.252602528,-0.499824867,4
-0.002531041,0.261824924,4.055717969,19.05898016,7.11454119,0.008880737,0.634452647,0.456482766,4
0.003469097,0.258332411,4.078091652,19.2337727,7.111798096,0.005940083,0.346469713,2.663728281,4
0.006055193,0.26861411,3.925786786,17.55086996,7.123884583,0.015078166,0.598900891,0.393538897,4
0.000198081,0.26218274,3.949764154,18.28314119,7.14275431,0.01322375,-0.653710947,1.950204339,4
-0.000895556,0.263093162,3.990803282,18.55024448,7.145165471,0.008725978,0.356186106,-0.17652953,4
-0.000704348,0.262350578,3.986658553,18.55315829,7.147630855,0.011459831,0.496361193,1.898138858,4
-0.001516708,0.264138993,3.909088498,18.07475558,7.150703376,0.009819276,0.401321534,4.843258761,4
0.000668224,0.275380934,3.76831453,16.52834475,7.143213272,0.006671486,-0.577318495,22.04767928,4
0.002320607,0.286736621,3.666361465,15.34236847,7.145242528,0.010105096,-1.097087146,26.08596626,4
0.002760603,0.273260996,3.907505024,17.46040589,7.148880931,0.009250236,-1.711157896,35.18186161,4
0.000413831,0.250117959,4.192706916,20.72075884,7.140961674,0.009341783,0.136182945,0.023080123,4
-0.001422939,0.252428643,4.04199453,19.61830541,7.131260627,0.006953545,0.437503601,1.454743573,4
0.005236666,0.263455268,3.889188932,17.84274263,7.119150925,0.011219155,0.042910725,-0.772079434,4
0.001690763,0.251152183,4.120390493,20.19305582,7.108758218,0.006264214,1.239615445,5.013134668,4
0.000847321,0.251202346,4.086794468,19.92532927,7.108635712,0.00551819,0.917596075,8.155226657,4
-0.000223565,0.250954833,4.037226343,19.50842685,7.107273047,0.005906425,0.040046567,12.11183175,4
-0.0024896,0.253018086,4.022160575,19.39507095,7.104548318,0.005736557,0.097777453,12.04638757,4
0.000327805,0.253719172,4.049059376,19.56803156,7.102535302,0.007668009,0.142398047,1.872133128,4
0.005016109,0.26335763,3.916595355,17.99159379,7.090750122,0.01248547,0.11368125,0.584994838,4
0.002627518,0.266270934,3.844491011,17.41627505,7.079527555,0.006993974,-0.125777769,8.952558931,4
-0.001074751,0.255328575,4.00303607,19.22416388,7.078747123,0.006528287,0.559646366,1.379799897,4
0.001385383,0.251911382,4.078734763,19.87688609,7.074123982,0.007430287,0.404836354,0.549450958,4
-0.001381753,0.253198385,4.060827178,19.64759396,7.071012606,0.005894721,0.447147153,1.227611173,4
0.002154968,0.276647749,3.748038921,16.21599961,7.073284694,0.007686885,0.183475149,0.229906957,4
0.00291381,0.276623564,3.729161503,16.10724039,7.075993729,0.007709748,-0.192811983,0.848475692,4
0.000170831,0.267453576,3.773644596,17.08238167,7.077605983,0.005442237,0.400466301,3.599104135,4
0.002286196,0.265727245,3.893819279,17.98365022,7.074586814,0.006653466,-0.248488839,1.086138378,4
0.001469519,0.253320409,4.072792481,19.72584836,7.068343408,0.007394026,0.380517699,0.312723394,4
0.0021314,0.253673378,3.955687118,18.82448614,7.06198785,0.006332902,0.495386991,1.45833469,4
0.002596109,0.264688185,3.933339762,18.06255624,7.058039257,0.009348387,-0.270558666,0.651070318,4
-0.004591657,0.256392951,4.052705897,19.58921583,7.046509552,0.013258563,0.525377565,-0.430603207,4
0.001652265,0.256422424,3.948030877,18.79728346,7.032391412,0.007037575,0.009890781,3.423078872,4
0.002491686,0.266430249,3.8675424,17.5797416,7.030436543,0.010142828,0.258318177,0.069867174,4
-0.001308354,0.265648202,3.903171031,17.82835692,7.025224195,0.012521515,-0.391008886,20.72618579,4
0.00146863,0.276007581,3.854086207,16.90514621,7.016625922,0.006101185,-8.568288966,330.8917766,4
0.000254961,0.264250871,3.985374923,18.40827195,7.013556944,0.006766906,-0.101371115,2.209629324,4
-9.77E-05,0.252174091,4.059080056,19.55997849,7.017855127,0.008927104,-0.153349053,0.425540295,4
0.00442851,0.264568713,3.95127829,18.14228045,7.019027819,0.008109059,-0.273117044,0.991516678,4
0.003754944,0.265196491,3.936112143,18.08129942,7.01780608,0.009099181,-0.221123643,-0.173140918,4
-0.002765514,0.25539206,4.01371108,19.2649916,7.021984318,0.008576897,-3.152342229,78.54358386,4
-0.000259722,0.269584873,3.785273856,17.01494346,7.017621122,0.008912779,-2.011415277,62.63882283,4
0.004364652,0.278269371,3.717571123,16.05477611,7.014947019,0.006905809,0.415597074,2.60783973,4
-0.000188089,0.261321364,3.957782676,18.3869946,7.016061946,0.008608799,-0.121920449,0.797129639,4
-0.00023705,0.261043988,3.934865705,18.22118007,7.013063431,0.011042046,-1.273214069,36.52574088,4
0.006266824,0.274945416,3.744158166,16.23495395,7.020054517,0.013701889,-0.865503156,16.26764579,4
-0.000886302,0.265681975,3.896606919,17.81465287,7.036480495,0.010522426,-0.851480225,1.59095419,0
-0.003618328,0.254195027,4.089607759,19.83326988,7.042856816,0.005273573,-1.342114861,35.77742664,0
0.001498189,0.252095411,4.124517633,20.16109471,7.035936465,0.008113025,0.026056375,-0.400653803,0
0.00273931,0.251149167,4.055614513,19.75018736,7.024751445,0.008761393,-0.170649274,-0.118144618,0
0.004381459,0.278891801,3.463579036,14.388637,7.105322593,0.115750301,0.754010687,-1.333638537,0
-0.001065491,0.300000987,3.337429591,12.85112312,7.241801943,0.092943741,-1.584991704,0.743982992,0
-0.002579982,0.301794542,3.545008455,14.05277356,7.262226813,0.040491507,-0.81919265,-0.704251273,0
0.002632618,0.303914874,3.590491416,14.09434806,7.206979915,0.036457171,0.971816474,-0.48050989,0
0.001401718,0.292818052,3.752347714,15.43608057,7.191078295,0.011791968,-0.244750827,-0.824138863,0
0.00055411,0.27400904,3.992268048,17.85971729,7.197322028,0.006209259,-1.00944914,39.62861653,0
0.000866017,0.267604131,4.049143219,18.65419741,7.194529397,0.006688852,-1.816219416,71.00027058,0
0.001519932,0.271145024,3.946404091,17.78215981,7.203492628,0.01206842,0.006206579,4.009211041,0
0.001298322,0.270524227,3.930731477,17.67312256,7.219566727,0.011321313,-0.065730387,-0.498090697,0
-0.001493395,0.272224183,3.862653903,17.29679668,7.234625571,0.011839954,-0.039035079,-0.158401827,0
-0.001618548,0.27376493,3.859404927,17.23879436,7.237012209,0.009479183,0.416413915,0.392604167,0
0.005979898,0.271080504,3.933597404,17.66098533,7.219560787,0.014402624,-0.213901748,-0.993907,0
0.005585338,0.270895819,3.919904511,17.53647973,7.204519054,0.008333748,0.928178868,1.289534805,0
-0.00105372,0.263720965,4.001703582,18.64615121,7.204381125,0.006505743,0.30923658,0.737043422,0
-0.000356886,0.265220961,3.927488643,18.18115547,7.210913522,0.008365602,0.516934668,0.253852291,0
-0.000395305,0.263073253,3.966492545,18.54355215,7.215126583,0.008040604,0.253587951,-0.15803369,0
0.002103509,0.261400956,4.047372509,19.03716608,7.210345295,0.00846392,0.464667762,0.612132465,0
0.0002691,0.262929296,4.044739008,18.91567924,7.208097785,0.006843002,0.991520784,9.404093454,0
-0.002002971,0.263065449,4.054968412,19.0616086,7.207578605,0.006749521,1.064782641,9.155894358,0
0.002757542,0.271442078,3.917072893,17.5577988,7.212125833,0.009953508,0.288789539,-0.3955743,0
0.003842893,0.280689918,3.827514859,16.36341363,7.22469368,0.007819196,0.581122628,3.522511898,0
0.002638327,0.272349157,3.937581376,17.60656109,7.227999333,0.007249794,0.219384107,3.791048852,0
-0.000881058,0.263995719,4.028467711,18.83236087,7.222240502,0.008233738,-0.586808433,21.51389421,0
0.001135862,0.263988375,3.97142585,18.44773844,7.22159402,0.007867341,-0.264280687,30.91355683,0
0.003500342,0.262569994,3.982942681,18.54952675,7.225117656,0.006814329,0.630113313,8.116504452,0
-0.001320217,0.252947724,4.106317804,20.09605747,7.222596686,0.006535505,0.544918748,5.336783534,0
0.002183369,0.266625484,3.895949373,17.81242379,7.219459915,0.006351315,0.840310403,8.820939374,0
0.000270394,0.264526945,3.989093661,18.48515043,7.213977759,0.007539,-0.783161469,21.06209331,0
-0.001481696,0.251939088,4.150199306,20.39640463,7.210070637,0.006133594,-0.604315612,54.1185083,0
0.002788343,0.263380633,3.971210924,18.39557455,7.208743613,0.006212132,1.870960853,20.70383456,0
-0.000134354,0.253345749,4.06620604,19.75140875,7.203430176,0.006613975,1.147921477,9.06680759,0
0.000115958,0.255333685,4.021974535,19.37960443,7.200926644,0.004975194,0.652914013,5.697374458,0
0.003988037,0.275089889,3.842438311,16.9258707,7.206063407,0.008803958,0.563305846,12.20924874,0
0.001071514,0.273877813,3.857813124,17.07172694,7.217058836,0.010645502,-0.687809327,5.910422519,0
0.001249263,0.273373744,3.885269696,17.29920619,7.216801834,0.009303576,0.057517696,-0.286668764,0
0.002922736,0.270872636,3.991519397,18.05809652,7.208200455,0.00571261,1.092173083,5.863656563,0
-0.000822549,0.249195714,4.231876464,21.13891029,7.207228797,0.004746082,1.225608965,9.453509668,0
-0.000388726,0.252384762,4.071606389,19.8619728,7.204891096,0.005883778,0.432322809,3.244571259,0
-0.001975826,0.27390983,3.84709597,17.10173893,7.21964253,0.027913539,1.1985018,0.50048108,0
0.001432473,0.281792063,3.696247863,16.05407197,7.272141756,0.041787276,-0.512042614,-0.991878319,0
0.003326405,0.299339088,3.447666109,13.91213199,7.342234639,0.037536501,0.131005297,-1.589650645,0
0.001914845,0.303815192,3.532923002,13.87833743,7.362042291,0.025851402,-0.160824331,-1.100786286,0
0.002517144,0.280153277,3.928183184,17.019638,7.32000351,0.033181277,0.740746082,-0.230681372,0
0.001548863,0.270559892,3.960386543,17.96547302,7.292104122,0.023739516,0.356042887,-0.826734422,0
0.001148202,0.288492121,3.578285892,15.01913361,7.322611455,0.041463965,-0.274724149,-1.140280687,0
-0.001065687,0.309620139,3.354719175,12.74078846,7.35744024,0.024877023,0.200578038,-0.805624988,0
0.001292103,0.308143891,3.531533902,13.53625158,7.330781174,0.036263108,0.68080276,-0.810031886,0
0.000918732,0.274912332,4.123473516,18.57300541,7.289279011,0.013809948,0.262298838,-0.872226805,0
