wrist_ACC_1,wrist_ACC_2,wrist_ACC_3,wrist_BVP_1,wrist_EDA_1,wrist_TEMP_1,label
0.8462808387123057,0.6622110266087678,0.5651278899801608,0.5666235143518654,0.5789146268506463,0.7234042553191244,1
0.8026597608121055,0.5484798458550691,0.6587802472899605,0.5664958960011027,0.5718946150484429,0.7234042553191244,1
0.774466384980102,0.6465418766159031,0.6889925755805212,0.71403387815141,0.5672953132839695,0.7234042553191316,1
0.6546374468912675,0.70486339983574,0.7822671324010505,0.21112311718400834,0.5645114730869744,0.7234042553191316,1
0.44880767701785274,0.6442801021223741,0.8916546839951209,0.5113265057543278,0.5712894611926166,0.7234042553191316,1
0.6125461173877593,0.6065788906615799,0.851294013526894,0.5714403260113744,0.5910182716537171,0.7234042553191316,1
0.41500820423340656,0.6572476538160045,0.8749870872868315,0.45435677653576334,0.5984014136151858,0.7234042553191316,1
0.4966528794423899,0.6498989594688781,0.8942906248028156,0.712882901282984,0.590413117797891,0.7234042553191316,1
0.6399086807536827,0.673040298308702,0.8198497103636497,0.6702791538517034,0.5864188752748198,0.7234042553191387,1
0.5778591644062135,0.6341691429492273,0.8730943785572695,0.6071637174028027,0.5915024136612632,0.7234042553191387,1
0.7333595629173125,0.6843565219890018,0.7292094718567692,0.4773268864152273,0.59222857936537,0.744680851063805,1
0.5894495634972545,0.6329420855846555,0.8094101396889699,0.45296232993371377,0.5841191770853703,0.744680851063805,1
0.6361565705536728,0.6756045772981802,0.809352837208221,0.694408744224141,0.5792777570099118,0.7446808510638263,1
0.57486969469397,0.6678608795925554,0.8736125540251266,0.6215514154874238,0.5846034137073401,0.7446808510638263,1
0.5628946718036906,0.6399062237744846,0.8521195398114472,0.42385836996604365,0.5905341296461715,0.7234042553191173,1
0.5666111632823603,0.6354172718006793,0.8704100871258567,0.5268071282069862,0.5911392835019978,0.7234042553191173,1
0.5762255377454342,0.6394959429341176,0.8401878467032472,0.6192980825351853,0.5902920113351864,0.7234042553191316,1
0.6162768011505735,0.6254893916735459,0.8428940929107341,0.5289961308079146,0.5905341296461712,0.7234042553191316,1
0.6474781856070893,0.6203352208041227,0.8107601453687392,0.388889615886562,0.5905341296461712,0.7234042553191387,1
0.6030644837695116,0.6085080908106506,0.849202080816687,0.5130554196358635,0.5895658456310792,0.7234042553191387,1
0.6187068497823527,0.6216058206324425,0.8584494375242139,0.6294303181431631,0.5911392835019978,0.7234042553191529,1
0.6135195132877703,0.7579056437139399,0.8044514302794312,0.6604731206607573,0.5908971651910129,0.7234042553191529,1
0.6759254170318838,0.5586062907505854,0.7129908242399275,0.466324534616819,0.5877502894491764,0.7446808510638121,1
0.8398895717652168,0.528748527413164,0.7789284041274904,0.5428201667253885,0.5796408871691768,0.7446808510638121,1
0.7719117064120088,0.6177151764294511,0.6407960092154543,0.5718693022130054,0.5787936150023655,0.7446808510638192,1
0.5519380659699864,0.7326861854461327,0.7716092678253137,0.4788351807434472,0.5802461356394273,0.7446808510638192,1
0.7019896514860859,0.7428394861528931,0.7240648451208291,0.4787404053702263,0.576736035123902,0.7234042553191529,1
0.5670187158410712,0.6952556459638926,0.8599849072416399,0.582961746787102,0.5770990706687434,0.7234042553191529,1
0.423911560517119,0.605418777076528,0.89372986503174,0.49654783398589153,0.5787936150023655,0.7234042553191529,1
0.5101222167323398,0.6240210880252098,0.9150550774854981,0.7419688151012115,0.5924706030619301,0.7234042553191529,1
0.49836428936999566,0.585505272819333,0.906601929927292,0.571572227380385,0.5899288811759206,0.7234042553191244,1
0.49249196462443623,0.5779318117932429,0.888146140564527,0.26194107206112766,0.5770990706687434,0.7234042553191244,1
0.49619782417536196,0.5791584975260698,0.901215374846893,0.48348115444700696,0.5705632008740855,0.7234042553191173,1
0.49321858251028317,0.5722194099477717,0.8934251557279238,0.509495323852657,0.5675372423661065,0.7234042553191173,1
0.49781715680917343,0.5761087768040557,0.8949335586864495,0.5851425979765348,0.565479757102066,0.7234042553191316,1
0.49208340131498407,0.5656700981160481,0.8975515071209941,0.6015859305072216,0.5646324849352545,0.7234042553191316,1
0.4987648658380003,0.5720982171934078,0.8913775325983089,0.5525415664394637,0.563664200920163,0.7234042553191387,1
0.49236749697915594,0.5648600347575973,0.8996388283909138,0.5663537426408127,0.5628169287533517,0.7234042553191387,1
0.4990219965282295,0.5735215059724553,0.8884330248634679,0.5618261019287671,0.5608803607231683,0.7234042553191173,1
0.4965426543774959,0.5585533680921672,0.9192630215177922,0.5355689823746954,0.5603962187156222,0.7234042553191173,1
0.5006607146058524,0.5917201468733877,0.8960764700863096,0.568676291213717,0.5543444909285116,0.7234042553191387,1
0.4458427145250011,0.627719895637734,0.8933084150525361,0.5388642239735544,0.560880360723168,0.7234042553191387,1
0.5433586936961359,0.6338118405452541,0.8376860027706212,0.5542996824092687,0.5682635972990612,0.7021276595744439,1
0.7217732220834561,0.613508276699823,0.758161280474818,0.5782394045993174,0.5634220826091781,0.7021276595744439,1
0.7041722449309169,0.6040405947380323,0.7763266157928637,0.5979794776151437,0.5620907630492448,0.7021276595744581,1
0.7466447070836173,0.6027504634487998,0.72985849887489,0.6058805804535968,0.5612434908824336,0.7021276595744581,1
0.7278246436382922,0.600490027088977,0.7457028183825005,0.5297295797989167,0.5616065264272757,0.7234042553191316,1
0.7448588221527714,0.6040539042795484,0.7318127158225589,0.4704408319013648,0.5624537985940863,0.7234042553191244,1
0.7312501673543657,0.6039620175359924,0.7415855561095612,0.534401713786386,0.5619696565865404,0.7234042553191387,1
0.7411438530944401,0.6030104379989203,0.7352705807869898,0.5498840457799375,0.5602752068673416,0.7234042553191387,1
0.7206620506112358,0.6024899234512034,0.7543642778111634,0.5389317269987569,0.5613645027307144,0.7446808510638192,1
0.7318883952122397,0.6095839398294354,0.7519030334758081,0.5585342202376598,0.5607592542604637,0.7446808510638192,1
0.6766318141597103,0.6073173799100413,0.7873909896287248,0.527332137364889,0.5599120767080767,0.7446808510638192,1
0.7144768917018518,0.630519386181297,0.8131994805976845,0.5410102282402912,0.5594279347005304,0.7446808510638192,1
0.5078533493901006,0.6237564300204789,0.8184487687313331,0.5380866581462181,0.559185816389546,0.7234042553191316,1
0.46830781586974757,0.5962751296241062,0.9247068730780823,0.4879974309614987,0.5617276328899797,0.7234042553191316,1
0.4637443645361312,0.5916675480696817,0.9013151209385146,0.553141675374576,0.5685056209956215,0.7234042553191244,1
0.4419405901334361,0.5393519771419563,0.9113864612939232,0.5556781386109507,0.5682635972990608,0.7234042553191244,1
0.5818436937924505,0.5520772445943671,0.853802358939957,0.6128490677952122,0.5642693547759889,0.7234042553191387,1
0.6097080107223155,0.5494710352025333,0.8516477121418713,0.549040166868167,0.5625748104423671,0.7234042553191387,1
0.716677695845749,0.535874322028735,0.8007447399912088,0.4674110207047788,0.5597909702453722,0.7234042553191316,1
0.6713749216952002,0.5224405203246112,0.8110322741540447,0.5176751692194685,0.5610013725714491,0.7234042553191316,1
0.617560220114186,0.5473797635543739,0.8196510089354094,0.5087474646237482,0.5597909702453717,0.7021276595744581,1
0.6487337958947095,0.5411807274930146,0.8315902454230666,0.5235768569209559,0.5608803607231679,0.7021276595744581,1
0.5509812062911914,0.5684229716864639,0.8619714097466309,0.6549567477433762,0.5591858163895455,0.7021276595744723,1
0.472502509402249,0.5504480865212651,0.9211841923492412,0.6622516910179034,0.5440564023073431,0.7021276595744723,1
0.7063632571458445,0.569465090454796,0.753045654413593,0.49100738316877945,0.5580965205261732,0.7234042553191173,1
0.7877854459078122,0.546605985583024,0.6246845551767234,0.5068339336573443,0.5491399406937866,0.7234042553191173,1
0.8153041840851589,0.48996725929620366,0.6768458151699626,0.3504671231470077,0.5180337457481462,0.7234042553191316,1
0.7607829657890913,0.4982960882464802,0.6597176315971158,0.5605486990828771,0.5029102923746543,0.7234042553191316,1
0.780791386311195,0.4457941588643671,0.660232843815013,0.8568012680475439,0.5136824283889442,0.7234042553191529,1
0.8084786420939352,0.38165656898402045,0.5935533898115576,0.13760090364651395,0.520339310031882,0.7234042553191458,1
0.7965341604316665,0.42120649451154046,0.6059366099973844,0.24057404657372028,0.5393419547888763,0.72340425531916,1
0.7673227774932951,0.36531860608391653,0.6000290681439084,0.5464166265692788,0.542488925145136,0.72340425531916,1
0.7848669671561734,0.32506537526221513,0.5381807876029672,0.6178212897028805,0.5474513570688756,0.7234042553191316,1
0.7970772056594666,0.30664459410938516,0.5357552208822338,0.7477926932075828,0.5502351972658703,0.7234042553191316,1
0.7393489209354313,0.3097622408145275,0.53463308313579,0.826977251961134,0.555439747500594,0.7234042553191458,1
0.7816551778093103,0.3069131305000683,0.546501705482215,0.5726919475026272,0.5633069368551848,0.7234042553191458,1
0.742798161855716,0.3142875074417178,0.5534727091605459,0.46431512267517633,0.5710532089759186,0.7234042553191316,1
0.7799033166204734,0.30841907805163987,0.5582633016809027,0.4329240905892952,0.5763788656733475,0.7234042553191316,1
0.7447981187485992,0.3173886155185246,0.5522597130302087,0.46089222999030055,0.5787995757110767,0.7234042553191387,1
0.7749879343238202,0.3103903797833978,0.5631435818370731,0.6284228079724545,0.5819405853586258,0.7234042553191387,1
0.7471286559538377,0.31910196021941345,0.5516493168629181,0.5516105571696508,0.579156745161631,0.7021276595744439,1
0.7728258060012402,0.3116741282744878,0.5669308818205948,0.6261687280379238,0.5777043191389933,0.7021276595744439,1
0.7423436241174278,0.3205590101211776,0.552361182197923,0.5289078979489743,0.5752836091012639,0.7021276595744368,1
0.7770369764761393,0.31250237974000394,0.567559212835023,0.5807764762072866,0.5727417926008298,0.7021276595744368,1
0.7408787456754777,0.32377186052395374,0.5473479022836112,0.5716236044930139,0.5706843073367904,0.7234042553191387,1
0.7824254487002957,0.30422053939661237,0.5736290937071906,0.5189047818847418,0.5688687511548873,0.7234042553191458,1
0.7272129407377446,0.33373330937802204,0.5358058421800129,0.5844770635209265,0.5677793606770906,0.7234042553191387,1
0.8595459764105224,0.2703020461476724,0.6253106855417823,0.5562496636490438,0.5663270292688778,0.7234042553191387,1
0.8049832999036695,0.419506111140915,0.6217800618009728,0.4889294079901913,0.5656007689503466,0.7234042553191316,1
0.5958371031012102,0.7039861574980514,0.6495666738608784,0.5736836312677244,0.5653586506393617,0.7234042553191316,1
0.47549822958267707,0.5301912485519318,0.9301677909786272,0.5426826234446029,0.5679004671397954,0.7234042553191387,1
0.3761972318288824,0.5558678088888312,0.9239169828966314,0.4815699977769724,0.5659638044951885,0.7234042553191387,1
0.4163886431547731,0.5485535466999764,0.9193138247419956,0.5391045034149831,0.5826667510627329,0.7234042553191173,1
0.3904526593436758,0.5662614406973776,0.9138931516845432,0.6603993958855606,0.5815774551993608,0.7234042553191173,1
0.39219112250794497,0.5006645145071836,0.933063872556816,0.5907965222965885,0.5795198753208969,0.7234042553191458,1
0.5847183762709702,0.5704832196668442,0.7633297110432098,0.5922140689982902,0.5790357333133509,0.7234042553191458,1
0.9126208292164397,0.613637241373283,0.3776696069409353,0.5119036981500266,0.5458719584892461,0.7234042553191387,1
0.839504250076657,0.5192891626883472,0.3618075140675778,0.4756456677343223,0.5217858699602322,0.7234042553191316,1
0.9211700152335078,0.5548233707690959,0.4681770517318501,0.4022436164161228,0.5204603218801626,0.7234042553191529,1
0.6337785417220878,0.6213624451556529,0.7153673022423754,0.43710910770419853,0.5399472032591259,0.7234042553191529,1
0.33850274765581495,0.5378377518464615,0.937874284549131,0.5343685503030245,0.5647594574922467,0.7234042553191458,1
0.44151604084523566,0.5670336587792922,0.9183349064089519,0.5441391946112073,0.5199762744870411,0.7234042553191458,1
0.6094727483697828,0.5958988732606241,0.7843741057544493,0.693292717659827,0.5286908306228663,0.7234042553191529,1
0.8852638840846234,0.6107609200997701,0.5544928590190923,0.8562875199518366,0.5108985881919494,0.7234042553191529,1
0.7829072453357993,0.5595860454227881,0.6345599576586576,0.4835744636903847,0.4713198608070438,0.7234042553191173,1
0.8019146772090995,0.5582156924305249,0.7303757983029047,0.39532505199689233,0.47583807801015976,0.7234042553191173,1
0.5916971623380433,0.6295607970236421,0.8419501797152557,0.45334970325034557,0.48757849803954156,0.7234042553191244,1
0.8205878412625038,0.5451590633475533,0.5443258912489446,0.21913251164612974,0.5082755925157337,0.7234042553191244,1
0.8924308701686334,0.6300097027823774,0.3554753190569626,0.5396944928303787,0.512874988894632,0.7021276595744794,1
0.8083556503146945,0.6235159808400658,0.3650903141101489,0.7538894765486887,0.5033131605919946,0.7021276595744794,1
0.84667287867334,0.6303751363449271,0.3801823208850855,0.7548745214547616,0.5063390244855502,0.7021276595744723,1
0.8239002258088308,0.6274469701365768,0.3887908912462762,0.3942613012643571,0.5071862966523617,0.7021276595744723,1
0.8430831312327367,0.6310771682538092,0.41489800175546704,0.14839872405727533,0.5079124623564686,0.7234042553191529,1
0.8318988257721434,0.626608297407291,0.4128189682798613,0.49211943232021244,0.5060970007889894,0.7234042553191529,1
0.8418885820044193,0.6285255232831574,0.4192058257452587,0.732986070562468,0.5073073085006424,0.7234042553191529,1
0.8350112792997186,0.6261095579217464,0.4149329527198746,0.6884870398965492,0.5059759889407093,0.7234042553191529,1
0.8437535821891295,0.6311456039981331,0.41935381009972084,0.5536232522151838,0.5062180126372701,0.7234042553191316,1
0.8349009891684971,0.6277183434071029,0.4148284132372375,0.5213701538044088,0.506823166493096,0.7234042553191316,1
0.8405386912695314,0.6301012517101773,0.41929772550712696,0.6268264213254306,0.5017397227210768,0.7234042553191458,1
0.8376852413451086,0.6294297707591298,0.41512719349883653,0.5427213110872816,0.5040393262961014,0.7234042553191458,1
0.8417315803178205,0.6309343526317128,0.41815865952997106,0.5457209281041673,0.5045234683036478,0.7021276595744368,1
0.837825827643202,0.6291508616228358,0.4152965296523062,0.597441885839922,0.5042814446070862,0.7021276595744368,1
0.8415128149774667,0.6316258020312806,0.4180178645441063,0.5215858798927969,0.5033131605919952,0.7021276595744581,1
0.8380438215301089,0.629371845916124,0.4154129552915795,0.5446137835619418,0.5034342670546991,0.7021276595744581,1
0.841312038777438,0.6327536391002566,0.4179257968007259,0.5862302678913117,0.5023448765769026,0.7234042553191173,1
0.8382243276386596,0.6289670122099256,0.41547743234723833,0.5066416112707187,0.5031921487437145,0.7234042553191173,1
0.8411510562094204,0.6271640993776709,0.41789308235840006,0.5364419330423635,0.5031921487437145,0.7234042553191316,1
0.8383676619468132,0.6245945725398568,0.41555139931908236,0.5770292557801912,0.5034342670546994,0.7234042553191316,1
0.8410232260543264,0.6271296024518995,0.42171692433009755,0.5106909312857171,0.5027080067361681,0.7234042553191244,1
0.8384821296415965,0.624339563902409,0.41976367297874606,0.5298170943786606,0.502829018584449,0.7234042553191244,1
0.8409200250959172,0.6239571959983553,0.421293073791839,0.5763260740831383,0.5017397227210766,0.7234042553191316,1
0.8385761867916317,0.6238641353072528,0.4209551182514593,0.510077634596694,0.5018607345693568,0.7234042553191316,1
0.8408327828660638,0.6254600302730228,0.42040872999611045,0.5370079509813864,0.5018607345693574,0.7446808510637766,1
0.8386595021148964,0.6250691896289636,0.41903063028097653,0.5637912027193099,0.5022238647286232,0.7446808510637766,1
0.8407491952536525,0.6267341612525488,0.4188015931142251,0.5103326899672336,0.5006503322432803,0.7446808510637837,1
0.8387507389069211,0.6248712328586314,0.4174414524664703,0.5484284675533344,0.4994400245316273,0.7446808510637837,1
0.8406339269910668,0.6268164232914542,0.4185065867508736,0.5490585172254289,0.49931891806892337,0.7446808510638334,1
0.8389431090837303,0.6248277676276263,0.4161962026800944,0.504246177476782,0.5005293203949998,0.7446808510638334,1
0.8394428204701567,0.6268418846037315,0.41791379587209576,0.5700114854488836,0.49810861035727017,0.7446808510638263,1
0.8383189215352098,0.6248121237109968,0.41835752535968623,0.5231253744732658,0.4994400245316276,0.7446808510638263,1
0.8414490230248635,0.6268516969464136,0.42237745788700265,0.5221442967958553,0.49980315469089254,0.7234042553191671,1
0.8383771713674206,0.6248058474479374,0.4235395981120732,0.5799227590786012,0.4978664920462854,0.7234042553191671,1
0.8409715694075881,0.6268560401568162,0.42435597663438784,0.5090214822693877,0.49786649204628564,0.72340425531916,1
0.8385290799825109,0.6248019657404226,0.4233565426004061,0.5489626468190377,0.4979875985089902,0.72340425531916,1
0.840891118297026,0.6268613726919982,0.4224499307004643,0.5837575532977405,0.4972614328048831,0.7234042553191244,1
0.8385858186628647,0.624791679061083,0.42122191193591074,0.5044608992100038,0.497019314493898,0.7234042553191244,1
0.8408341662485741,0.6268854620832164,0.4205359160339534,0.5467751151568317,0.49568790031954124,0.7234042553191316,1
0.8386725879284784,0.6247197773955608,0.4196811494908814,0.5886305442311033,0.49568790031954124,0.7234042553191316,1
0.8406379370389392,0.6273944668560916,0.4200919275493236,0.5209989675199334,0.4961720423270872,0.7446808510637979,1
0.8395284073711111,0.6256245693999449,0.41756978414777435,0.4952483358252496,0.49532477016027543,0.7446808510637908,1
0.8414875119862977,0.6274856795260624,0.4388234828505857,0.5828590716753164,0.4964141606380723,0.7446808510638121,1
0.838104994233908,0.6224396036694411,0.45278301769083723,0.5800039760273537,0.49496173461543413,0.744680851063805,1
0.8430390485897721,0.6250232215573875,0.44128358672043727,0.5014942021456431,0.4949617346154347,0.7234042553191458,1
0.840530569175004,0.618728098976725,0.4393475652271039,0.5173772337369555,0.49350921397837233,0.7234042553191387,1
0.8425715883774225,0.6195378095007824,0.4424383395244136,0.5910961166540986,0.4947196163044496,0.7234042553191529,1
0.8405940309781712,0.6182787726316156,0.4432145022267451,0.5269312967925259,0.494114462448623,0.7234042553191529,1
0.8434163572492761,0.6225729693712595,0.4474798467884244,0.4668921187543725,0.49399345060034316,0.7234042553191316,1
0.8388787827923079,0.6258043843208483,0.44642309714265277,0.5806393031523327,0.4927830482742661,0.7234042553191316,1
0.8434511298691458,0.6260665176922372,0.44702804154216896,0.6014581886939692,0.493025166585251,0.7234042553191458,1
0.8367291690217984,0.625575630369325,0.446979426229957,0.5078469471405925,0.4924199181150004,0.7234042553191387,1
0.8434087256130716,0.6259881317936531,0.4453183205837922,0.5629110894472735,0.4916936577964697,0.7021276595744439,1
0.8384315770701352,0.6238711808796384,0.4555217030752039,0.5335511719361046,0.4913306222516286,0.7021276595744439,1
0.8424369228859867,0.6258984891053773,0.4571912296638045,0.47926271784883,0.4906044565475214,0.7021276595744439,1
0.8380743746502031,0.6248349719911229,0.45618286532526264,0.5601546533906346,0.49084648024408195,0.7021276595744439,1
0.8440597642608314,0.6260325132393909,0.45523076208007063,0.5370135447992008,0.48987819622899087,0.7234042553191316,1
0.8352031615672446,0.6258867112595872,0.45590717226093125,0.5244359066368913,0.4913306222516284,0.7234042553191316,1
0.8448865668049346,0.6254890541526523,0.45617849385787035,0.5958550999670043,0.48951506606972495,0.7234042553191316,1
0.8337093325560256,0.6265922617165877,0.453121268295747,0.5224832196940815,0.4896361725324295,0.7234042553191316,1
0.8481845580287142,0.6233752045285148,0.4566781299298546,0.5314756080042772,0.48685233233543457,0.7446808510638263,1
0.8302677838610681,0.6211874494880889,0.4589152050517663,0.5877075585264584,0.48927304237316416,0.7446808510638263,1
0.8537020301510987,0.6160940322901056,0.4629013674172646,0.515858183389204,0.48842577020635314,0.7446808510638192,1
0.8252149762457299,0.6231544343075951,0.46491911748419595,0.5296741891031751,0.4875784980395417,0.7446808510638192,1
0.8842418408333041,0.6038251648527863,0.48642846252271676,0.5900291883608536,0.4873364743429808,0.7446808510638121,1
0.8237354472813057,0.6027628619441909,0.6591009509378396,0.51155732546022,0.48769950988782207,0.7446808510638121,1
0.6333593084138074,0.6316171764529724,0.6940776814986935,0.5220996127689461,0.502465888425184,0.7446808510638192,1
0.9008850816747349,0.6124970259106522,0.5652575861313527,0.5979807532777291,0.501255486099107,0.7446808510638192,1
0.7971192158311742,0.6492098947690964,0.503653011459685,0.5791567796025219,0.5057338706297236,0.7234042553191173,1
0.8544579926183817,0.6332272097617054,0.4990447821251336,0.5822377845447926,0.5114224682575702,0.7234042553191173,1
0.8233199226292927,0.6291156189614424,0.5187015109487547,0.4669610616808194,0.513117012591193,0.7234042553191387,1
0.8490512262630834,0.5642892267234683,0.5014888473137508,0.4423319552186276,0.5001661902357343,0.7234042553191387,1
0.7340474812535736,0.5821401395560144,0.6301346461878724,0.5668580153308926,0.4985927523648166,0.7234042553191316,1
0.6238305777218036,0.40129376727138766,0.8432257260511904,0.5760296334219682,0.5039183144478212,0.7234042553191316,1
0.6339903472356547,0.2705989131710915,0.7568242701399208,0.574323049702419,0.507065190189658,0.7234042553191458,1
0.586422365502951,0.30466468321436724,0.7810322079533669,0.5156779859894832,0.5065811427965353,0.7234042553191458,1
0.6184474193023168,0.3284993096499002,0.760874751991061,0.6221390346806475,0.507065190189658,0.7234042553191387,1
0.6205603848102594,0.32333540653709064,0.7744546598648476,0.6146348219978645,0.5060970007889896,0.7234042553191387,1
0.614608494388041,0.32064973187295553,0.7586299771500857,0.4191957249335967,0.5063390244855508,0.7234042553191529,1
0.6168940974821167,0.316001862151833,0.7714507625183431,0.4877581565206758,0.5071862966523619,0.7234042553191529,1
0.6099655265931275,0.3200760218069544,0.756706704600199,0.51157569346172,0.5068231664930967,0.7234042553191316,1
0.6208726932940178,0.3143140795674415,0.7707508225988045,0.5166751101320608,0.5054917523187389,0.7234042553191316,1
0.6160178617149105,0.3213338058486035,0.7572805521174685,0.5709324767411527,0.5056128587814438,0.7234042553191316,1
0.6283029678483827,0.3134551226392541,0.765338317749167,0.5539036668603958,0.5063390244855503,0.7234042553191316,1
0.6408967305431823,0.3476144145924687,0.7569637491704556,0.536233910246271,0.5069442729558012,0.7234042553191458,1
0.5911795478054851,0.35283505386828395,0.8139483424156508,0.5581564196284654,0.5079124623564686,0.7234042553191458,1
0.4964849047717488,0.3789368973937416,0.833886942707395,0.5564156570972809,0.5085177108267187,0.7234042553191387,1
0.5633098095693642,0.4231828877436783,0.8708345334090462,0.5274959600907666,0.5097280185383712,0.7234042553191387,1
0.5586722235308021,0.46483191928253276,0.8592474483548569,0.5677335362147601,0.5114224682575708,0.7446808510638334,1
0.5562586717974259,0.4782324624967753,0.8533235493636679,0.5594026439775207,0.5122697404243812,0.7446808510638334,1
0.5458747451635221,0.4411530594029589,0.858672637395397,0.5512589641695756,0.5069442729558007,0.7446808510638263,1
0.6142384770436129,0.4069279369242886,0.8639777575123222,0.5540583240315061,0.50875973452328,0.7446808510638263,1
0.5129128328581468,0.4227380048206395,0.7937957960283958,0.5467574127501643,0.5087597345232797,0.7234042553191387,1
0.8260405852432848,0.35432510740437206,0.53463651459333,0.540164681611829,0.510938420864448,0.7234042553191387,1
0.8199468400296905,0.394060102626003,0.2845610201922858,0.5511348744654498,0.5039183144478215,0.7234042553191529,1
0.7978998611650148,0.3725803853230124,0.4194807170398629,0.5155735951618446,0.5052497286221787,0.7234042553191529,1
0.8197473156972754,0.3918214468671961,0.4251165051953398,0.5360388922250313,0.5030710422810104,0.7234042553191173,1
0.8122888858353461,0.3734032114334268,0.42849704208475514,0.4574713376526579,0.5054917523187391,0.7234042553191173,1
0.8146778646523212,0.39664906204997097,0.41192621808441543,0.44731363275549574,0.5051287167738979,0.7234042553191316,1
0.8754282895244296,0.34457778127553385,0.48024664181390514,0.6892596472190275,0.5041604327588056,0.7234042553191316,1
0.7137011692771558,0.41933253222947536,0.7885974538401639,0.43351223036807507,0.5044025510697913,0.7234042553191316,1
0.6042161241882911,0.7284502571617253,0.7156354396377897,0.5222494854193273,0.5069442729558007,0.7234042553191316,1
0.44785286998593876,0.6279195839067703,0.8760748534002791,0.5991746832656811,0.50621801263727,0.7234042553191458,1
0.4792756460777033,0.6518415856428942,0.9096516379745997,0.5062204817547449,0.5079124623564686,0.7234042553191458,1
0.4895775188277548,0.6673650386085201,0.8607943115079744,0.6235589260713371,0.5111805391754334,0.7234042553191316,1
0.6230610562386989,0.6506924602995188,0.8410939555604895,0.7059392763273675,0.5102121605459174,0.7234042553191316,1
0.6837485821316662,0.664679459724222,0.7734438789413226,0.6222688682273336,0.5074283203489225,0.7234042553191458,1
0.5561343607519921,0.6431243983412623,0.8596849573258014,0.5117590645178054,0.5052497286221783,0.7234042553191458,1
0.5649851636478094,0.6580146351556417,0.8504720192375372,0.49748356079169953,0.5067021546448156,0.7234042553191244,1
0.5449645379017625,0.6433145214079632,0.8715078822736058,0.5041127457305278,0.5062180126372696,0.7234042553191244,1
0.5446871116819246,0.6546624337281839,0.8612309229522972,0.5647246489290376,0.5058548824780041,0.7234042553191316,1
0.5087015598563249,0.6399228569940496,0.8862017198695848,0.5601307073638271,0.5046444801519273,0.7234042553191316,1
0.532558284749934,0.6548632048695975,0.8634815797667885,0.43444154630778026,0.5063390244855503,0.7021276595744723,1
0.4992476987963381,0.639070644494755,0.8921286385326596,0.4514904515788117,0.5062180126372701,0.7021276595744723,1
0.5287746069651607,0.6565968799185921,0.8618009935090509,0.5316834213129874,0.5069442729558007,0.7021276595744581,1
0.47154022892356007,0.6384070908520573,0.9108249379799938,0.5807874139379753,0.5058548824780044,0.7021276595744581,1
0.46328309883480545,0.6675270371719487,0.8754643747444825,0.5537011009439455,0.5075494268116271,0.7234042553191387,1
0.3676182476220477,0.6353939200275305,0.9358604274041943,0.5495514240710696,0.509122864682545,0.7234042553191387,1
0.607836444088244,0.7271049274434733,0.7664816745473426,0.5674757700073282,0.5079124623564683,0.7234042553191316,1
0.661869848136493,0.8710463146300333,0.37980972089033943,0.5705515286101934,0.5058548824780048,0.7234042553191316,1
0.539002154455946,0.9242150181242083,0.3991537884692682,0.6073354651039617,0.4919357761074543,0.7234042553191173,1
0.5935001258188408,0.9295820175491873,0.3514939308922117,0.5529945185799191,0.49883487067580135,0.7234042553191173,1
0.5452518648747892,0.9451057141775774,0.3720018786642628,0.45250560926781924,0.496414160638072,0.7234042553191244,1
0.5676488203681791,0.9364979712787956,0.34568136303820124,0.40170991665239875,0.4950826518492909,0.7234042553191244,1
0.5433747745229373,0.9384262175450007,0.3645492544622724,0.5431175005907615,0.49447749799346485,0.7021276595744368,1
0.5807392159256904,0.9269411015535515,0.34331526209236757,0.5608375153131107,0.4961720423270871,0.7021276595744368,1
0.5676988871888479,0.9098530003426943,0.36317251134890005,0.5901708287715235,0.4938724387520629,0.702127659574451,1
0.7828674792031964,0.7136168938642187,0.42408798327167796,0.5415735060383489,0.49375133228935775,0.702127659574451,1
0.6329509821678432,0.46294681884267425,0.8477419135859097,0.5917652603494636,0.4867313204871545,0.7234042553191173,1
0.5327112344355491,0.27182725713216804,0.8154751029532488,0.5518230671452575,0.49568790031954124,0.7234042553191173,1
0.49244570213304517,0.17255175931639744,0.6477217492853476,0.5004517677603876,0.5056128587814438,0.7234042553191316,1
0.45917769592977964,0.14995833179923163,0.6726876894213498,0.5014147488153871,0.4868523323354349,0.7234042553191316,1
0.4402272755753314,0.1283813127996709,0.5914509339475305,0.4806260836663995,0.47172282363880824,0.7021276595744581,1
0.48335539835901936,0.18030397354839023,0.7256456530830373,0.6469556231534931,0.4804373797746341,0.702127659574451,1
0.5693833720117094,0.3839654732568486,0.780251224260177,0.5960852231869092,0.4772905040327976,0.7021276595744723,1
0.4251476693793479,0.222739404006442,0.8158058870688073,0.46804339921230453,0.49145172871433285,0.7021276595744723,1
0.4618652565282117,0.33808808093607634,0.8780483381718608,0.6158381343797222,0.5044025510697914,0.702127659574451,1
0.5000695195707134,0.36906390529431843,0.843389493083293,0.5930601073433375,0.5070651901896578,0.702127659574451,1
0.48912115557308206,0.3245972271495652,0.847870602887012,0.713822878730078,0.5086387226749998,0.7021276595744581,1
0.5135386974895397,0.29751300421282156,0.8126287682561202,0.521324053254185,0.5070651901896571,0.7021276595744581,1
0.5193058651195989,0.37228157216084873,0.8365607103568323,0.3326772263490177,0.5068231664930967,0.7234042553191316,1
0.5065958739975458,0.375898491567662,0.8467861659548779,0.5581812102434377,0.5047655866146327,0.7234042553191316,1
0.45193323059215657,0.2950599105213881,0.8244449285492796,0.535594555279776,0.5060970007889894,0.7234042553191316,1
0.45039269123644393,0.3165164730092338,0.8344610056853787,0.5435668936476589,0.5039183144478212,0.7234042553191316,1
0.5031148932879385,0.33376081855838347,0.8315677975655655,0.5168126668754899,0.5042814446070865,0.7234042553191316,1
0.5123716957095398,0.3015455671434961,0.8245791683150001,0.5450560421057492,0.5053707404704589,0.7234042553191316,1
0.5023380219872426,0.33925696957369333,0.8148149055703362,0.5521557145887783,0.5040393262961017,0.7234042553191244,1
0.5139259104539777,0.2102576547024157,0.8682107616664791,0.5232876040451572,0.5047655866146323,0.7234042553191244,1
0.4696884459563442,0.4004142301680131,0.8837221304993993,0.542197499051838,0.5048865984629131,0.702127659574451,1
0.578196011535575,0.6954495368581713,0.6946139985262081,0.5168582082166567,0.5064600363338311,0.702127659574451,1
0.5028324400468407,0.5148133737341688,0.9327614798565422,0.5586955896223379,0.5050077049256171,0.7021276595744723,1
0.48917427890074294,0.590195334137026,0.9014608761564913,0.5472567772662318,0.5090018528342648,0.7021276595744723,1
0.47844659008298906,0.5468201471006932,0.908592178420926,0.5903176369595357,0.5149325687730961,0.702127659574451,1
0.49446767940167596,0.5866297179364637,0.8950285486282011,0.5762530427206829,0.5156587344772023,0.702127659574451,1
0.5315588718962585,0.5779594249633139,0.8832183529358731,0.5463794155966782,0.514206308454565,0.7021276595744723,1
0.5024844368767264,0.5862781536896166,0.8895109616558701,0.5013670210838782,0.5123908468870861,0.7021276595744723,1
0.47968112000412677,0.5738955817453133,0.9045327877558849,0.48594877341667075,0.5122697404243814,0.6808510638297847,1
0.48303171640629705,0.5773703437716107,0.8971963684897003,0.5227685949626918,0.5127539770463515,0.6808510638297776,1
0.46811793907546295,0.5755530392528461,0.9016413562560652,0.5528400689745612,0.5114224682575702,0.6808510638297918,1
0.5606395208888308,0.5697797278853974,0.8670246819828951,0.5592102354722402,0.5102121605459174,0.6808510638297918,1
0.722603036448402,0.5830145981159642,0.7259370966327532,0.552515117462772,0.5093649829935304,0.7021276595744439,1
0.8337616171895039,0.5925155762905222,0.5890196535220821,0.5487773328504373,0.5060970007889896,0.7021276595744439,1
0.8196015121754232,0.5671578836309645,0.5847514826313409,0.5263473202419411,0.4869733441837151,0.7021276595744581,1
0.8569306581960561,0.6395352989718558,0.4138538794257449,0.528960956282317,0.48806264004708744,0.7021276595744581,1
0.8494454813976935,0.5693435851829716,0.5245108022602475,0.5515934752901844,0.4846736459942662,0.6808510638297847,1
0.8232241754508167,0.6073247739016676,0.5425836822531753,0.49531695136883647,0.44158500732268324,0.6808510638297847,1
0.8586704289214793,0.5748269488567006,0.4918509093435617,0.4987906645363206,0.47922707206298143,0.6808510638297847,1
0.8918506866364133,0.5685483834090136,0.5473287385372494,0.5387561270970752,0.45780371726825786,0.6808510638297847,1
0.6142840169593486,0.6898470253284064,0.7768135441938949,0.5488788240407076,0.45986139176114615,0.7021276595744439,1
0.37271006772710247,0.5852780011055153,0.9098778440130477,0.6485970808698164,0.49726143280488333,0.7021276595744439,1
0.4627832657328786,0.5627877259723573,0.9088753249793535,0.6890163753973284,0.49689820803119344,0.7021276595744439,1
0.472056023218271,0.6109799951130683,0.907496437527477,0.40409037723861774,0.5034342670546992,0.7021276595744439,1
0.40915825260539934,0.5598470255120374,0.9144014877382457,0.7236126894467023,0.5028290185844487,0.6808510638297847,1
0.406476096684508,0.5843536143367449,0.9140826361534344,0.5750660671788165,0.5035552789029794,0.6808510638297847,1
0.43036568126094227,0.5593555971661913,0.9082384186442359,0.40851782549465754,0.5062180126372701,0.6808510638297776,1
0.43225276455592415,0.5676271270265475,0.9130289140615689,0.48435428156939564,0.5063390244855506,0.6808510638297776,1
0.46789713311840664,0.5565838017052067,0.9053633500488338,0.5530743880102554,0.5041604327588065,0.7234042553191173,1
0.45652888612382425,0.5653155255170973,0.9083481825976867,0.5751193340687455,0.5045234683036476,0.7234042553191173,1
0.4849382266944496,0.5598871470398371,0.8974242645890346,0.4967547212708856,0.5063390244855506,0.7234042553191244,1
0.45565972815692,0.5627528029221147,0.9073009982238434,0.5170656175561295,0.5073073085006425,0.7234042553191244,1
0.5143427480143874,0.5112274282369001,0.9097873381348158,0.524372478496295,0.5073073085006424,0.7234042553191102,1
0.3408980661636966,0.5198687407172453,0.8494519830423737,0.5486202761750947,0.5080334742047491,0.7234042553191102,1
0.399024719996882,0.4249125752788638,0.8890011084148862,0.5677599447809004,0.5017397227210768,0.7234042553191316,1
0.5602545141548632,0.25530185635394664,0.8445675475760905,0.5367877360042824,0.505975988940709,0.7234042553191316,1
0.47930937488044384,0.27619635557204586,0.8052200232041189,0.5426693110211995,0.5076704386599072,0.7021276595744865,1
0.561025185242507,0.3186012395142488,0.804220680177937,0.44494145755957254,0.5048865984629127,0.7021276595744794,1
0.5068365497451501,0.28766061303900914,0.8089433197880425,0.6425123485833037,0.5044025510697913,0.7021276595744936,1
0.5176462901739425,0.30216868085893533,0.8033727870113763,0.5704589820932828,0.5110594327127288,0.7021276595744936,1
0.4998130907058959,0.28500979367113777,0.8062193198867507,0.4012392113435569,0.507186296652362,0.6808510638297776,1
0.5028672737059494,0.2984096954129333,0.8012123117429037,0.6947903266773836,0.5062180126372701,0.6808510638297776,1
0.5011444217301813,0.2853395752955633,0.8069133512697251,0.823239056310777,0.5073073085006424,0.6808510638297847,1
0.5115368657629568,0.29802874446124816,0.8051618427659544,0.6438247193824967,0.5044025510697914,0.6808510638297847,1
0.4945074476987541,0.2926711181671831,0.8107248429371557,0.35034499392665475,0.5040393262961016,0.7021276595744439,1
0.5058712876957938,0.30152922369413154,0.8085982311477153,0.39183685076559066,0.5028290185844484,0.7021276595744439,1
0.5017564146062006,0.2943968481017752,0.8119221809648123,0.4564520725615993,0.5017397227210766,0.702127659574451,1
0.5083796115238028,0.30074898846383297,0.8086980794941148,0.4330883262767389,0.5000452730018777,0.702127659574451,1
0.5059564771505807,0.2949856333484995,0.8117518514240277,0.45615095791722315,0.5013765925618116,0.6808510638297918,1
0.509036067353013,0.3004061491799608,0.8088723576210683,0.30674823565767095,0.5019817464176373,0.6808510638297918,1
0.5073632964335056,0.29437269164494334,0.8115790214438408,0.5303197985947389,0.5011344742508261,0.6808510638297847,1
0.5080856533813819,0.3019744648752033,0.8090537033952994,0.7129005018498918,0.5007714387059845,0.6808510638297847,1
0.5033868660511672,0.2983590595551855,0.8113478498319379,0.6090881875514906,0.5006503322432804,0.7021276595744723,1
0.5091786477000106,0.30553382514817795,0.8099172476929624,0.5776650544240469,0.500287202084015,0.7021276595744723,1
0.5076525477317941,0.29950392951562477,0.8116788267225874,0.6179642313630351,0.49919800083506694,0.7021276595744581,1
0.5105128631784068,0.30650730586039426,0.8090725814874784,0.5575334529866055,0.4981086103572707,0.7021276595744581,1
0.510466505321189,0.3007000903792463,0.811368440290236,0.5556438725609567,0.4979875985089902,0.7446808510638121,1
0.5054912535289612,0.3024778848937454,0.8092431183501293,0.5986513641970584,0.4990768943723618,0.7446808510638121,1
0.5036430123711604,0.2960391002047823,0.8112285407179214,0.552986228636901,0.49810861035727083,0.7446808510638192,1
0.5040710703421418,0.2997798509817358,0.809373883162208,0.5354893566358909,0.4971403263421791,0.7446808510638192,1
0.5036723138598564,0.295133478987633,0.8110974044473573,0.5816100036193583,0.4971403263421791,0.6808510638297705,1
0.5040016427954364,0.2994302024356289,0.8095127779617833,0.5511946845266809,0.49701931449389836,0.6808510638297705,1
0.5037469882960026,0.29542019074163484,0.8109419898713179,0.5302181958805514,0.4967771961829137,0.6808510638297918,1
0.5039222412195324,0.2990455491470828,0.8096983433984388,0.5689418488635654,0.4967771961829135,0.6808510638297918,1
0.5039852553770426,0.29729390943441397,0.8107005054168679,0.548838062536385,0.4975034565014437,0.7021276595744439,1
0.5052810727771699,0.30044700927496626,0.8100555040765888,0.5258390418973018,0.49605103047880694,0.7021276595744439,1
0.5022634655300547,0.29721087214248976,0.8100379615072566,0.5565713206172609,0.49496173461543425,0.7021276595744581,1
0.5083985066777581,0.30127621300732177,0.812296644297793,0.5324798357538495,0.49568790031954135,0.7021276595744581,1
0.5002435101016515,0.30083056384260765,0.8166672069401315,0.5298392472372243,0.49496173461543447,0.6595744680850828,1
0.4548690954939486,0.3021242437098582,0.8264833992526787,0.5530734406093998,0.49544587662298034,0.6595744680850828,1
0.43140644864920535,0.30908584758625096,0.8363658620867502,0.5274767662650173,0.49665627894905695,0.659574468085097,1
0.3541562351164884,0.3128370722435404,0.8400558259125216,0.5382873766213753,0.49605103047880594,0.659574468085097,1
0.42292980475415337,0.2753093961024811,0.844865775511872,0.5740335863836332,0.4973824446531635,0.6808510638297633,1
0.5434416921325901,0.30740360741740846,0.800654997876745,0.5522907845731597,0.49762446834972485,0.6808510638297633,1
0.6415112225555762,0.32619202101050015,0.7532905660830449,0.5596403468276872,0.49290406012254606,0.6808510638297633,1
0.5473099306099565,0.32654596220657317,0.8098142748181454,0.5526560107301561,0.4901202199255512,0.6808510638297633,1
0.44293888133409154,0.3283241869643735,0.8331602078492881,0.5599931297126484,0.48987819622899087,0.6595744680851183,1
0.5068566276785268,0.3249257465858041,0.8320222444831886,0.4547865253930293,0.49363032044107713,0.6595744680851183,1
0.5025262451887149,0.3117667264356223,0.8195575427775217,0.4326379066632491,0.49290406012254606,0.6595744680851112,1
0.5401960960524552,0.31363885064105435,0.8075745345575676,0.4392591798275884,0.49338820213009205,0.6595744680851112,1
0.5559792983985752,0.3073561227626405,0.796420476782163,0.6067855176513661,0.49556688847126074,0.6808510638297989,1
0.5530288126983567,0.308377696510132,0.7949346227291365,0.6024261939314716,0.49665627894905673,0.6808510638297989,1
0.5085800651146238,0.302933342671887,0.8144483195094974,0.8558364879291975,0.4939934506003423,0.6808510638297918,1
0.52238947657266,0.3093899676086901,0.8054467960738145,0.5157496140053935,0.49229890626672,0.6808510638297918,1
0.5180581419138846,0.29115926124809877,0.8040419349312549,0.3780948307253664,0.4924199181150002,0.6808510638297491,1
0.5254940904589009,0.2823644310640673,0.7890553554438097,0.42395884616785856,0.4929040601225464,0.6808510638297491,1
0.5095254386494439,0.28572377453952136,0.8007829001069802,0.43550398852577243,0.49326719028181165,0.6808510638297633,1
0.6252041905007533,0.30674060966405253,0.7236453686987729,0.5980897990970955,0.4912096104033481,0.6808510638297633,1
0.8060099814242014,0.3462513004597976,0.4720320831889254,0.6068735854299641,0.4886678885173381,0.7021276595744226,1
0.7842793648037281,0.3354921202088965,0.40650915388952763,0.6205677902655673,0.48358435013089396,0.7021276595744226,1
0.7854244793325207,0.3197827998251718,0.39820492019668446,0.6259884273571457,0.48273707796408327,0.7021276595744439,1
0.7689524576219233,0.32624457853533173,0.37578838827712224,0.5267283500496887,0.48201091225997617,0.7021276595744439,1
0.7684348535390728,0.3118335679643578,0.36022384817748687,0.4477171183069368,0.4828581844267875,0.6382978723404094,1
0.7580655741554564,0.3230728710909209,0.34183634371833255,0.5359393149617399,0.4828581844267875,0.6382978723404023,1
0.8066285154714796,0.3152587452065769,0.38781019718254495,0.49643359853601604,0.4464264273981423,0.6382978723404165,1
0.7984637980670337,0.3813931330478728,0.47474171924662684,0.5466966825624239,0.4557461373897941,0.6382978723404165,1
0.6910087938283298,0.3846705783654884,0.6738665359997292,0.5769521819870187,0.4792270720629819,0.6808510638297847,1
0.5911260770442641,0.28329433524525693,0.8333424327365132,0.5571372169631985,0.48443162229770564,0.6808510638297847,1
0.5182868737825701,0.310623324730012,0.795301007569893,0.590548373680093,0.49568790031954124,0.6808510638297918,1
0.5527534642330186,0.307602721654349,0.804106832678488,0.5937953965120675,0.4925409299632809,0.6808510638297918,1
0.547678453929695,0.30752637999661886,0.7918789444251585,0.6405249023323263,0.49108850394064363,0.6595744680850899,1
0.5488319371219954,0.3046767224214224,0.7979799721635488,0.558270520225403,0.49145172871433296,0.6595744680850899,1
0.5444164742528633,0.30507633340069096,0.7933757120201897,0.3276060684772303,0.4866102140244498,0.659574468085097,1
0.5448766610226801,0.30214220590918894,0.797131846019872,0.4770505245435191,0.4884257702063528,0.659574468085097,1
0.5428997267290316,0.300827553983195,0.7939221124913429,0.5279980859747414,0.48842577020635347,0.659574468085097,1
0.5477486349210101,0.30512725795157564,0.7967560673943803,0.5735984964080053,0.48842577020635314,0.659574468085097,1
0.5435337282484181,0.30270757769581763,0.7941905911239712,0.5213148125413654,0.48830466374364856,0.6595744680850899,1
0.5502661271429778,0.3055277748787951,0.7965600344067179,0.5543583544731648,0.4883046637436482,0.6595744680850899,1
0.5494361502007667,0.3034606177200334,0.7943350607006379,0.5482393107712233,0.4879416281988067,0.7021276595744581,1
0.5507829771668786,0.3055498830248907,0.7964538333849964,0.542225787938463,0.48721546249470005,0.7021276595744581,1
0.5509257000984435,0.30338711328541784,0.7944118610513122,0.5547582768707758,0.4862471784796085,0.702127659574451,1
0.5532054466644359,0.30564842332123954,0.7964002863214064,0.5390167120758492,0.4866102140244499,0.702127659574451,1
0.5506177558403492,0.303263060313415,0.7944465759791761,0.5305045156909104,0.48673132048715473,0.6595744680850899,1
0.5546324553985191,0.3058170452123062,0.7963810739829434,0.5642030097913402,0.48539990631279717,0.6595744680850899,1
0.5514887552875298,0.30297383049144744,0.7944530018550351,0.5145359113328303,0.48709435603199613,0.6595744680851041,1
0.5544553930595603,0.3069276068107344,0.7963848221834131,0.5648230480096393,0.4868523323354349,0.6595744680851041,1
0.5516961460813106,0.3042804931155146,0.7944425158765529,0.5433252465588769,0.4867313204871544,0.6595744680850828,1
0.5530201799796072,0.30535666663345684,0.7963948938799309,0.5327314730473431,0.48757849803954156,0.6595744680850828,1
0.546362380228186,0.30350845816780603,0.7944600299979357,0.5656138975289381,0.4869733441837155,0.6595744680851041,1
0.5491140811455304,0.30494359367195945,0.7956012361062212,0.5591353387659022,0.4864892021761694,0.6595744680851041,1
0.5455094453006579,0.302872824718661,0.7941614610736237,0.5086761149917493,0.48539990631279695,0.6808510638297705,1
0.5540589118510965,0.3060421439243403,0.7966465692574938,0.5557241149348037,0.4856419300093585,0.6808510638297633,1
0.5503450637155599,0.30289195624708976,0.7941585201180725,0.5642083608385124,0.48539990631279795,0.6808510638297847,1
0.5531673286782395,0.3061637247351543,0.7967217632586232,0.5345593912288228,0.4855209181610777,0.6808510638297847,1
0.5520896220427725,0.3027244605892264,0.7940533812512797,0.5170866300980563,0.48491576430525163,0.6595744680850899,1
0.5540904062554994,0.30636662581264906,0.7968499990509998,0.5690263923978214,0.486005060168624,0.6595744680850899,1
0.5518621007209445,0.30248335586533015,0.793902520936516,0.5400870215367379,0.4840684921384403,0.6595744680851041,1
0.5541637877344434,0.3066544410438734,0.7970255069789638,0.5288700349014983,0.4855209181610778,0.6595744680851041,1
0.5519107153420355,0.30213523015805444,0.7936985632613784,0.5567339011493377,0.48515778800181253,0.6808510638297633,1
0.5537132688994516,0.30708254063681073,0.7972636903988379,0.547572548749057,0.4852787998500927,0.6808510638297633,1
0.5494675126249194,0.30160640801608257,0.7934175033521933,0.513098070461114,0.48479465784254705,0.6808510638297705,1
0.5496614986515429,0.3074716563447135,0.7976014752642666,0.5650427932469766,0.48491576430525163,0.6808510638297705,1
0.5428504501319155,0.2981709961398109,0.7929967621845176,0.542511534446681,0.4834633382826137,0.6595744680851112,1
0.5469759871868455,0.30139255752245353,0.7981754394454363,0.5263372598233382,0.48358435013089396,0.6595744680851112,1
0.5399494738257752,0.2903862130516546,0.7885101858451684,0.5549538075716435,0.4834633382826137,0.6595744680851041,1
0.5382257796670027,0.29838948398904136,0.7918647142922852,0.5473647040416605,0.482616066115802,0.6595744680851041,1
0.5296183610295503,0.27719249046931155,0.7844644530625418,0.5194331274107054,0.48310020812334853,0.6595744680851041,1
0.5258495716412845,0.29278605424828685,0.7859486615636224,0.5627073152210352,0.48237404241924153,0.6595744680851041,1
0.5330196469488293,0.19272612783492477,0.7769992928463857,0.5250960296088618,0.4832212199716289,0.659574468085097,1
0.5870250919972746,0.27009395585206775,0.875380756110882,0.5362392775459695,0.4831002081233483,0.659574468085097,1
0.6889813162671026,0.7303289368737611,0.5641417333839622,0.5479930395214527,0.48358435013089385,0.659574468085097,1
0.7936814461034483,0.7027982677192739,0.3301705174334375,0.5236591949576086,0.47995323776708776,0.659574468085097,1
0.6923149550955321,0.7961828609689576,0.2755070073984141,0.5510073542211166,0.47559605431359964,0.6595744680851041,1
0.6895063212700029,0.8002773742461392,0.21975015131288084,0.6106399387230943,0.47293322596488474,0.6595744680851041,1
0.6650078269637097,0.806472917088686,0.23740027442432451,0.548606196591816,0.47390150997997704,0.6382978723403951,1
0.6658523566614158,0.8214922301071821,0.23932374199160059,0.5142958237704428,0.47365939166899185,0.6382978723403951,1
0.6665198082204894,0.8209164231468247,0.2360263653625277,0.4850962565215551,0.471964941949793,0.6382978723404165,1
0.6824498343824996,0.7847380666344661,0.24046109092326812,0.5160739031283038,0.4708756460864203,0.6382978723404165,1
0.6891621322105828,0.8009791230308028,0.24312435426367407,0.6109701036657674,0.47148079994224723,0.6808510638297776,1
0.7918338053909245,0.6866302213366005,0.29419905663730916,0.5424317277333534,0.4740225218282572,0.6808510638297705,1
0.8047425586361213,0.6209160407223345,0.4341646151698491,0.5268281507968523,0.47426464013924174,0.6808510638297847,1
0.5986730238419824,0.5959346316693301,0.7840852428110261,0.5661948821059164,0.47123868163126226,0.6808510638297847,1
0.49974924362896855,0.20665258815654663,0.9015209573189187,0.5412173864024902,0.48297910166064406,0.6382978723404094,1
0.4886571913250386,0.25535886121211343,0.7702282424640401,0.6515635564837727,0.500287202084015,0.6382978723404094,1
0.5604969519380436,0.30035199209282437,0.8119979143824947,0.55979389039826,0.49835072866825525,0.6382978723404307,1
0.5241577183519384,0.3045445268327036,0.7896694345427211,0.5089439206665449,0.4994400245316277,0.6382978723404307,1
0.5439542289625409,0.30219087704954445,0.8081781482592378,0.4931742444512335,0.5011344742508262,0.6595744680851041,1
0.5269695272508341,0.302358916430068,0.7948357593599631,0.4046650198318693,0.5040393262961009,0.6595744680851041,1
0.5411508422403588,0.30438406664490936,0.8076106399278238,0.5505098407663229,0.5075494268116271,0.6595744680851041,1
0.5334809936467374,0.30516003441767264,0.7975382169042046,0.5577864943729441,0.5106963025534632,0.6595744680851041,1
0.5386847089102645,0.30190307391647103,0.8039602596490223,0.5624000942959557,0.5126328705836471,0.6808510638297847,1
0.5425577893017005,0.3070353759005578,0.7918206915891106,0.5552511638077753,0.5142063084545652,0.6808510638297847,1
0.5581788855388421,0.30539331503570966,0.7980030709414121,0.5386083199912886,0.514690545076535,0.6808510638297847,1
0.543429544402164,0.29270497936510825,0.7837614314389936,0.5545070158090116,0.513480142750458,0.6808510638297847,1
0.5256682657055141,0.2794278522649707,0.7864856781113724,0.5444939326318881,0.5122697404243816,0.6595744680850899,1
0.5204680044766639,0.27831216136950104,0.780837037207287,0.537487046797604,0.5086387226749992,0.6595744680850899,1
0.5408928131527154,0.28536752441878926,0.7865976203385665,0.553656078415762,0.5079124623564685,0.6595744680850828,1
0.53444942221088,0.28751235424933597,0.7810524135821905,0.5266139278278567,0.5048865984629132,0.6595744680850828,1
0.541472146748947,0.2876061253016234,0.7866773310384225,0.5408452674842922,0.5042814446070868,0.7021276595744439,1
0.5328084287562442,0.28502279476425096,0.783528600464501,0.54000498160889,0.5022238647286223,0.7021276595744439,1
0.5384778716451897,0.2874373317022112,0.7869243258702431,0.5398891950997272,0.5005293203950001,0.7021276595744581,1
0.534294656490226,0.2854497135249697,0.7841495865448771,0.5588956960701003,0.4989558825240821,0.7021276595744581,1
0.5398973701560403,0.28732038571483903,0.7879612756326306,0.5328059122136908,0.4983507286682558,0.6595744680850615,1
0.5352570275804781,0.28532054499115245,0.7828641731207705,0.5380915467238913,0.49738244465316384,0.6595744680850615,1
0.5380137637860637,0.2852629453686854,0.7869382392067036,0.5533353574778238,0.49677719618291416,0.6595744680850828,1
0.5362480715704853,0.28531705061235574,0.7833823693050291,0.529758587248682,0.4959299240161018,0.6595744680850828,1
0.5402878669516635,0.28685555041763705,0.7845384977316556,0.5514143733526832,0.49447749799346485,0.6595744680850757,1
0.5372140380805948,0.28759690951957495,0.7836781135069211,0.5478277116809698,0.49496173461543447,0.6595744680850757,1
0.5377325356286518,0.28587623668758033,0.7834918317281718,0.5296201392567617,0.4935092139783729,0.6595744680850899,1
0.5358070874507997,0.2856430335638698,0.7819123106272825,0.5581143261961135,0.4935092139783729,0.6595744680850899,1
0.5397410579521742,0.2856274450840301,0.7823572452970645,0.5371940681905997,0.492540929963281,0.6382978723404094,1
0.5352948995995909,0.28272997207283074,0.7822979624837112,0.5340419800523121,0.49350921397837266,0.6382978723404094,1
0.5392006234127705,0.2854592810283327,0.7841416017127945,0.5615894518262744,0.48769950988782185,0.6382978723404307,1
0.5360543974604037,0.28519242553455537,0.7821825519500478,0.5306569508483461,0.4904834446992409,0.6382978723404307,1
0.5379676374612801,0.2831438553228631,0.7804593068048458,0.533648327529803,0.4913306222516286,0.6382978723403951,1
0.5364879257890333,0.2830014681455289,0.7818936645680961,0.5669555796588451,0.4916936577964699,0.6382978723403951,1
0.5375389256437433,0.28317076466399466,0.7814218187423516,0.5268941824121038,0.49084648024408295,0.6382978723404023,1
0.5346577911887803,0.2828265633389213,0.7799290346772287,0.5398709504685234,0.48963617253242986,0.6382978723404023,1
0.5353089220625656,0.2821575454287765,0.7811634311337023,0.5649443749476619,0.49012021992555166,0.6382978723403951,1
0.5326056023547558,0.27906808185387244,0.7799793680039342,0.5253750927807745,0.48915193591046,0.6382978723403951,1
0.5329036321652446,0.2799800074319168,0.7811425431622513,0.5383303574251413,0.48927304237316416,0.638297872340388,1
0.5342434730287056,0.2812174655493073,0.7799935362117998,0.5598871332775374,0.48818365189536794,0.638297872340388,1
0.5368198267437354,0.28343066998754196,0.7811296556919112,0.5204923567015488,0.4887889003656184,0.6382978723404023,1
0.5355108476753264,0.28204466177217946,0.780006695269194,0.5494394209799354,0.4876995098878223,0.6382978723404023,1
0.5375646938608282,0.28305507064812124,0.7811158121558069,0.5491210575635361,0.48782061635052687,0.6382978723403951,1
0.5357629802941892,0.2830341621320676,0.7800212624696579,0.5212716809938712,0.487336474342981,0.6382978723403951,1
0.5374315938460981,0.2831110738798885,0.7811006037615505,0.5686610551546707,0.4880626400470879,0.6382978723404094,1
0.5358557874356435,0.2830200883084951,0.7800369989376807,0.538261522715019,0.48782061635052654,0.6382978723404094,1
0.5373575746791399,0.283119460670674,0.7810844487288482,0.529586475346656,0.4857629418576389,0.6382978723404165,1
0.5359201789653006,0.2830107862306181,0.7800534796638762,0.5737734213728669,0.4867313204871545,0.6382978723404165,1
0.5372979388617518,0.283133544795664,0.7810677132387094,0.5202365544184674,0.48673132048715473,0.6063829787233814,1
0.5359765689733145,0.2829839789045528,0.7800704243791262,0.5425017935425692,0.4874574861912613,0.6063829787233814,1
0.538290407433449,0.28410564235258895,0.7810505744753162,0.5721836944817078,0.4857629418576387,0.6063829787233956,1
0.5383658758241769,0.28392920774306185,0.7800877822136616,0.5175078034779832,0.4858840483203434,0.6063829787233956,1
0.5379301285844131,0.28293743407132177,0.7810329120558992,0.5394392798250064,0.4849157643052511,0.6382978723404378,1
0.5365610400079586,0.28346064309406327,0.7801059381218436,0.575710424191643,0.48624717847960885,0.6382978723404307,1
0.5381091076577282,0.2841028960045837,0.7810138744231893,0.5286661684662977,0.4850367761535316,0.6382978723404449,1
0.5373176310991343,0.2834831301116039,0.7801266806706462,0.5214574332484884,0.48576294185763824,0.6382978723404449,1
0.5377717574440916,0.28329572042167045,0.7809895035221082,0.5681268389783537,0.4851577880018122,0.6382978723404307,1
0.5369175998805295,0.2850485940264769,0.7801600216914357,0.5535500930890845,0.4837053619791749,0.6382978723404307,1
0.5383787262125187,0.2836424837938001,0.7809269391645681,0.5141000796090902,0.4845526341459857,0.6382978723404378,1
0.5368382125331496,0.2828838381029827,0.7804146427381551,0.5456503187965233,0.48346333828261356,0.6382978723404378,1
0.5391321914530477,0.2832899378164084,0.7821414792192452,0.5633563119893149,0.4837053619791748,0.6063829787233956,1
0.5362819632137861,0.28382463109778816,0.7806890669624162,0.5282275451116193,0.4828581844267872,0.6063829787233956,1
0.536994805229922,0.2831458607672323,0.7808798037411087,0.5266935043035357,0.4833423264343335,0.6063829787234098,1
0.5363291950133386,0.2825852958895247,0.7802066038005164,0.5611351619211918,0.48225293595653684,0.6063829787234098,1
0.5365863357417374,0.28239105960688815,0.7809325276724617,0.5389677600150641,0.48261606611580243,0.6382978723404094,1
0.5353717348750466,0.28345880248863214,0.7801959572112194,0.5254672334796024,0.48358435013089396,0.6382978723404094,1
0.5339718210954072,0.2803671285409316,0.7809319040958811,0.5530376876884512,0.483100208123348,0.6382978723404094,1
0.528450774309068,0.27918016255941425,0.7802005464318205,0.5449370048634117,0.48237404241924164,0.6382978723404094,1
0.5316627526790062,0.2807355324132359,0.7809259363713561,0.5239984040946719,0.4814056637897257,0.6382978723404307,1
0.5340503235454012,0.2827836368662436,0.7802066928326796,0.5510581268972878,0.48213192410825645,0.6382978723404307,1
0.5373012973187016,0.28320366202252867,0.7809203300085492,0.5384951279067592,0.48213192410825656,0.6382978723404165,1
0.5358853433873927,0.28294486955174847,0.7802111916339198,0.5274887750878068,0.4818898057972717,0.6382978723404165,1
0.5373568906879032,0.28319451524302147,0.7809175232027934,0.5566035015007315,0.4818898057972716,0.6595744680850828,1
0.535901696193076,0.2829314390859653,0.7802115631169597,0.534211324661797,0.48261606611580243,0.6595744680850828,1
0.537330211734691,0.28321736588749635,0.7809206944584385,0.5353467273793402,0.48092152178217973,0.659574468085097,1
0.5359424879199082,0.28290167798707994,0.7802029512516446,0.5649797884215494,0.48092152178218006,0.659574468085097,1
0.5372440941306706,0.283254300331946,0.7809385883862875,0.5235689323329865,0.48104262824488475,0.5851063829786796,1
0.5362853392747124,0.28285528973138524,0.7801656943527178,0.5428157323936794,0.48176879394899164,0.5851063829786796,1
0.5382657913681879,0.28331670796165814,0.781041200547907,0.561506951480305,0.48055848623733877,0.585106382978708,1
0.5355414693738796,0.2827505683293882,0.7811070189455062,0.5200516050980749,0.47959010760782295,0.585106382978708,1
0.5376357790710328,0.28418400709894076,0.7808556405784763,0.546219188339655,0.48007434422979245,0.6382978723404165,1
0.5367710653618307,0.2829169373205349,0.7801605917266682,0.5672719614676359,0.4793480839112616,0.6382978723404094,1
0.5401662132338478,0.28331545968107474,0.781259390724254,0.51983245539145,0.4792270720629819,0.6382978723404378,1
0.5372452259502013,0.28277285815897335,0.7810181085083967,0.540211472816081,0.4793480839112616,0.6382978723404378,1
0.5378323015672831,0.28336797350530685,0.7806596240900375,0.5693472315979311,0.47910596560027696,0.6063829787233814,1
0.5381283500265978,0.28332170477705115,0.7803607663405328,0.5356753967226476,0.4782587880478897,0.6063829787233814,1
0.5408486915298691,0.283990517948967,0.7808440016325031,0.5199579000733021,0.47898504836642053,0.6063829787233885,1
0.5383159436510625,0.28222006236409547,0.7801854545595441,0.5623963995369816,0.47922707206298143,0.6063829787233885,1
0.538242937825816,0.28552732739424713,0.781250736696568,0.5520776150095988,0.48007434422979245,0.638297872340388,1
0.5393315589320791,0.2832241810714813,0.7809955737942065,0.520919112347043,0.4800743442297922,0.638297872340388,1
0.5419352015094372,0.28433019817693495,0.7807328214073418,0.5433979972106576,0.4793480839112616,0.6382978723404023,1
0.53731872627816,0.281178127613688,0.7802045011586215,0.5611344286127948,0.48043737977463363,0.6382978723404023,1
0.5413994016131558,0.28744484511376767,0.7811144996499588,0.526537902835518,0.4822529359565375,0.6063829787234312,1
0.5385988006348544,0.2745284818859916,0.782015348855314,0.5398910397524384,0.48213192410825656,0.6063829787234312,1
0.50860885583105,0.2698885728577774,0.7793310300251985,0.5561132947240376,0.48455263414598604,0.6063829787234241,1
0.5038259009338467,0.30967694461378564,0.8089127246695161,0.5312794149920712,0.4857629418576387,0.6063829787234241,1
0.5253976181172432,0.2975154659303972,0.8043462505781882,0.5357151247709687,0.4870943560319957,0.6063829787234241,1
0.5385199329133352,0.3121293118902534,0.8047519244446766,0.5604777177852799,0.4914517287143325,0.6063829787234241,1
0.5278319622313791,0.3027434559898118,0.8021018717871051,0.5350528088682133,0.49447749799346485,0.606382978723417,1
0.5309968621781977,0.306813191187249,0.8045634278588139,0.5599779117825927,0.4964141606380723,0.606382978723417,1
0.527790250772864,0.300691497491859,0.8031801886264387,0.540802666277891,0.4966562789490573,0.6063829787233814,1
0.5227962247150676,0.30315350122534845,0.8049022078617162,0.5084122752990113,0.4961720423270871,0.6063829787233814,1
0.5234800203846791,0.2996261972881994,0.8030717239098737,0.5486506082999488,0.49629305417536773,0.6063829787233885,1
0.5137615667147155,0.29743041892222755,0.8040569540424081,0.5413727729711978,0.4955668884712612,0.6063829787233885,1
0.5140954226666636,0.2940924747911975,0.8034162358512427,0.52697346756366,0.493025166585251,0.6063829787233814,1
0.51695842683585,0.2976928288647575,0.8020983703358152,0.5567900519863819,0.4924199181150005,0.6063829787233814,1
0.512681831843449,0.29093765161235574,0.803448332866552,0.5253829156854519,0.49072537378137837,0.6063829787234098,1
0.516147020963461,0.2975518403275702,0.8042144713900312,0.5453499650335958,0.48975718438071003,0.6063829787234098,1
0.5093333332165046,0.28875547126533424,0.8026668597888011,0.5481506442601508,0.48878890036561784,0.5851063829787151,1
0.4914152377847319,0.28542300698361833,0.8033802297131103,0.5284238683034547,0.4880626400470879,0.585106382978708,1
0.5018603058970537,0.2769160044291444,0.7953853634406595,0.5579958705147255,0.48249505426752215,0.5851063829787222,1
0.5257323499690989,0.3112642179598655,0.8143537696702889,0.5356465899791701,0.48394748029015966,0.5851063829787222,1
0.5214294377790536,0.3181735043267213,0.8095133051344512,0.538926743211043,0.48346333828261356,0.638297872340388,1
0.5712926623610068,0.3390602081505917,0.8000289616651113,0.5548830094029708,0.4837053619791749,0.638297872340388,1
0.6128572148103884,0.3118760703963145,0.7915010662862447,0.5097021701053335,0.4829791016606436,0.6382978723404023,1
0.5822835222931635,0.3758387364110283,0.8110647618518604,0.5702099112459273,0.4828581844267872,0.6382978723404023,1
0.618848388154249,0.4490850869757682,0.8007024912998488,0.5872997680546881,0.4835843501308943,0.6063829787233672,1
0.8523661826532325,0.4203278296834866,0.5145104504551027,0.527766030003303,0.48322121997162903,0.6063829787233672,1
0.7646670362335698,0.44368617394685095,0.19890639278932637,0.5742801492190502,0.4817687939489913,0.6063829787233743,1
0.7758475307518747,0.392248703520204,0.2647921155584524,0.5774075486119687,0.4806794980856185,0.6063829787233743,1
0.7583760999137135,0.4138412105308621,0.2414557958634482,0.5659258647131635,0.4806794980856193,0.6063829787233956,1
0.7580661917412157,0.35585893382535466,0.29054054987351396,0.5003513546936416,0.4806794980856186,0.6063829787233956,1
0.8024622816576499,0.38839367016053816,0.320835855706899,0.3435554888679145,0.47813777619960884,0.6063829787233885,1
0.7938102667969567,0.38016370715703973,0.33641858611444236,0.5781738906096321,0.4777746460403436,0.6063829787233885,1
0.8005681506764677,0.37614490667664324,0.3457934778459596,0.5365072443851651,0.4786219182071547,0.6063829787234312,1
0.7933409715052683,0.3781004347797931,0.34144466061457396,0.5052382691959195,0.4787429300554351,0.6063829787234312,1
0.8041274976320795,0.39028911836674074,0.3305429966070259,0.5805370422699229,0.47789565788862365,0.6063829787234241,1
0.795345416040768,0.37704510917226947,0.3388614481489876,0.5683738315863582,0.4780166697369046,0.6063829787234241,1
0.7955708912418047,0.3675574641523932,0.33888538596611306,0.5055499427700538,0.47668535017697167,0.6063829787233814,1
0.7913968238642453,0.3652424279215927,0.3457009844077273,0.6324869216854189,0.4777746460403438,0.6063829787233814,1
0.7865174891125293,0.3533963174415623,0.34748600059465823,0.5515077509229289,0.47656424371426687,0.6063829787233885,1
0.7819559301297158,0.3482872413421251,0.3565966765703621,0.5786614024452988,0.4768063620252522,0.6063829787233885,1
0.7839427067566593,0.348246193969928,0.34977408818805883,0.5703950213991176,0.4769273738735327,0.6063829787233672,1
0.7886022509753788,0.3646250382576962,0.3484479789110779,0.509454245369562,0.47813777619960907,0.6063829787233672,1
0.8007875084813361,0.3896175863320357,0.31704496522019293,0.5816371636375561,0.4760801963211453,0.6063829787233814,1
0.7948132716020493,0.3758750971613116,0.3665232125311084,0.518396805310068,0.47704838572181274,0.6063829787233814,1
0.7960189490040832,0.37187565681843693,0.36598600823934085,0.5485931472266105,0.4759590898584407,0.6382978723404165,1
0.7860593308957757,0.34879966601087475,0.35264752770857294,0.5662764069330192,0.48080050993389956,0.6382978723404094,1
0.7814024324814697,0.32961071080660387,0.4080561859061151,0.5159274143337206,0.4763222200177064,0.6382978723404378,1
0.7772584634657308,0.3242972416500644,0.39424869068727486,0.5483274321805033,0.4763222200177062,0.6382978723404378,1
0.7835348736536798,0.3389862968445069,0.3881450633944245,0.444646671764267,0.4769273738735327,0.5851063829787009,1
0.7913917900282499,0.34849635815610397,0.36392706677048126,0.6373623409763439,0.4760801963211453,0.5851063829787009,1
0.7863565628495964,0.35711208373200937,0.3600335175877487,0.5944601123266007,0.4772905040327978,0.5851063829787151,1
0.7699572072935843,0.35003707586401717,0.3014663380414269,0.4983184043039602,0.4755960543135991,0.5851063829787151,1
0.7479376292069305,0.35474953116809704,0.2344073719652347,0.5611994333951538,0.4803163679263538,0.6063829787233885,1
0.7613025608343399,0.35068031721931564,0.2979569322832795,0.5226961456003724,0.48188980579727203,0.6063829787233885,1
0.7911711393740672,0.3593435184450971,0.3751600917404897,0.5542199762998259,0.4810426282448842,0.6063829787233956,1
0.7786246938174062,0.37649612632830787,0.2884621603285858,0.6160198389560091,0.48201091225997594,0.6063829787233956,1
0.7855178122011695,0.3694867850035366,0.30764297878727476,0.4970211361149684,0.4834633382826141,0.6063829787233956,1
0.8054506788262938,0.37748161930354274,0.3715458474407243,0.5743432439767142,0.48249505426752215,0.6063829787233956,1
0.8054581564755343,0.3710968980756727,0.4057972858655162,0.3630819547110699,0.4814056637897257,0.6063829787233885,1
0.8099336238087964,0.36798250982353053,0.40965452460339846,0.47821436869508327,0.4852787998500929,0.6063829787233885,1
0.8095947336577698,0.37031825109089145,0.4282300481859083,0.6548518103651795,0.4832212199716285,0.606382978723417,1
0.79647340679427,0.35953656586861626,0.48571633106773343,0.5157769330842592,0.4831002081233483,0.606382978723417,1
0.8209420412651975,0.3696575523051809,0.42963179589620226,0.5880531145072485,0.48539990631279717,0.6063829787234098,1
0.8080275331337117,0.3686898199934231,0.43299536398783206,0.4443774270461697,0.48612607201690383,0.6063829787234098,1
0.8085223764445459,0.3599780663649238,0.46691305877070116,0.5737613020555944,0.48455263414598637,0.6382978723404094,1
0.808894393952785,0.3655773689573478,0.4492997946565503,0.5523984399482492,0.4890309240621792,0.6382978723404094,1
0.8119827681507266,0.36741857048903404,0.45094685805094437,0.5529197347811801,0.4874574861912617,0.6382978723404307,1
0.7994385611681354,0.362001941664941,0.4910120793444114,0.6168809624576005,0.48842577020635314,0.6382978723404307,1
0.803438177673303,0.3556963119268389,0.49084698682645184,0.502435782381062,0.4902413263882561,0.6063829787233743,1
0.8080650445835078,0.3615811402220165,0.4497593320218436,0.525083360459677,0.49120961040334776,0.6063829787233743,1
0.8033271099716612,0.3610713157925002,0.4696254487341652,0.5546870638042636,0.4915726459481894,0.6063829787233956,1
0.796032446964002,0.35549769191886216,0.49643967487463136,0.5559332558562178,0.4906044565475214,0.6063829787233956,1
0.7987147859588691,0.35614876219513697,0.4727297294972042,0.5568898654468913,0.4915726459481885,0.585106382978708,1
0.8039457918959554,0.3602709946531679,0.45479393675121293,0.5114196699639914,0.49241991811500074,0.5851063829787009,1
0.8023106153330931,0.35650431440704144,0.4744682144669691,0.5594168675856426,0.49096749209236346,0.5851063829787222,1
0.8027190394198274,0.3605945710447051,0.49533403077988836,0.5858229646701402,0.49181476425917425,0.5851063829787222,1
0.7912294340730825,0.3594537330490879,0.5431150396714849,0.4980555699215425,0.4964141606380723,0.585106382978708,1
0.7927833332770851,0.35423664676650146,0.5368304650007499,0.5295319168021341,0.4982297168199753,0.585106382978708,1
0.7907321540379124,0.3544952616064645,0.538044820169436,0.5576634367029211,0.49907689437236247,0.5851063829787222,1
0.7978667407598735,0.3556664685510336,0.520432409920437,0.5415090584573884,0.4948407227671542,0.5851063829787222,1
0.8004749813421563,0.3575152168951243,0.5153998976106093,0.5261907901980367,0.4872154624947006,0.5851063829787151,1
0.8007479995440767,0.35872302757279084,0.519302500058951,0.5277259045171026,0.49314617843353137,0.5851063829787151,1
0.7900826005347239,0.35761599306766223,0.5324664190807815,0.5840346975731338,0.49447749799346485,0.5851063829787222,1
0.7965314970805183,0.358549991921041,0.5129300858111449,0.5507326343006447,0.4947196163044496,0.5851063829787222,1
0.8022431067117245,0.35889310960867793,0.5062251016298439,0.49272543910580446,0.4926620364259853,0.6063829787234098,1
0.799997769550441,0.35583824953469123,0.5105065267392775,0.547769477353374,0.4915726459481894,0.6063829787234098,1
0.7996158326314424,0.35460182083691,0.49897460213294426,0.5847147157142146,0.4907253737813779,0.6063829787234098,1
0.7992700584282328,0.35630114339083474,0.49217532229984845,0.5632520648888393,0.488425770206353,0.6063829787234098,1
0.8072362984746034,0.35510148596163715,0.4625507629016369,0.5108972607543106,0.4853999063127976,0.6382978723404378,1
0.8038618678408891,0.3554195914113099,0.46507357219108153,0.54611473176587,0.4798322259188076,0.6382978723404378,1
0.7958977038782113,0.3539990940794619,0.47809718793701883,0.593527522474721,0.4839474802901599,0.6382978723404307,1
0.8031851033678512,0.3533172451097283,0.46009090461988245,0.5200403217943689,0.48612607201690416,0.6382978723404307,1
0.7986813207394606,0.35655569599275294,0.4740205653545002,0.4877302114466253,0.47087564608642085,0.6382978723404094,1
0.8020247583553146,0.3534468223470986,0.4577059944023613,0.5267127394798773,0.4838263738274552,0.6382978723404094,1
0.8037940164431754,0.3565295922543601,0.4542703835916598,0.5308752818950764,0.48273707796408305,0.6382978723404165,1
0.7970786532257299,0.35800398722443005,0.46218470018098246,0.5861234742455329,0.47293322596488496,0.6382978723404165,1
0.8052612415707439,0.35614574640155994,0.4545982074762917,0.5321674139925742,0.48334232643433395,0.6063829787233672,1
0.7991076619495648,0.3566122269722566,0.4747291850985921,0.5450485204257928,0.4783797998961703,0.6063829787233672,1
0.7992402126898521,0.3554914265172776,0.490404969036279,0.5499274529745779,0.4771694921845171,0.6063829787233814,1
0.7983039602607275,0.3550261711004618,0.48690244480880457,0.5374510965638551,0.48213192410825645,0.6063829787233814,1
0.8011054171067806,0.355965416371943,0.46080687737212106,0.5188304084705786,0.47668535017697167,0.6382978723404023,1
0.7997351712678109,0.3598724194624532,0.46576626300716645,0.574672605590399,0.4794691903739663,0.6382978723403951,1
0.8037797293482933,0.36191045839148944,0.46650545755498163,0.604129000262577,0.48261606611580243,0.6382978723404094,1
0.8037713206484624,0.36163513521410195,0.46655231872606956,0.5285928819666742,0.48261606611580243,0.6382978723404094,1
0.8016107504262857,0.36107613370415104,0.47073815117382894,0.5339266709090918,0.48431051583500095,0.5851063829787009,1
0.8047482468115175,0.3600212737675752,0.4303585174465913,0.5654101907374335,0.4844316222977052,0.5851063829787009,1
0.8036089183140773,0.3604022791787209,0.41601261587276905,0.4382272706528074,0.4827370779640827,0.5851063829787151,1
0.7992100707975606,0.35849112431058033,0.41678871833131803,0.4420931755510239,0.4814056637897255,0.5851063829787151,1
0.8039344071402011,0.36074652241488814,0.4182390420545423,0.6331150540579489,0.48055848623733843,0.6063829787233885,1
0.8016635587362717,0.3575024858339196,0.44698859734520846,0.5537052600417042,0.48152677025242996,0.6063829787233885,1
0.8025308870297208,0.35829996181809876,0.4561631956101792,0.5850976499494358,0.48176879394899097,0.6063829787233956,1
0.8031384003583031,0.3559029140584313,0.45282084074794854,0.5087330946373343,0.4815267702524304,0.6063829787233956,1
0.8018190655272129,0.35802898980919373,0.4495894287353798,0.5113490311629126,0.4815267702524305,0.6063829787234098,1
0.8005915551013867,0.3560075317797364,0.4493425289371569,0.5030274829609156,0.4815267702524306,0.6063829787234098,1
0.8050549102054761,0.3599271438388919,0.42928426506038747,0.5032522702663815,0.4812846519414452,0.6063829787233956,1
0.8013818497731942,0.36165784079871394,0.4289097448762031,0.5234185303554348,0.481042628244884,0.6063829787233956,1
0.8019774217253206,0.36166849116190736,0.4331951915375167,0.6035428686655308,0.4817687939489913,0.6063829787233814,1
0.8018754786416699,0.360745119866392,0.42133254217449134,0.5905741520782852,0.48055848623733877,0.6063829787233814,1
0.8026781744975815,0.3610277816498819,0.4078954683273745,0.5809413188225584,0.4788639419037156,0.6063829787233814,1
0.8030794435038688,0.3619360864158674,0.42012284665258404,0.5698045202692172,0.47874293005543567,0.6063829787233814,1
0.8049304428572277,0.3630064545553179,0.4378124808102049,0.519875205941082,0.4795901076078225,0.5851063829786938,1
0.8048736325932413,0.36117127947893407,0.4393139042693031,0.5279976625919127,0.4820109122599763,0.5851063829787009,1
0.8067973631645807,0.36185540767174507,0.43098566898215973,0.5879234120502999,0.4794691903739665,0.585106382978708,1
0.7979308715688429,0.35910165389665794,0.41480991743937434,0.5174977914590838,0.47874293005543567,0.5851063829787009,1
0.8028470337536291,0.3589527382117679,0.40519338635011665,0.5692775380662396,0.47801666973690515,0.6063829787233672,1
0.799734325862798,0.3601808716387659,0.3976499125870137,0.5474904521460296,0.47910596560027696,0.6063829787233672,1
0.7995341894342135,0.36156325849146054,0.40899394797932076,0.4986924150804082,0.4788639419037166,0.6063829787233885,1
0.8018440842294133,0.3573754009704291,0.4084128000922928,0.5996910785214935,0.4788639419037154,0.6063829787233885,1
0.7987362404979853,0.36132818582923476,0.39237338255146986,0.5491272426305538,0.4780166697369048,0.5851063829787151,1
0.7990421431323833,0.35982029091787193,0.375620655730021,0.5117566688772555,0.47680636202525195,0.585106382978708,1
0.7991740068203022,0.3625448397816322,0.3892596807944915,0.537851915729085,0.47474878214678784,0.5851063829787222,1
0.7992012123428395,0.36046983628130197,0.3810173972824492,0.4989092479635118,0.47716949218451754,0.5851063829787222,1
0.8005991188587526,0.3657541082587388,0.3781029385274134,0.5309416605531273,0.4768063620252524,0.6063829787233885,1
0.7991914074826783,0.3643012912546073,0.38002278667614275,0.5981702631282594,0.4755960543135992,0.6063829787233814,1
0.7994840633620778,0.36175852591564184,0.38513677764328824,0.5193242638678726,0.47583807801015976,0.6063829787234098,1
0.7972487490296724,0.36235416814575117,0.37124212885492125,0.5143061018300482,0.47426464013924174,0.6063829787234098,1
0.8001504994195174,0.36537807145786366,0.3756245662910006,0.5469330674510002,0.4742646401392423,0.5851063829787009,1
0.8006660952214208,0.36366069797850725,0.38708313557300644,0.5325643947666112,0.4736593916689915,0.5851063829787009,1
0.8018614641905895,0.3612834444309099,0.40550465137321956,0.5364636119188152,0.47329635612415044,0.5851063829787009,1
0.8074286526969017,0.36505545114896165,0.380837042518105,0.5453671993845204,0.47269110765389966,0.5851063829787009,1
0.8008531269091881,0.3656812521110311,0.4086289338678315,0.5557279947778149,0.4730542378131657,0.6382978723404307,1
0.8004773230818494,0.3624256280049373,0.43445251505734167,0.5272335848691216,0.47160181179052807,0.6382978723404307,1
0.804788290591295,0.3692731426976422,0.3943114818131864,0.5006216635039672,0.4723279774946346,0.6382978723404165,1
0.8019578567893209,0.36879951053305293,0.36072650191955075,0.5188315089095096,0.4726911076538999,0.6382978723404165,1
0.8008148788888423,0.369719936648385,0.3750449540281503,0.6114918397221593,0.4722070602607782,0.5851063829787222,1
0.8001191305110635,0.36772685661524607,0.37452868627427494,0.516432532151033,0.47123868163126237,0.5851063829787222,1
0.7980814384492788,0.37174508348155355,0.34616941886340236,0.5468699987316863,0.4713597880939673,0.5851063829787151,1
0.7949515454891645,0.37520809242051323,0.3358395674559784,0.6369713497740626,0.47160181179052807,0.5851063829787151,1
0.7969604229544491,0.37093175937829836,0.3676688297610423,0.5306504956055816,0.47014938576789034,0.5851063829787009,1
0.7971567820266796,0.36847075493753967,0.3544874444639084,0.46573620814382966,0.47111766978298153,0.5851063829787009,1
0.7974987637020927,0.3727551865732368,0.33157618431157126,0.5834467592696981,0.4703915040788752,0.585106382978708,1
0.7964749592107003,0.3691945290810803,0.34049391765910975,0.5735718675038048,0.4706335277754361,0.585106382978708,1
0.799407333190976,0.36803647696289987,0.37446116751021435,0.5144712751130868,0.4690600899045182,0.6382978723404094,1
0.7981466478173835,0.3686513870452417,0.3696152430036237,0.5196949494958472,0.46978625560862464,0.6382978723404094,1
0.798273856962018,0.37474860151957207,0.34665291167362683,0.5496637431528015,0.46857594789697266,0.6382978723404307,1
0.8006082253632507,0.3686827054932683,0.3777001833872965,0.545583942604102,0.46930211360107854,0.6382978723404307,1
0.7995496629468402,0.3699896693409451,0.3827899102681632,0.5336001336363955,0.4679706994267214,0.5851063829787222,1
0.8034371219583054,0.37297890012633095,0.36137809960459144,0.493596133940024,0.4686969597452526,0.5851063829787151,1
0.8020177396283736,0.3720103395659172,0.36110214471112495,0.5774997521313157,0.46748665203359996,0.5851063829787293,1
0.8013445800364083,0.3680451428349303,0.38989267407734796,0.5739772963280069,0.46760766388188,0.5851063829787293,1
0.8038967502697103,0.369327157497365,0.38951258644378306,0.4719206260520368,0.46712352187433426,0.5744680851063677,1
0.803905179237379,0.3681442551424632,0.37728632162192516,0.5829490157891232,0.4674866520336002,0.5744680851063677,1
0.8008591956774007,0.3663583077324528,0.39717911289884944,0.5940957704362397,0.46676039171506845,0.5744680851063748,1
0.7999588135539627,0.3617447923815003,0.3934485911648105,0.47129445565814265,0.4656710958516965,0.5744680851063748,1
0.7942914953635729,0.36305090994070577,0.3611733012494791,0.5370311656238504,0.466034226010962,0.6063829787233956,1
0.7958331812821813,0.3691735868417926,0.35567492365126,0.5955834602039338,0.46591311954825787,0.6063829787233956,1
0.7973867864754183,0.36303781779985655,0.38405138784007875,0.5152452548927852,0.4660342260109622,0.6063829787234098,1
0.7956002982516861,0.3651245841029138,0.3479246048909687,0.5483246931325875,0.46554998938899206,0.6063829787234098,1
0.7945824969620987,0.3687867909356059,0.3401975893627225,0.5795590276262814,0.4643396816773395,0.6063829787233956,1
0.7943441427162493,0.36090428199561053,0.3727131753508207,0.5372364834595137,0.46337139766224766,0.6063829787233956,1
0.7934898910672548,0.3666117041810715,0.34455552252453125,0.5435566850592134,0.4636135159732322,0.6063829787233885,1
0.7926242549376026,0.3680245600237494,0.335133140047875,0.5144935051468394,0.4634924095105284,0.6063829787233885,1
0.7979937031943025,0.3684762262399106,0.371654504604929,0.5650752090213642,0.46361351597323264,0.6063829787234098,1
0.7968659966075142,0.36837396391226546,0.35999317118725555,0.5437826256797306,0.4626452319581409,0.6063829787234098,1
0.7958756763057347,0.3735091000610853,0.33624466304387796,0.5441271905931409,0.46167685332862496,0.6063829787234098,1
0.7952782314645059,0.3687791657003181,0.36457692324539936,0.5579181885228635,0.4622821017988755,0.6063829787234098,1
0.7955840220506165,0.3654427821328251,0.3592016774573483,0.5374151275894663,0.46240311364715625,0.5851063829787009,1
0.7899517650844611,0.36890253962922664,0.32002032814996295,0.5171344082459194,0.462645231958141,0.5851063829787009,1
0.7911542467147353,0.3691341857376127,0.33415907429978436,0.5919396504935801,0.45792482373096244,0.5851063829787151,1
0.7909835072800147,0.36201226688024246,0.3720708201859577,0.5441025089784994,0.46070856931353354,0.5851063829787151,1
0.7902164646105625,0.3682779000408189,0.33651162718250294,0.49305138947920485,0.46046654561697264,0.6063829787233814,1
0.7878481651924741,0.36736177077258836,0.33806339709526323,0.5848396426421392,0.4602244273059878,0.6063829787233814,1
0.7967813777740975,0.3681052805526178,0.3552354412739903,0.5620355744523956,0.46034553376869214,0.606382978723417,1
0.7905337405473507,0.371267128801942,0.3440805150312598,0.4401120219596514,0.4592562379053199,0.606382978723417,1
0.7942847335032135,0.3762599140272971,0.3241438771215167,0.4900167228970257,0.45949826160188056,0.5851063829787222,1
0.7958933828646306,0.3696304643827583,0.3615634294675134,0.6038099508508851,0.45961927345016096,0.5851063829787151,1
0.7990416365529578,0.3679477246474471,0.36118606394330915,0.49891578842822615,0.4592562379053202,0.5851063829787293,1
0.7989160844218226,0.36846509581204523,0.3598460340734255,0.5187580860113074,0.4584089657385084,0.5851063829787293,1
0.8010569143245785,0.36695318401309107,0.38950734577055957,0.6115254779283844,0.45683543325316656,0.6063829787233814,1
0.8014459622945733,0.36690369423636954,0.3744072919200535,0.5652449603933355,0.4576827054199776,0.6063829787233814,1
0.8048968264323002,0.36690407154850163,0.393045656690024,0.5486402874735824,0.4590141195943348,0.6063829787233956,1
0.8027852308406279,0.364176185643071,0.40787101072755005,0.5313191002237367,0.46252412549543664,0.6063829787233956,1
0.8034586263269679,0.3621426740832593,0.4001486283909885,0.5819813681904166,0.4626452319581408,0.5851063829786938,1
0.804147613141057,0.36660632441634533,0.3876880042390831,0.7539880366959828,0.46458170537389976,0.5851063829786938,1
0.7998540695699987,0.3668206472053152,0.3949105861572613,0.5993028842732263,0.46397655151807404,0.5851063829787009,1
0.7998984916665421,0.3671494362084602,0.37863841896467804,0.3069560137774126,0.4643396816773394,0.5851063829787009,1
0.8005282681953713,0.3669263626270526,0.38260322128928165,0.5664148723844276,0.46119271132107986,0.5851063829787293,1
0.7993127984146453,0.36901014655607556,0.3686585909533895,0.511491174383023,0.46131381778378355,0.5851063829787293,1
0.8071251595339051,0.38029673910660444,0.35508296543870155,0.45964906825080987,0.4530834036555039,0.5851063829787222,1
0.8036736682834345,0.38611194008194316,0.3670753929404412,0.265803370809756,0.4512678474736005,0.5851063829787222,1
0.8068972104247083,0.38442340486728416,0.3651026950139876,0.3718755735525387,0.4533254273520646,0.5851063829787293,1
0.8030952996222068,0.37714315858222175,0.373129108479075,0.6363792031405314,0.45453582967814155,0.5851063829787293,1
0.8091806565949279,0.38169537781590646,0.3657211396648515,0.6557349355572906,0.4547778533747021,0.5851063829787222,1
0.8033249107266676,0.3818748831166619,0.3739910208249697,0.5762341174825302,0.45489886522298295,0.5851063829787222,1
0.8112365796659129,0.3828382229952582,0.3681764882671485,0.6112277498634101,0.4545358296781419,0.5851063829787009,1
0.8011275491710435,0.38178876354418995,0.377104057687637,0.6678386158731524,0.4544147232154373,0.5851063829787009,1
0.8159833068879871,0.3680752820806942,0.37582162618411624,0.5417370901342744,0.45405168767059534,0.5851063829787151,1
0.8147555470917784,0.3571834695395885,0.45269420959945267,0.6060503155296944,0.4519941077921321,0.5851063829787151,1
0.782561345437663,0.3962872340465745,0.5752210246528904,0.5553799567890979,0.45550401907880944,0.6063829787233814,1
0.8024871380267108,0.3945446645534202,0.5638825991142142,0.5383624223613332,0.45417269951887596,0.6063829787233814,1
0.7973692260118643,0.40081087361896517,0.5770472138749198,0.5928712389141833,0.4563512912456211,0.6063829787234098,1
0.8013175417187197,0.3898549113349308,0.5675672125532153,0.5864646121603834,0.4556251255415136,0.6063829787234098,1
0.7992477776921592,0.395130589367378,0.5531231828353836,0.5744014373353825,0.4552619953822479,0.6063829787234098,1
0.7853229400478645,0.3728046769316619,0.5623766914607643,0.5531158909010114,0.45598816108635576,0.6063829787233956,1
0.8038795670341801,0.35856229993617117,0.5140549149864312,0.5338066441555419,0.45489886522298295,0.606382978723417,1
0.7921168753661201,0.34619838090884386,0.5148540952345747,0.4925635086168781,0.45623027939734007,0.606382978723417,1
0.792370711434516,0.350549860748226,0.5182174389092531,0.45355818757693794,0.4578037172682581,0.5851063829787009,1
0.7907679519327708,0.344297407590378,0.5197602723231168,0.5470688507339154,0.45974037991286587,0.5851063829787009,1
0.7919278725579553,0.35109509383696647,0.5198698776567356,0.4911355773121691,0.4636135159732325,0.585106382978708,1
0.7909448528534053,0.34510491551020134,0.5215441546075134,0.5032890529226659,0.4663972615558031,0.585106382978708,1
0.7932662722749096,0.3531088247724097,0.5196396494258029,0.5331170204438056,0.4674866520336002,0.5851063829786867,1
0.7934239537810999,0.3508569188356486,0.5217458466857936,0.5649796780636043,0.47014938576789045,0.5851063829786867,1
0.7976217947235705,0.3565598370621609,0.5167957432288426,0.5624646136063403,0.46978625560862464,0.5851063829787009,1
0.7958661968465135,0.35212986972871996,0.5169550794103448,0.5162983015031315,0.4689389834418132,0.5851063829786938,1
0.799552849957426,0.35697351647312453,0.5158473037108557,0.5629627253364032,0.4672445337226151,0.5851063829787222,1
0.7968727417239279,0.35184427451173284,0.5149831121974984,0.5367617303980693,0.46579210769997703,0.5851063829787222,1
0.8000271042550687,0.3572529239795983,0.5119595400076513,0.5163395213043588,0.46494483553316535,0.5851063829787222,1
0.797600026436279,0.35153274414744173,0.5145936765816332,0.5765965884547445,0.46337139766224744,0.5851063829787222,1
0.7999223004644123,0.3576307465751275,0.5117171167404904,0.5264109881515764,0.4624031136471557,0.5851063829787222,1
0.7974599850421816,0.3510269558636755,0.5149031826910858,0.5352431729606396,0.4602244273059872,0.5851063829787222,1
0.7957928855696927,0.35845855515391867,0.5113617184811723,0.58395288581385,0.46046654561697253,0.5851063829787222,1
0.7886163297864427,0.346717157534192,0.5153408906807758,0.5152173328724949,0.4593771551391761,0.5851063829787222,1
0.7942839480905959,0.35218617754090425,0.5135581492080895,0.5564482375070215,0.4585299775867888,0.5851063829787009,1
0.792512726746851,0.3464644946311337,0.5199281851067651,0.5724016943925975,0.4588931077460544,0.5851063829787009,1
0.7938826333572431,0.3516722898597148,0.5168947031867202,0.5095114164824529,0.45695653971587114,0.585106382978708,1
0.7933538073728785,0.3467022044278989,0.5204964179435074,0.5646104743663989,0.45671442140488616,0.585106382978708,1
0.796997857555769,0.3575670639200518,0.5119627541583921,0.5508514184153349,0.4557461373897941,0.5851063829786725,1
0.7928733172645801,0.34764537013556046,0.5196235574971527,0.5221518858170842,0.4568354332531661,0.5851063829786725,1
0.7989065127150298,0.360922575678659,0.5083090582812647,0.5749066274649639,0.4550199716856874,0.5851063829786867,1
0.7962617984645481,0.3490541584471227,0.5185754966783102,0.5200803168993159,0.4551409835339678,0.5851063829786867,1
0.8007660238627754,0.36257449815835696,0.5084214894182371,0.5417825082540962,0.45296229719279923,0.6063829787233956,1
0.7961313184780289,0.348620133492843,0.5204355275458774,0.5664092117751851,0.4546568415264217,0.6063829787233885,1
0.8023886362760015,0.36481388295577066,0.5046631675468882,0.5082724822365681,0.4535675456630499,0.6063829787234098,1
0.7931201097263387,0.3414514345186008,0.5283904961499654,0.558140987264241,0.4532044155037843,0.6063829787234098,1
0.8070060716527481,0.36749753065082347,0.5027852771580191,0.5508150006590948,0.45259926164795816,0.6063829787233814,1
0.8635818690178225,0.2688406980940199,0.6055102749080183,0.5105930377593301,0.4535675456630499,0.6063829787233814,1
0.7631461026201124,0.5986849342952216,0.6759381036832823,0.5764069300456367,0.451388859321881,0.6063829787233956,1
0.5935515023180266,0.6843536199046198,0.6770064131003558,0.5382413888858143,0.44763673510979474,0.6063829787233956,1
0.4388217119255817,0.4496219105386599,0.9544219378818615,0.5186709902700661,0.4499364332992438,0.6063829787233814,1
0.655206317264933,0.5867558961011365,0.8284573719940964,0.5793748316772012,0.46058755746525315,0.6063829787233814,1
0.6613651714798856,0.4892604831615679,0.7521872973313244,0.5792984875851708,0.45635129124562035,0.6063829787233814,1
0.9409745953193547,0.6529366004451653,0.45039665591137984,0.5745831353660493,0.4522361314886927,0.6063829787233814,1
0.8415901526469274,0.6695998263195888,0.5646577932012243,0.6181994462986778,0.43759076479961223,0.5851063829787222,1
0.3859073301615978,0.5852152327141458,0.8430017690951004,0.4010419121775175,0.4371066227920658,0.5851063829787222,1
0.44945381516532523,0.5965900432972943,0.9526194476249776,0.4698821388269003,0.4502995634585092,0.5851063829787222,1
0.364255079165346,0.6124736534317654,0.9169722557917726,0.48953756038423163,0.4546568415264214,0.5851063829787151,1
0.47225864461293793,0.5610936535299349,0.8771966880686607,0.5628562996276477,0.45405168767059534,0.6063829787234312,1
0.5514850608868486,0.5526228239478758,0.8744964929708448,0.7056652986426459,0.4522361314886927,0.6063829787234312,1
0.49693777064274136,0.5700360495871881,0.9045937395301007,0.5718648214221432,0.44727369956495333,0.6063829787234241,1
0.5569912672707613,0.5887750600609134,0.8542306893479601,0.4395617119745638,0.451388859321881,0.6063829787234241,1
0.5704120289448945,0.6004869101921647,0.8738426138168895,0.5403434880168285,0.4517519894811467,0.6063829787233814,1
0.5564472481946301,0.5840295817825893,0.8678243256758975,0.5195456784099013,0.45090471731433523,0.6063829787233814,1
0.5715687755993344,0.5953359738190684,0.8721027018546788,0.53061453133441,0.4498154214509634,0.6063829787233885,1
0.5646387105901649,0.590955650007301,0.8597711383741338,0.501452139037878,0.45054158715507,0.6063829787233885,1
0.575885392844731,0.590511501351639,0.8659784887245354,0.539107240273877,0.4502995634585092,0.5851063829786938,1
0.559028044783729,0.5851464691223175,0.8671425159159143,0.57553461649584,0.4493312794434172,0.5851063829786938,1
0.5688993180917753,0.5848965825349238,0.8705729263718662,0.5366097649000159,0.45126784747360127,0.5851063829787151,1
0.5591802749418758,0.5830422743498561,0.8658770073991506,0.5455143792916787,0.45078370546605473,0.5851063829787151,1
0.5749477528774679,0.591371439081156,0.8680913426588611,0.5567367820840831,0.4506626936177742,0.6382978723404165,1
0.5638604454570881,0.587755303855887,0.8634923236744556,0.5662628837793985,0.4511468356253202,0.6382978723404094,1
0.5749303589229445,0.5908322943248385,0.8653211397322336,0.5343551790075962,0.4498154214509633,0.6382978723404378,1
0.5637902500838342,0.5888878973723206,0.8614151690570506,0.5465235657655484,0.4498154214509632,0.6382978723404378,1
0.5751053969220158,0.5914073138919845,0.8672877691690464,0.5297433846910078,0.4501785516102287,0.6063829787233885,1
0.5635131949692147,0.5887977018261659,0.8642905052990718,0.5471765418873795,0.44896814928415185,0.6063829787233885,1
0.5772558603432986,0.5915248858826622,0.8671131946657029,0.5338108539867502,0.4499364332992437,0.6063829787234098,1
0.5652968838232186,0.588618597299182,0.8641165883064043,0.5404283606885979,0.44957330313997834,0.6063829787234098,1
0.5759593456097507,0.5918003632304337,0.8673129241507089,0.5434333531848827,0.4484840072766061,0.6063829787234098,1
0.5635755799361887,0.5881324323529138,0.8623568908677983,0.535917282264846,0.4486050191248864,0.6063829787234098,1
0.5889816064413684,0.5934025792814797,0.8594449334584251,0.541447490610932,0.44763673510979474,0.6063829787234098,1
0.6000952607436048,0.6128603742135286,0.8397054670703732,0.5428349950365159,0.4479998652690599,0.6063829787234098,1
0.6325536562655645,0.642409001326701,0.8285788037293126,0.5379698407619796,0.4469105694056882,0.6382978723404094,1
0.6285137799217129,0.6600886310351519,0.8236462741119619,0.5505959481920427,0.4481208771173406,0.6382978723404094,1
0.6013848708104628,0.661716707792843,0.8374104877804998,0.5436068277485993,0.4463054155498617,0.6382978723404023,1
0.5917508002096907,0.6335540817415112,0.8412663416515445,0.5470707153239371,0.4473947114132335,0.6382978723404023,1
0.6130596897365201,0.6163320625927036,0.8352427668314907,0.5329330105044521,0.44763673510979485,0.6063829787234098,1
0.5955373533803685,0.6435490509944283,0.840359496009274,0.5434877845328422,0.45029956345850897,0.6063829787234098,1
0.6081134708188992,0.652627159099728,0.8359312019699436,0.5591667748768362,0.44739471141323417,0.6063829787234098,1
0.5796554782570321,0.6606571008286246,0.8402229344388557,0.5548208596357675,0.44763673510979496,0.6063829787234098,1
0.5892867242048676,0.6777887814669115,0.8346722355564622,0.5112612136504021,0.44691056940568763,0.6382978723404094,1
0.6277196795732611,0.6894878607730035,0.8034558422045275,0.5144818656168819,0.4494522912916975,0.6382978723404094,1
0.6361523096645681,0.7131934903183429,0.8026253962416082,0.5341994868955654,0.44739471141323417,0.6382978723404307,1
0.5648735647623546,0.6883340662080667,0.8125875039798963,0.5578574748894868,0.4464264273981424,0.6382978723404307,1
0.6592314682742422,0.6910653617853171,0.8284897129997466,0.5233696120562626,0.4475157232615147,0.6063829787233743,1
0.6081797140465988,0.6216526171082096,0.8292316826343313,0.5567422218525949,0.44678955755740735,0.6063829787233743,1
0.5483663089789653,0.6566163783627311,0.7726285243560377,0.5203029751443526,0.44545814338305034,0.6063829787233956,1
0.8412038355040021,0.5553640378086625,0.7484783578527189,0.5843483333191779,0.43904328543667315,0.6063829787233956,1
0.6733966944114986,0.4144439598947567,0.7728147853495572,0.6097378350774134,0.4356542913838527,0.6063829787233814,1
0.6862727539177003,0.4723721509653015,0.8160981897826204,0.5077809024939611,0.4390763058706454,0.6063829787233743,1
0.5939304200608944,0.4657500154047604,0.8287186871586576,0.4929580959059727,0.4411338857491094,0.6063829787233885,1
0.7078244217362826,0.46718156493056195,0.7388581410696751,0.5389323440905082,0.4419811579159204,0.6063829787233885,1
0.8641063455376758,0.43764369950069815,0.3919006643493783,0.5787423105291614,0.44379671409782384,0.6063829787233814,1
0.8393835688455145,0.43477373810355996,0.46644517318737483,0.5735406628140264,0.4419811579159202,0.6063829787233814,1
0.8143014846959384,0.4279606116299706,0.5320490998519118,0.4688535636872868,0.4412549922118134,0.6063829787233885,1
0.8365175855704983,0.4386025117900123,0.4986195851745269,0.4825661285848572,0.44294944193101193,0.6063829787233885,1
0.8274961780068839,0.4355514739182222,0.4959663387799726,0.5438100861235536,0.44246529992346595,0.5851063829787293,1
0.8323153693736636,0.4366233550020361,0.4868557341381389,0.5863661454100622,0.44161812237107867,0.5851063829787293,1
0.8250626997177185,0.4277421715192322,0.48660694605904137,0.37933618839558547,0.44052873189328234,0.5851063829787435,1
0.8355229075485942,0.43128761710509184,0.4921834497228051,0.4508782257190741,0.4394394360299103,0.5851063829787435,1
0.8175998102886012,0.4185709660855149,0.5172471326634815,0.6652988329468945,0.44028670819672244,0.606382978723417,1
0.8249020409352312,0.41365765586771386,0.48727061712231434,0.5739931876961395,0.44016560173401764,0.606382978723417,1
0.8236704792734102,0.41272184980283566,0.47549776121358667,0.6338267221790119,0.4393184241816299,0.6063829787234098,1
0.822792715503443,0.412892212616486,0.5004528465013494,0.5065399531561539,0.4393184241816297,0.6063829787234098,1
0.8118706456727489,0.41308568687036146,0.5428502048591618,0.6478450818253781,0.43943943602991065,0.5851063829787222,1
0.8217360970770365,0.4316000689593189,0.5572708035774887,0.6064526741500242,0.4398025661891757,0.5851063829787222,1
0.8267884566507673,0.43933037034220485,0.485206325959225,0.5725281736715125,0.44186014606763957,0.5851063829787151,1
0.8322335038270001,0.44528033635284536,0.36120847664159395,0.5591949296612051,0.43471902780273264,0.5851063829787151,1
0.803833046736083,0.4309581836086829,0.30838934712786525,0.5259506660955082,0.4312090219016307,0.6063829787233743,1
0.8088270022314764,0.4355744335344929,0.2917995875446532,0.6181043104665507,0.43338761362837497,0.6063829787233743,1
0.7971506432855848,0.4373746948250142,0.29909488681863405,0.6233186778289634,0.4329034716208294,0.6063829787233814,1
0.8124454796363507,0.4421786682908525,0.30349596872935436,0.3605831204577283,0.4325404360759879,0.6063829787233814,1
0.8115958289182108,0.43839906121080535,0.3262026337487946,0.5187887585063069,0.4304827615830996,0.6063829787233743,1
0.8233719831309886,0.4417963704269387,0.34171005252833153,0.5809507296753313,0.43338761362837497,0.6063829787233814,1
0.8186718337004177,0.43849571325014225,0.35463718380767534,0.5922643280965031,0.4316931639091772,0.6063829787233885,1
0.8252647935001547,0.4393044205680271,0.3497886181154289,0.5047523628657958,0.4326614479242681,0.6063829787233885,1
0.816885505935184,0.43869829858431614,0.3485028574635805,0.5603820464219431,0.43145114021261544,0.6063829787233885,1
0.8244346350272571,0.4399823964098545,0.3360354428354097,0.5342009562712375,0.4331455899318144,0.6063829787233814,1
0.8205080742082561,0.43834899143397243,0.35171141473657885,0.5598133551390915,0.43241932961328333,0.6063829787234098,1
0.8241183047674042,0.440693220626735,0.35477078528967054,0.47935523063334035,0.4318141757574572,0.6063829787234098,1
0.8168685086417029,0.4387205170838924,0.35905294729095105,0.46519057149258447,0.431209021901631,0.6382978723403951,1
0.8278017815336464,0.4360188228923521,0.3794065950365899,0.5244666483888782,0.43048276158309984,0.6382978723403951,1
0.8271927983428873,0.4314313474696307,0.39200852452395446,0.6520972471864244,0.4296355840307119,0.6382978723404094,1
0.8293464600655533,0.434412624804769,0.39939799472773907,0.5210610613130476,0.4232206314699112,0.6382978723404094,1
0.8253985717012485,0.4317329241882783,0.403415865939113,0.3383465511121073,0.41971062556881034,0.6063829787233956,1
0.8318807389420542,0.4342655207423835,0.40271955646262875,0.46078265333787016,0.4176530456903461,0.6063829787233956,1
0.8264275494934303,0.43181751143782854,0.40866396157971674,0.48928752800808895,0.41898445986470356,0.6063829787234098,1
0.833774177681931,0.43423112475757564,0.40173896717436225,0.6632561625461899,0.41862132970543764,0.6063829787234098,1
0.8265280065932923,0.4317604175962837,0.4055291321140371,0.5718958835835044,0.4204367912729171,0.6063829787233814,1
0.8306643762403894,0.43483805929818237,0.39413473776864527,0.6130532115766404,0.4197106255688099,0.6063829787233814,1
0.8268310761251245,0.4389414456160117,0.39492536825246255,0.5968903938490675,0.4163216315159889,0.6063829787233814,1
0.829478008529327,0.44119019332270687,0.37889947645862504,0.5276400934007276,0.4172899155310804,0.6063829787233814,1
0.8237313661988719,0.4391641722393288,0.3725870235011877,0.5944193788217687,0.4189844598647031,0.6063829787233956,1
0.8255678488598688,0.44117302126388647,0.3652147884943383,0.539022581676361,0.41704779722009544,0.6063829787233956,1
0.8247782634638081,0.4391430803028079,0.38101637516610626,0.5543180050093428,0.4186213297054381,0.6063829787233885,1
0.8309645978825655,0.4412333491451136,0.38407600400350705,0.6380287195246951,0.41910547171298385,0.6063829787233885,1
0.8285889224800923,0.4390050454146135,0.39173866910142385,0.5030814743935451,0.4195896137205293,0.6063829787233672,1
0.8306657296792486,0.44160483326243716,0.39967999371782803,0.5026384783930203,0.41922648356126413,0.6063829787233672,1
0.8333236859547377,0.4362454100881844,0.4191938912467425,0.5892057209377886,0.4188633534019989,0.6063829787233814,1
0.8297262363920843,0.43318535496199495,0.49641222972654275,0.47168282747869833,0.4176530456903461,0.6063829787233814,1
0.8214112951208212,0.4325866908450634,0.5252970536455225,0.47677958759403666,0.4168057735235349,0.6382978723404094,1
0.8298222717797885,0.43357012775315396,0.5167032163572937,0.5469757167234256,0.4189844598647031,0.6382978723404094,1
0.8242573253962433,0.4324277331918795,0.5249891336514791,0.4591771328498572,0.4186213297054382,0.6382978723404307,1
0.8275695818309603,0.4336607840082555,0.5232879096943177,0.5895483983007894,0.4198316374170906,0.6382978723404307,1
0.8233979204320547,0.43236234085861414,0.522101728674465,0.6543827334723165,0.4187423415537178,0.5851063829787293,1
0.8276461730506384,0.4337200119246255,0.5214013725959311,0.5720444151632434,0.4192264835612639,0.5851063829787222,1
0.8219444918716037,0.4322954623612537,0.5216903923608722,0.49275369262051544,0.4189844598647031,0.5851063829787435,1
0.8286189671098968,0.4338121546279336,0.5211513687063422,0.5998280989993835,0.4191054717129835,0.5851063829787435,1
0.8236917235629277,0.4321411845973254,0.5262256741434959,0.5489537110885526,0.4182581995461724,0.6063829787233885,1
0.8267886833698848,0.43414852008049487,0.5232178294743451,0.5222359809298669,0.4191054717129835,0.6063829787233885,1
0.8239247298544856,0.4274928004106916,0.5298918382811426,0.5163982772294983,0.418500317857157,0.6063829787234098,1
0.8234480657420926,0.4260724551950878,0.5310471929187122,0.4809269621779282,0.4177740575386264,0.6063829787234098,1
0.8245295538055688,0.4250798418629338,0.5286499603570403,0.5311525172863208,0.41668476167525403,0.5851063829787009,1
0.8234831916878225,0.42564523473484217,0.5316839298016524,0.576563486853759,0.4168057735235349,0.5851063829786938,1
0.8195379744427647,0.425699548348193,0.5352098381444743,0.5284808312975857,0.4157164776601624,0.5851063829787009,1
0.8247875845668582,0.42617630195969514,0.5323362759547012,0.5957418003875541,0.4171689036827998,0.5851063829787009,1
0.8217180525035441,0.42554090266997996,0.5366806305919126,0.5461485119411944,0.41668476167525437,0.6063829787233885,1
0.8224753440870269,0.42626544385334086,0.53433375519824,0.5125046512778411,0.4177740575386264,0.6063829787233885,1
0.8224235601343071,0.4263693371316153,0.5327617353588234,0.6011627406482609,0.4166847616752536,0.6063829787233814,1
0.8253797937783891,0.4263216689871911,0.5273501661456322,0.4973613365865256,0.41547435934917754,0.6063829787233814,1
0.8224785857893737,0.4254164983195409,0.5319992660265216,0.42291924498940103,0.4155953711974577,0.6382978723404307,1
0.8233046577035865,0.42640257596659903,0.536655220776395,0.5263841248837156,0.4159585013567232,0.6382978723404307,1
0.8225452117542591,0.4252683164502715,0.5374685366866738,0.5380831598389807,0.41486920549335127,0.6382978723404165,1
0.8226652501784232,0.42704150643445027,0.5358843641890069,0.5655632418347569,0.41269051915218313,0.6382978723404165,1
0.8231894760830925,0.42578471572918863,0.5305103643184355,0.5836311312630552,0.4118433415997954,0.6063829787233956,1
0.8239162769911541,0.42704544011048795,0.5332558237299807,0.47532338568532534,0.41002778541789253,0.6063829787233956,1
0.8230589611458825,0.4256809034909888,0.5322622449542254,0.5688388210293972,0.4060336375092445,0.6063829787234098,1
0.8233482758875261,0.429009181704066,0.523356480339233,0.6445857864716185,0.40421808132734205,0.6063829787234098,1
0.8303787277332213,0.4332177442899454,0.49534699218946987,0.5066006779647814,0.40179737128961235,0.6063829787233814,1
0.8358181982158193,0.4345683159019243,0.4834801003122342,0.5255878229278341,0.4001028269559902,0.6063829787233814,1
0.8292569920308916,0.4348178358822065,0.5106166996399364,0.5742276354610404,0.40203939498617336,0.606382978723417,1
0.829319381030906,0.4333018390996065,0.5072945908311804,0.49295811789376104,0.40324979731224964,0.606382978723417,1
0.8267430945771124,0.43280267676838946,0.5132323075259834,0.5601339133448485,0.40191838313789285,0.6382978723404378,1
0.8286495402201693,0.43325158266149383,0.5104253176338073,0.5843788701928142,0.39986080325942863,0.6382978723404307,1
0.827065571999934,0.432795735701566,0.5101923435733727,0.4721855401218964,0.3992556494036029,0.6382978723404449,1
0.8294289885943976,0.4332613173818919,0.5044218640964846,0.5829032758349786,0.398650400933352,0.6382978723404449,1
0.8285538744057234,0.4327877548741916,0.5086967242971829,0.5755513361229025,0.40010282695599,0.6382978723404023,1
0.8286050035348647,0.4332672546143544,0.5090606434765906,0.5695998249101342,0.3998608032594291,0.6382978723404023,1
0.82806172778845,0.4327835405820361,0.5106999433163922,0.5824177556116408,0.39889251924433666,0.6382978723404094,1
0.8294184547150838,0.4332701150173811,0.5053584670648047,0.5403971826753206,0.39731898675899513,0.6382978723404094,1
0.8275533632105634,0.4327817146636501,0.5098524983489976,0.49093528734739966,0.39659282105488824,0.6063829787233814,1
0.8282454577512777,0.43327116879424243,0.5073458804529465,0.5462511588127962,0.39622969089562265,0.6063829787233814,1
0.828165640742051,0.43278121727057994,0.5122461772078675,0.5251988711701574,0.3957455488880769,0.6063829787233885,1
0.8282060281975379,0.43327129124344455,0.5127859720957713,0.5612195237902704,0.3976821169182603,0.6063829787233885,1
0.8280660557833947,0.4327813118870832,0.5124118589415871,0.5621101099619281,0.39671383290316875,0.6382978723404378,1
0.8272643426802337,0.43327112293831,0.5118492858068655,0.5245197880580239,0.39562453703979605,0.6382978723404378,1
0.8285606587744783,0.4327814170838672,0.5128504479253218,0.5208654976910883,0.3950193831839699,0.6382978723404378,1
0.8265960941284873,0.43327121856413475,0.5112541731605704,0.5069644475772852,0.395261406880531,0.6382978723404378,1
0.826217186011875,0.4327809741369075,0.5144079111484612,0.5791871592352601,0.3950193831839701,0.6382978723404378,1
0.8301582238432484,0.4332721733068962,0.5084567451929167,0.5219540191740797,0.39453524117642436,0.6382978723404378,1
0.8278161433105937,0.4327793133205074,0.5116415262202282,0.5521200063454967,0.3930828151537866,0.6382978723404307,1
0.827130133872499,0.43327478075527825,0.5102405230636221,0.5195248276309887,0.3940510991688786,0.6382978723404307,1
0.8291348371832883,0.43277544789093325,0.5137529053931985,0.5415801420278349,0.3932038270020676,0.6382978723403951,1
0.8271544804962068,0.43328032494673696,0.5127875141019032,0.5877730928916157,0.3938089808578934,0.6382978723403951,1
0.8267199020053869,0.43276763019626735,0.5169522214884369,0.5192215655181501,0.3928406968428019,0.6382978723404094,1
0.8308203345706348,0.43329129967521773,0.5112924542226386,0.530767944040157,0.39308281515378685,0.6382978723404094,1
0.8293675714741977,0.43275210564436906,0.5108783627417758,0.5398172969055499,0.39187241282771,0.6382978723403951,1
0.8279537425345076,0.4333137424490974,0.5067132035693516,0.5008387299540583,0.3901779631085115,0.6382978723403951,1
0.830096509381253,0.4327182761824371,0.5061913637973615,0.6065361375873526,0.3905410932677773,0.6382978723404165,1
0.8279887214789521,0.43336880701907116,0.5093551314741551,0.5629235561026952,0.39066210511605715,0.6382978723404165,1
0.8286184613686827,0.4326136875434648,0.5092249259694496,0.5001293885210044,0.38969382110096507,0.6382978723404165,1
0.8322055039779306,0.43367073969290415,0.505353480049779,0.5690767415001229,0.3905410932677771,0.6382978723404094,1
0.829314936098883,0.43442707480935233,0.5081736909058142,0.5227427726355446,0.390056856645807,0.6382978723404307,1
0.8322527494390402,0.43307733122855646,0.5043978594864523,0.4961405310244076,0.3888465489341544,0.6382978723404307,1
0.8281276316355741,0.43278350360339746,0.5074657137650169,0.5677598497545333,0.388777196561371,0.6382978723404023,1
0.8312478213191263,0.43355964026959665,0.5053637211196271,0.5292768326730779,0.38974557519088704,0.6382978723404023,1
0.831294107175533,0.43446096865340583,0.5067011681626761,0.5543496741594623,0.3882930545538249,0.6382978723404094,1
0.8283679731864142,0.4335243560199722,0.5095393553426332,0.5609749149133114,0.3874458770014374,0.6382978723404094,1
0.8292838340528271,0.4335291603543265,0.5149477088598564,0.4796498820617693,0.38550930897125457,0.6382978723404023,1
0.8294346779548736,0.43282366197842326,0.5115503155296149,0.5608181914572556,0.3884141610165297,0.6382978723404023,1
0.8266504206873106,0.43315027655460636,0.5138996471243316,0.5498777587033474,0.38381476463763164,0.6382978723404094,1
0.8320346656432407,0.4329329870196758,0.5116013759921783,0.5440536236878446,0.3863565811380657,0.6382978723404094,1
0.8275720056585005,0.43311423589456155,0.5154699842377044,0.5855962965298342,0.3856303208195351,0.6063829787234241,1
0.8284694214996442,0.4329110996706475,0.5098700104758793,0.5687855531180364,0.3863565811380657,0.6063829787234241,1
0.8296015718703613,0.4333309338023326,0.5074240439011565,0.5066304099915322,0.3849040605010041,0.606382978723417,1
0.828278195661837,0.4353640803018489,0.5059626035928956,0.5504941957575175,0.3840568829486163,0.606382978723417,1
0.8291167531373959,0.4340835844209526,0.5087614024158658,0.5490735983506256,0.3842989066451774,0.638297872340452,1
0.8290868786082466,0.4328691231358819,0.5061700159138279,0.5306510104522962,0.384419918493458,0.638297872340452,1
0.8279353347258929,0.43338291022990794,0.5118358697081306,0.5774164855278671,0.38212022030400905,0.6382978723404449,1
0.828710062063418,0.4335449218174679,0.5112154639703315,0.5328474183878126,0.38236233861499425,0.6382978723404449,1
0.8307951425059859,0.43285402915550203,0.5091784563348847,0.49632773269155356,0.3836937527893516,0.6382978723404023,1
0.8289501416751717,0.43347203748630275,0.5034398731245969,0.5748583184600489,0.38369375278935136,0.6382978723404023,1
0.8299326178597375,0.4327590922468556,0.507192699483052,0.5351574214985355,0.3801837468882501,0.6382978723404094,1
0.8295678153815234,0.4332019281128641,0.5042313006846751,0.5279639870739329,0.38103092444063724,0.6382978723404094,1
0.8296146413740026,0.4329703741897668,0.5079991057809492,0.5512063194794463,0.38018374688824963,0.638297872340388,1
0.8317044884964575,0.43400839098995286,0.5096361479417,0.5539777120750825,0.37994162857726477,0.638297872340388,1
0.825613898372199,0.4327802747093179,0.5139881537094028,0.5357600490401281,0.37957849841799973,0.6382978723403951,1
0.8290691486101454,0.43471141520893253,0.502253806418229,0.5326617045309266,0.3788523327138923,0.6382978723404023,1
0.8307933676468218,0.43342375330447835,0.5085895928020983,0.5256955504184161,0.3742529363349948,0.6063829787233885,1
0.8260190705293329,0.4318604774573459,0.5041659480837484,0.5372174330023051,0.364570096184077,0.6063829787233814,1
0.8296847814111641,0.43345277524726505,0.5074840622948181,0.5489440487904297,0.3606969601237101,0.6063829787234098,1
0.8319268388916559,0.4352817103309446,0.5096490967473224,0.5484690252291019,0.35936554594935266,0.6063829787234098,1
0.8345367115290196,0.44675554561381814,0.5002541183796164,0.6031528876936931,0.3591235222527922,0.6382978723404094,1
0.8174594082991875,0.48426019321625674,0.292270490920494,0.5789965105264352,0.3905927527432741,0.6382978723404094,1
0.7984108317990235,0.46171374499321616,0.3075074033307952,0.5530872143061595,0.3918031550693505,0.6382978723404165,1
0.8307806089938286,0.43593957920546417,0.36762213780206676,0.6970828730329922,0.38817204270554473,0.6382978723404165,1
0.8123932513703302,0.4337384184875344,0.3327764153827949,0.6591691144724943,0.3893824450316221,0.6382978723403951,1
0.8025117795462969,0.43184447951697835,0.2892896180928266,0.3874874697981524,0.38865618471309094,0.6382978723403951,1
0.7960358976439373,0.4336555178469939,0.2809358980133878,0.17598981646373507,0.38889830302407524,0.6382978723404023,1
0.7930106134673988,0.43342817261569766,0.277936379194701,0.43315608948136775,0.38817204270554473,0.6382978723404023,1
0.7722003030340439,0.4364423087593567,0.23719108593925942,0.5445729825983524,0.38841416101653026,0.6382978723404094,1
0.7775234977784791,0.4362019692416821,0.24417897344560305,0.5922560980383882,0.38780891254627947,0.6382978723404094,1
0.802472290629581,0.4355567880037091,0.31388234993900677,0.5578430971608971,0.38914032672063614,0.6382978723404023,1
0.802340959466601,0.43195235522987335,0.2982967970055981,0.6094028109044324,0.3880510308572639,0.6382978723404023,1
0.7953252324093051,0.43323755243334594,0.2736778482453299,0.5787488614726568,0.3884141610165297,0.6063829787234241,1
0.7878730938290759,0.4319974488027201,0.26084738884076286,0.5507980175209418,0.3888983030240757,0.6063829787234241,1
0.7546539863879208,0.43197389639396433,0.20919217611595847,0.5663474425099997,0.3897455751908868,0.606382978723417,1
0.723589359380729,0.4277331782714798,0.17175516433983495,0.5065996715059323,0.3908348710542586,0.606382978723417,1
0.7310497838323489,0.43588042751931644,0.18153145589761227,0.5645401975439188,0.39192416691763177,0.6063829787233814,1
0.7149437860589645,0.4365431290601384,0.1578542436265889,0.6019443780367448,0.39422386510707996,0.6063829787233814,1
0.7568835122514377,0.4500955488072102,0.19475299006477487,0.5757987821796764,0.39470800711462617,0.6063829787233956,1
0.7911744670111964,0.4408664888555093,0.28525730005599154,0.6269846913614224,0.3960393266745592,0.6063829787233956,1
0.7955086782158867,0.44370944761908043,0.27989761619946807,0.5391488864871075,0.38357274094107097,0.6382978723403951,1
0.7803690020768373,0.4510819742335027,0.24450972281621552,0.4774434476799607,0.3853882025085501,0.6382978723403951,1
0.7629097477580475,0.44154403330160036,0.21831784619559763,0.5451294446130223,0.39870215502327355,0.6382978723404165,1
0.7527146225620402,0.43128425837961626,0.19676167090444496,0.5098869656505336,0.40233317277265557,0.6382978723404165,1
0.7649831883133731,0.4312354706747105,0.24005251526241328,0.5173780985717706,0.40221216092437495,0.6382978723404094,1
0.7563635169782068,0.4351303620086059,0.1957868957141608,0.4796260998471968,0.40402771710627805,0.6382978723404023,1
0.7763344578694531,0.44061537372700077,0.24865580853151542,0.5625871238947157,0.40366458694701324,0.6382978723404165,1
0.8153797290333411,0.4440950572014296,0.36745356322327644,0.6341585516313725,0.40475397742480934,0.6382978723404165,1
0.8237025990131914,0.4564047009800517,0.33184270652641756,0.5562400091000561,0.4049960011213707,0.6595744680850828,1
0.8255101784004208,0.4561234277025097,0.3101353976402149,0.5265620734160277,0.405480143128916,0.6595744680850828,1
0.8324302559426866,0.4419848061084226,0.3841945421642855,0.558318087253277,0.403664586947013,0.659574468085097,1
0.8260957236056803,0.4346817527073056,0.46673240107418273,0.5506621622957533,0.404148728954559,0.659574468085097,1
0.8312788409393118,0.42055997263658074,0.4432008280114187,0.493521554998136,0.4000335691976311,0.659574468085097,1
0.831099211581606,0.4348628745381052,0.463674113739231,0.49871441889154006,0.38744587700143784,0.659574468085097,1
0.8332510292450834,0.4452460570862159,0.4563589931619052,0.6087486296731397,0.38756688884971824,0.6595744680851041,1
0.8327272566339889,0.4362253859206792,0.4191503851849488,0.5676922870321383,0.3994283207273802,0.6595744680851041,1
0.831374534922728,0.4199489251043148,0.431247219474729,0.5099318458456793,0.4016070070685491,0.659574468085097,1
0.827152152452652,0.421069118769338,0.4491171432996389,0.5165751742026704,0.3897455751908865,0.659574468085097,1
0.8311200975239765,0.4185664439330383,0.44582757066413947,0.505886208395226,0.38550930897125457,0.6595744680850899,1
0.8311538770394156,0.43422880994816565,0.45134240434493417,0.5719964619897723,0.3863565811380655,0.6595744680850899,1
0.8309388201928409,0.4473260543014674,0.42593767817561834,0.5688987166302371,0.39519214912217215,0.6595744680851041,1
0.8313232917068176,0.4322125377976957,0.41364643701304504,0.5082498848685876,0.4150419714315525,0.6595744680851041,1
0.8260965445349018,0.42138967139767647,0.42455776585540567,0.5392323034752828,0.4238775394156593,0.659574468085097,1
0.8298612112923522,0.4195520081181249,0.4274930233651877,0.5174238851212019,0.41225813123455846,0.659574468085097,1
0.8270250632030915,0.42405001400200104,0.4334666953503121,0.49477524732512307,0.40765882947008425,0.6808510638297705,1
0.8325566927101076,0.4239514836743471,0.43036766293164064,0.6034815840531812,0.4089901490300172,0.6808510638297705,1
0.8280754509755466,0.4269514491952224,0.4337228002877031,0.5818521349660196,0.40777984131836487,0.6808510638297847,1
0.8281161930961124,0.42228780996264487,0.4297513383226096,0.5455255244157914,0.40584327328818126,0.6808510638297847,1
0.8250811725301928,0.4205910001599259,0.43330216188363513,0.529161600815512,0.40318044493946725,0.6382978723404094,1
0.8323913409376811,0.42014388147798204,0.43002129346597023,0.5254216031605273,0.39906528518253903,0.6382978723404094,1
0.8244689754869714,0.42667347627237395,0.47088050814391014,0.5254479313085877,0.3959183148262787,0.6382978723404378,1
0.8322241108710715,0.4359599881239276,0.47621587523181585,0.5671652773629301,0.3879300190089835,0.6382978723404378,1
0.8358427603622496,0.4323472675515276,0.4620505949766201,0.5317140203512637,0.4019701372278146,0.6382978723403951,1
0.837074053661973,0.4397974834697797,0.46036147058452714,0.5128981952085018,0.40681155730327323,0.638297872340388,1
0.8360511728755013,0.4467349974015168,0.46150401610187647,0.4942243772945841,0.40112286506100314,0.6382978723404094,1
0.8361174192488372,0.44357613718708966,0.4646079402930542,0.6765762104537338,0.3974918473116211,0.6382978723404094,1
0.8366219269316368,0.44206879563290424,0.4681331762994106,0.7386827632887264,0.3968865988413707,0.6595744680850899,1
0.8351992699208997,0.4392414217685745,0.46693794861212734,0.42359779172955103,0.3893824450316212,0.6595744680850899,1
0.8334111715408603,0.44366832566253384,0.45802230631896734,0.20377541829182388,0.38429890664517763,0.6595744680851041,1
0.8371183099726329,0.4448884933207916,0.41421105066310077,0.3932481617379219,0.388777196561371,0.6595744680851041,1
0.8315510897945761,0.44367055077735784,0.40654576944579424,0.6245565285665104,0.3857513326678156,0.6382978723404023,1
0.82707794064313,0.4470788141128803,0.353509823506956,0.6383778466476404,0.3794574865697188,0.6382978723404023,1
0.8213354126867893,0.4475432766522067,0.3365208989055778,0.6815330837123772,0.38006264042554494,0.6382978723404094,1
0.820883305519092,0.4470223642592697,0.3433156415354465,0.6313090266284522,0.3828464806225399,0.6382978723404094,1
0.8234519641253152,0.44765533238934185,0.3404587151324577,0.46070050822919706,0.36929050441125555,0.6595744680851041,1
0.8232845501783524,0.4468688007031203,0.3544474062009829,0.5424467983155654,0.3631176701614397,0.6595744680851041,1
0.8234045728241888,0.44793499309366097,0.35663452085777575,0.5909755655977257,0.36057594827542927,0.6595744680851041,1
0.8254462477970022,0.44542586366747183,0.3607147674509068,0.5201720518017897,0.36335969385799993,0.6595744680851041,1
0.8254946678337374,0.4461888985950148,0.36242433215925857,0.6008047261745899,0.3623914098429091,0.6382978723404094,1
0.8260264056561526,0.4429057483996234,0.3607263199140499,0.5168434879467245,0.3626335281538937,0.6382978723404165,1
0.8232672542467068,0.4391108550658808,0.36348197814956695,0.5595706727750633,0.35948655779763317,0.6382978723404094,1
0.8235868145080354,0.442422437308435,0.3624100054686746,0.5538511701413824,0.35839726193426125,0.6382978723404094,1
0.8247621882247543,0.4413955530896765,0.357721534276841,0.5104353734047238,0.3597286761086186,0.6382978723404023,1
0.8213085476526721,0.4396235859476028,0.36733603068136506,0.5581335044295137,0.3587603920935266,0.6382978723404023,1
0.8273854428613688,0.44062588574082573,0.3647452453468851,0.5843865322908622,0.3570659423743283,0.6382978723404094,1
0.8225539358246708,0.43967569857566047,0.36739150480319344,0.4814789542009326,0.3521034158361649,0.6382978723404094,1
0.8232149386631801,0.4408098501430654,0.37511575485440396,0.542369747044772,0.3479882560792368,0.6595744680850544,1
0.8261291558907918,0.43877988130931,0.3741316274817719,0.5241171408680261,0.3483512916240782,0.6595744680850544,1
0.8257989887866467,0.43745573094397433,0.3719204080154849,0.5253278057989261,0.346414818208319,0.659574468085097,1
0.8238836724460543,0.44036819319844855,0.3780254363860338,0.5896600938795189,0.33685298990568124,0.659574468085097,1
0.826719515125082,0.4385098562965561,0.37327330665686825,0.5464813023206201,0.3388434881575382,0.6595744680850899,1
0.8258342292741466,0.4397919196811119,0.3763555496912381,0.5478059943280041,0.33593863611226327,0.6595744680850828,1
0.8266472035775201,0.44002744680461475,0.3766997952485469,0.5780948860337907,0.3378752041424462,0.6595744680851041,1
0.8255634953947513,0.4373191255703136,0.3715216418919079,0.5513949254654289,0.3359386361122626,0.6595744680851041,1
0.8227253447929879,0.4367052294066639,0.37425633956609816,0.53836394723195,0.3346073165523299,0.6595744680850899,1
0.8255107891114759,0.44074758489033333,0.3744184625179965,0.6047151266442183,0.3323076183628808,0.6595744680850899,1
0.8239063715414312,0.43903015283876035,0.3729435544074029,0.6344618632835614,0.3360596479605429,0.6595744680851041,1
0.8262993739159386,0.4398197434211156,0.3737442139686379,0.5262402179469833,0.3323076183628805,0.6595744680851041,1
