wrist_ACC_1,wrist_ACC_2,wrist_ACC_3,wrist_BVP_1,wrist_EDA_1,wrist_TEMP_1,label
0.8639874927268353,0.42363114612812636,0.4604819371324348,0.5147371849301652,0.3135321128441554,0.32512315270936654,1
0.8676173943238442,0.4198835504581397,0.4646499687565869,0.6186754882917125,0.3149270822991973,0.3251231527093701,1
0.8622599381220756,0.417806591605388,0.4636777448602909,0.2622266978286929,0.3149270822991973,0.32512315270937364,1
0.8684031165470959,0.41992580640807536,0.4659919633041503,0.21509577491518975,0.31446233491558306,0.32512315270936654,1
0.868689855974263,0.4215049433859221,0.4593176904590567,0.33220135139989515,0.3139972238798696,0.32512315270937364,1
0.8699235120049997,0.42018622788202015,0.4644944400878306,0.391049122718301,0.3130670018084407,0.3251231527093701,1
0.8659686602268605,0.41685294133489137,0.4590733723635057,0.5601979284136873,0.3139972238798696,0.32512315270937364,1
0.8672745294258232,0.4219396051810706,0.4641013442412216,0.5163858668703994,0.3116716687012997,0.32512315270936654,1
0.8665820997415276,0.42132485635401357,0.460509637792401,0.4041743157671021,0.3126018907727276,0.32512315270937364,1
0.8662900631513254,0.4244880256509365,0.46771196423246597,0.44859042044015457,0.30934611352273,0.33990147783251246,1
0.8662983571930598,0.4165926984469183,0.4599355309643889,0.431073217505421,0.3130670018084415,0.3399014778325089,1
0.8678874908194839,0.42327797993492006,0.4660612439833388,0.41803488648076004,0.3102763355941578,0.33990147783250535,1
0.8654723007034737,0.41496882272128666,0.4573658919513083,0.4183147342546215,0.311206557665586,0.33990147783251246,1
0.8688932136718204,0.42521200614011284,0.4678386251230764,0.4515807768932011,0.30934611352272956,0.32512315270936654,1
0.864786078613751,0.4175560924012751,0.458562356060274,0.4040101637703035,0.3116716687012999,0.32512315270936654,1
0.8664693953996406,0.42795075501072294,0.46759445418893286,0.45673450763578494,0.3088810024870161,0.32512315270936654,1
0.8651236466550674,0.4184859754817058,0.45787378165381026,0.45918534573945957,0.30934611352273045,0.32512315270936654,1
0.8681644137166432,0.4335522558046667,0.4711229962861797,0.6123084599128107,0.3098112245584441,0.32512315270936654,1
0.8809618905621747,0.4173245494094965,0.451935314939047,0.5911096412250088,0.31027633559415846,0.3251231527093701,1
0.9081046582411876,0.5050810387762539,0.5497878146816367,0.3727365740462585,0.30655581096054674,0.32512315270936654,1
0.7000656413300967,0.573161128914836,0.6653056287821384,0.2412530443182819,0.30423025578197704,0.32512315270936654,1
0.5609525972415931,0.5974598244221532,0.7678231738661655,0.2969503699139867,0.29446328768408436,0.325123152709363,1
0.45933778863999797,0.5859498336554874,0.8190114729751865,0.31083914028920057,0.293067954576943,0.325123152709363,1
0.33898959781004145,0.5174371949305978,0.8727266812411035,0.3518005155876941,0.3019047006034078,0.325123152709363,1
0.3915435286783854,0.5630271429071205,0.8941873750057303,0.5306445265270002,0.29957914542483854,0.325123152709363,1
0.35185885376117854,0.5828764779653197,0.8630644747305538,0.3865741091938368,0.282835875443337,0.325123152709363,1
0.355676869783459,0.5893979443096794,0.8759303951164771,0.36695987075575,0.28423120855047845,0.32512315270936654,1
0.33644451179937657,0.5700341102729848,0.8698744231676446,0.5486627031862984,0.28051068391686707,0.325123152709363,1
0.33812812899647643,0.5948562487953432,0.8704406986452564,0.7089518893710782,0.283766097514765,0.32512315270936654,1
0.33642914287038916,0.5708580813593311,0.8818307776341989,0.4103877067455043,0.28562654165762025,0.3201970443349751,1
0.3441814251358065,0.5831626581836029,0.8722044891776553,0.3600786813525049,0.2856265416576208,0.3201970443349751,1
0.3244795023002802,0.5714273600480245,0.8832650118762009,0.3949031937990666,0.28702187476476215,0.32019704433497154,1
0.32853373842900685,0.580850002127344,0.874630090122198,0.4600223333033908,0.29074239939837365,0.32019704433497864,1
0.3626284239964135,0.5732244799614984,0.871429353234821,0.4241387178923031,0.292602843541229,0.32019704433497154,1
0.3251526909854511,0.5752953446128628,0.8730322057608282,0.41555530506171695,0.29399817664837125,0.32019704433497864,1
0.312399284237847,0.5610676421679146,0.891915956665456,0.4308974865899564,0.2944632876840846,0.32019704433497864,1
0.3262753160509046,0.5718252346411051,0.8760524160646468,0.4400009199883512,0.29306795457694323,0.32019704433497864,1
0.325355784030759,0.5627059115416269,0.8900882465625997,0.45553292057330336,0.2902776520147594,0.3004926108374377,1
0.3299258008995548,0.5717623113297641,0.8689403394784958,0.43710657497373634,0.27865023977401193,0.3004926108374377,1
0.31608152859500366,0.5647342249256095,0.8978509135459907,0.4021774585283392,0.2781851287382975,0.3004926108374377,1
0.33345971272938646,0.536484480481761,0.8871783156267512,0.4200403285337194,0.27725490666687,0.3004926108374377,1
0.57680005364503,0.6087627766643523,0.8025410011561075,0.41812037879137737,0.2786502397740116,0.3004926108374413,1
0.5870944092599194,0.6733804657775613,0.6985735206470931,0.441042797867929,0.22981576293665054,0.30049261083744483,1
0.6197830506304381,0.6765806362629749,0.6619151028617203,0.40564555105099415,0.1591217947249348,0.30049261083744483,1
0.792260646059449,0.791030466653024,0.46427442967856836,0.4389390097977302,0.12792480838261674,0.30049261083744483,1
0.5407141162126612,0.5689348111452519,0.7675614136015037,0.5290049101116543,0.10839123583893204,0.2906403940886868,1
0.303181266748739,0.4765729140042726,0.9451846720962451,0.4300286548242449,0.17443409369350846,0.2906403940886939,1
0.29679187357671893,0.567709864155833,0.8700714134683099,0.2817155404137728,0.25582488842244433,0.29064039408869036,1
0.31614795865135126,0.5569355967358913,0.8998367837185293,0.421906958124104,0.2679170480468055,0.29064039408869036,1
0.3464963721209445,0.5624810749370213,0.8706295201716192,0.3947588264972429,0.2744286025468008,0.2906403940886797,1
0.3576378530930977,0.5610256838157515,0.885741749427468,0.5848772005093693,0.27489371358251447,0.29064039408868325,1
0.35586322257092134,0.557356674807149,0.869378586027371,0.30597134446205393,0.27814912718041174,0.2906403940886797,1
0.3926346143753934,0.5504820149855945,0.8846188901490606,0.4827645684485082,0.2776840161446984,0.2906403940886868,1
0.4741129358901167,0.578906596308815,0.7846457058286744,0.27789261241926716,0.2814049044304091,0.2807881773399039,1
0.836124014965153,0.5681304860781401,0.5739510818279316,0.4717966965976711,0.2916366199119156,0.28078817733990036,1
0.8104672020131134,0.5818578412598003,0.526346021999144,0.496172054929887,0.25303422220816074,0.28078817733990036,1
0.8299424724291846,0.6332478839782965,0.5009992069668883,0.43846079704300134,0.24652303136026607,0.2807881773399039,1
0.8593255462278586,0.6345745158587901,0.6937780600872591,0.3354016988396591,0.26745193701109216,0.2709359605911317,1
0.3972822189477346,0.6023946275448283,0.6834549789527413,0.599412667777257,0.26373141237748077,0.2709359605911352,1
0.42742331539484724,0.4086582487271114,0.8658083780466743,0.47237730331755645,0.27907934925183975,0.2709359605911352,1
0.4977091414556949,0.4187694280022889,0.9669140358740065,0.3673804694582688,0.2925668419833437,0.2709359605911317,1
0.15340534062440242,0.51216572604832,0.8697648335037773,0.44138064445954384,0.29628773026905453,0.24630541871920997,1
0.01244593833954516,0.45129846834597476,0.9015548014229313,0.4491917620232723,0.29861328544762444,0.24630541871920997,1
0.08952849748161654,0.49638075124422043,0.8872944595222378,0.42631409968537903,0.30745003147408845,0.24630541871920997,1
0.057794775324013725,0.4857477722844178,0.908445578060421,0.36616385968962906,0.3060546983669471,0.24630541871921352,1
0.0,0.5187768291994468,0.8852188392129545,0.5032430673254343,0.31256588921484185,0.24630541871921707,1
0.09940131879205032,0.46311403125674394,0.8536643578478682,0.5430954516346734,0.3116356671434144,0.24630541871922063,1
0.40296503613902357,0.4338857295256782,0.9379479869568421,0.40010323845764534,0.3041942542240914,0.24630541871921707,1
0.3074539888957305,0.4686118896435043,0.9211510823876892,0.2970994084491906,0.2939621750904853,0.24630541871921707,1
0.27262972618235665,0.4667869636341063,0.9212751816966354,0.4126725529272321,0.29675284130476876,0.26108374384235233,1
0.2920444685088402,0.5789160280505904,0.8813152419728654,0.5447689825699334,0.29954314386695213,0.26108374384235944,1
0.12658830190428572,0.6474825389005392,0.8060032785660978,0.19144723525513158,0.3009384769740939,0.2610837438423559,1
0.22297972565204308,0.5745538326140898,0.9202496946463234,0.47137030910319266,0.29954314386695224,0.2610837438423559,1
0.15211595515300386,0.5520235915753935,0.885425749750048,0.7005431022631934,0.2986132854476242,0.23645320197043773,1
0.1273784308451483,0.5234310471381569,0.9059202271063476,0.4634006979557744,0.3014035880098076,0.23645320197044128,1
0.2124422900757985,0.5206588462339968,0.8810867005652366,0.3556053128845275,0.3023338100812356,0.23645320197043773,1
0.18868802565025894,0.4813041529734657,0.9307448400557774,0.35088312588897397,0.3111705561077004,0.23645320197044484,1
0.16432065175272056,0.5039731343614152,0.8870635190095617,0.44442452395668436,0.31070544507198583,0.21182266009853024,1
0.020491095345673144,0.47769508892791435,0.90875588195954,0.5792641272600894,0.31303100025055575,0.21182266009853024,1
0.18829407194706196,0.45221469113762264,0.8940534701196687,0.2948801018689815,0.3116356671434142,0.21182266009853024,1
0.1485041936250166,0.4586007599132767,0.9457277110757565,0.14547445013827215,0.3041942542240914,0.2118226600985338,1
0.18430218331877027,0.4877926967294112,0.8785130321092087,0.4889989176057257,0.30837988989341647,0.2216748768472918,1
0.381776231561881,0.5557141519863648,0.8905557401514068,0.5934723240802426,0.3065198094026611,0.22167487684729892,1
0.26018317965412324,0.5251930867959202,0.8899736468148505,0.45035342332727674,0.31349611128626964,0.22167487684729892,1
0.40196085641616036,0.5299830932649203,0.8869015326170684,0.49800169194911403,0.31535655542912533,0.22167487684729892,1
0.38368559598754925,0.5269737783192701,0.8625981101812237,0.37426973397155744,0.31303100025055575,0.21182266009852668,1
0.5196265319659645,0.5441380953432262,0.8458882613875386,0.39944491596348713,0.31117055610769995,0.21182266009853024,1
0.2298811455122721,0.4830681198167347,0.916711669034797,0.49729218400287,0.3097752230005585,0.21182266009852668,1
0.2952842076366433,0.4665822689276106,0.9202894235598993,0.36639626734782044,0.3083798898934166,0.21182266009853024,1
0.26592879809074027,0.49895294970278625,0.8941580264227627,0.5733282294449625,0.3041942542240914,0.21182266009852313,1
0.28854556201747167,0.4745848453581999,0.9095711304544392,0.23262190458714913,0.30419425422409174,0.21182266009852668,1
0.2621624312395187,0.49124394846403885,0.900602371113528,0.37618994427585956,0.30093847697409404,0.21182266009852313,1
0.23504516950837412,0.45686753637009514,0.914992631962962,0.40210040638889616,0.30140358800980793,0.21182266009852668,1
0.3050932414506551,0.4649336897374272,0.9061499663299668,0.5206722816444423,0.300008254902666,0.21182266009853024,1
0.2854450828418313,0.452614376664522,0.9151031250603874,0.5201883209604473,0.30047336593838025,0.21182266009853024,1
0.29565444060774965,0.46502487065908826,0.9018233569589551,0.5406651735379736,0.29907839648333834,0.21182266009853024,1
0.27781652685549973,0.454456532998512,0.9152145538736258,0.40159003021337586,0.30000825490266614,0.21182266009853024,1
0.2778547832085234,0.4671422054787822,0.9020496518232457,0.32459873491778135,0.2972179523404824,0.18226600985222774,1
0.2662102516480254,0.45308132815742835,0.918697994798706,0.440814074096747,0.30186869904552205,0.1822660098522313,1
0.2684976364345963,0.4625221143914755,0.9034093513366377,0.48869884143656983,0.2990783964833381,0.1822660098522242,1
0.2693511962258628,0.44777873139690866,0.9190406929153658,0.426152737964261,0.29907839648333845,0.1822660098522313,1
0.2670971637497674,0.463500933175402,0.9007883957474034,0.4030943023175815,0.2981481744119102,0.17241379310344485,1
0.23738607070034584,0.4473302857948882,0.9358097230495677,0.4280615351653147,0.29861328544762444,0.17241379310344485,1
0.2580641183791409,0.4867000014137146,0.8843024741372811,0.45080728665270053,0.2944272861261993,0.1724137931034413,1
0.27744617242343805,0.4636856000995989,0.9314810180275193,0.420956751816948,0.2953575081976274,0.17241379310344485,1
0.179627747155995,0.5455974254962686,0.8955405705130366,0.40421581512653393,0.29675284130476876,0.17241379310345195,1
0.5436587369485849,0.5573444892443065,0.7769542467512965,0.43133671837253623,0.30093847697409426,0.1724137931034555,1
0.85389903661208,0.6355244708296555,0.44217786268545595,0.3721264933011894,0.23070998345019225,0.17241379310345195,1
0.7446157118033115,0.6894998945193318,0.3556239946117271,0.582782456153165,0.19257233313005126,0.1724137931034555,1
0.8063981486555307,0.7095014832350497,0.3494494874562539,0.5579967401462588,0.17629417418426427,0.15763546798030248,1
0.6178747909943862,0.584559608016884,0.7323448166683333,0.4794196963960501,0.1032750144460792,0.15763546798030603,1
0.3124536823456402,0.5376825689211979,0.9054576113002741,0.21804050002632047,0.07350936276878825,0.15763546798030248,1
0.006855308173338459,0.48445333851524464,0.874499710064185,0.3178687111617431,0.2083857446922243,0.15763546798030603,1
0.08897149987124373,0.5360378002920332,0.9021257235996041,0.5261746025151901,0.273498380475373,0.1724137931034555,1
0.07342420474460915,0.5428052749909413,0.8846827076199855,0.44656881369430107,0.21908257120944466,0.17241379310345906,1
0.10630602852662911,0.544500456758568,0.8628238937641559,0.45417205737076455,0.1921072220943373,0.17241379310345906,1
0.08032811708975118,0.5436963696089064,0.8944717477592998,0.5478890023339585,0.2697774921896616,0.17241379310345906,1
0.09937583576781157,0.5434823491631712,0.9101279389173351,0.5030973894343704,0.28745098424258986,0.15270935960591459,1
0.38775901076422836,0.7208163373770956,0.7880153103315027,0.4245257481599093,0.20280441226365784,0.15270935960591814,1
0.5549987237327405,0.790163880904599,0.6888447542120167,0.2033504724312342,0.1246693947847193,0.15270935960591814,1
0.5296741727764468,0.8046387525666276,0.5864356495962664,0.20072056081837045,0.1209485064990081,0.15270935960591814,1
0.6038556903435793,0.7108714254948085,0.6076836209798262,0.6035617444845944,0.176759285219978,0.15763546798030248,1
0.8495677870605292,0.6113253190143884,0.5474249634513038,0.5509036443096637,0.20047922073718757,0.15763546798030248,1
0.8313396066284748,0.6226303542394805,0.3882479824972165,0.24593850861667252,0.21117604725440767,0.15763546798030248,1
0.8243817562619655,0.6433382401498402,0.43023334166786825,0.2826320394288887,0.21861746017373082,0.15763546798030603,1
0.8584064722856084,0.5364230389449708,0.4875648725507155,0.5393374216412038,0.2139667134686912,0.15270935960591103,1
0.8307499869271726,0.5689939767005279,0.48615269075228,0.5247849881806823,0.21489693554011938,0.15270935960591103,1
0.8403170261235837,0.5473155303324453,0.48443970108879375,0.47240773368142497,0.21582715761154694,0.15270935960591103,1
0.8248633932890345,0.5673635805591145,0.48871168714785684,0.5117479297243307,0.21629226864726106,0.15270935960591103,1
0.8334284937988581,0.5447808855890052,0.4926546611470758,0.49196930871271366,0.2167573796829748,0.13300492610837367,1
0.8291717051967924,0.5616335084566342,0.48975183582036036,0.11799081703831416,0.21722212706658903,0.13300492610838077,1
0.8427689683014631,0.5449926148913704,0.49245775540480763,0.34723260711389065,0.2181523491380167,0.13300492610837722,1
0.8170615529087762,0.5593942634953042,0.5124891441763758,0.6274003047534007,0.21722212706658892,0.13300492610838077,1
0.8399934377486674,0.5451033307315013,0.5075058046970375,0.4925184478172893,0.21629226864726106,0.13300492610837722,1
0.8156678936372095,0.5581201853118787,0.522481426780687,0.4744675895087944,0.21675737968297534,0.13300492610837722,1
0.8312192272194758,0.5450798952144107,0.5133786295278697,0.41496792525376536,0.2153620465758336,0.13300492610837722,1
0.8115538824704902,0.5612365309615925,0.523754255657762,0.4216846855375276,0.21443182450440543,0.13300492610837722,1
0.8351115866113621,0.5430790371129406,0.5140117061860578,0.44332787939440216,0.21350160243297725,0.12315270935960854,1
0.8085018660071625,0.5613133796329568,0.5291727825097496,0.4411283564166659,0.21396671346869175,0.12315270935961209,1
0.8452140073892028,0.5482077130599204,0.5117795166581134,0.41556360717391944,0.2125713803615494,0.12315270935961209,1
0.7862337026900467,0.562504487294591,0.5380183385908461,0.4561464833808354,0.21210626932583573,0.12315270935961209,1
0.8936418286075909,0.547553448146987,0.49247412671683444,0.44001452527825924,0.20978071414726598,0.11330049261083985,1
0.7280604759677846,0.5918869288674713,0.6815052971265256,0.4192017798066053,0.21071093621869422,0.1133004926108434,1
0.1932144186652731,0.5816319800982058,0.8304756461167153,0.4117823358881718,0.23443050808380364,0.11330049261083985,1
0.2929256246239538,0.46631698993779414,0.8967174221977756,0.44877940265619326,0.24373236514598187,0.11330049261083985,1
0.23424074682052487,0.5099086173347189,0.9302055051073439,0.44469817128573175,0.2511737780653053,0.0935960591133096,1
0.2706348328068356,0.5053533014372081,0.8835674641566468,0.4131456530717893,0.2530342222081605,0.0935960591133096,1
0.3264080966672026,0.5070107670180353,0.9104566024020255,0.4844553813366199,0.2534993332438742,0.0935960591133096,1
0.45095884522518825,0.5290994980964602,0.8532857092517807,0.3551289909514516,0.25489466635101643,0.09359605911331315,1
0.47105502652432396,0.517551907714364,0.864616014467581,0.3589464007338086,0.2409420625837986,0.10344827586207828,1
0.49287005003433926,0.5155732330860963,0.8552231309155089,0.5243083460785578,0.24373236514598254,0.10344827586207828,1
0.485207766755541,0.514474324208816,0.8550449892277888,0.4755624346340698,0.24838347550312143,0.10344827586207472,1
0.5044039087085103,0.5206841262362061,0.8440622587695177,0.5167026073015285,0.25117377806530505,0.10344827586207828,1
0.4993393888325023,0.5151131291676857,0.848283068472419,0.36525567410117005,0.255824888422444,0.09359605911330604,1
0.5085691643260416,0.5191655006890251,0.8440474148315436,0.3804767040965902,0.2590803020203418,0.0935960591133096,1
0.5069742563931481,0.5153954002827852,0.847311756773069,0.4347545078448241,0.26187096823462463,0.0935960591133096,1
0.5083944260674814,0.5205803798517268,0.8432240308637932,0.42556682895432446,0.26466163444890844,0.0935960591133096,1
0.510923307099812,0.513022901333657,0.847624867648138,0.4380254906062042,0.26605696755605013,0.09359605911330249,1
0.506956728359457,0.5198387626753498,0.8421463201725857,0.4068247051285752,0.26605696755605046,0.09359605911330249,1
0.5115323848917711,0.5103149097187725,0.8471954822763632,0.4417203058639752,0.26559185652033646,0.09359605911330249,1
0.51032475943383,0.5409079508652617,0.8430722379222297,0.4358804033015965,0.26466163444890844,0.09359605911330249,1
0.5076133663258503,0.5073619673039085,0.8607628925744449,0.44385205048226634,0.2623360792703383,0.11330049261083985,1
0.4677771472748785,0.5060473555436868,0.8255227500654816,0.4070862572120391,0.26326630134176676,0.1133004926108434,1
0.817406271476134,0.6216736988812902,0.6192846973661528,0.44794198084690107,0.265126745484622,0.11330049261083985,1
0.6696812437476981,0.6149092748192402,0.7550766336436774,0.41999717259434655,0.2604756351274834,0.11330049261083985,1
0.23866497312362686,0.45891686878320936,0.8700565472046715,0.4455212576943661,0.26140585719891085,0.10344827586207828,1
0.6115686549290257,0.546633060417123,0.8092789672454195,0.37853916581680475,0.26698682597537815,0.10344827586208183,1
0.8334532235141449,0.6009607722453111,0.6156071040995982,0.44942665084418354,0.2674519370110918,0.10344827586207828,1
0.7305948601174148,0.5532734191851649,0.5899842765949459,0.4760586530339171,0.2576853325652996,0.10344827586207828,1
0.817699978260096,0.5405782905343094,0.5857877526382878,0.44064297619395476,0.26419652341319466,0.10344827586207117,1
0.8893660100858702,0.4959738037470964,0.4781552793918814,0.41020811609325075,0.2595454130560555,0.10344827586207472,1
0.846702270773534,0.5578431907531652,0.4745615286355503,0.5343344359300246,0.2488485865388351,0.10344827586207117,1
0.7963919506299091,0.5715477860342614,0.44863222726351576,0.38029756287808736,0.25256911117244696,0.10344827586207472,1
0.8676531185663797,0.5330165455434732,0.41004428147357846,0.3786912057170524,0.2558248884224432,0.11330049261084696,1
0.8565804947221279,0.5304211082163206,0.351909988530371,0.5115579891652143,0.2572202215295858,0.11330049261084696,1
0.8286907368528879,0.5546864719321021,0.3223920182640487,0.48800808732069856,0.26233607927033886,0.1133004926108434,1
0.8597023519329812,0.5648201672720372,0.3087886980303952,0.3770710272788425,0.2553597773867302,0.11330049261085051,1
0.8272341351885042,0.5669617260102632,0.3269830964067867,0.1634343375825414,0.2432672541102683,0.10344827586206762,1
0.8412729215756676,0.5617269893235725,0.30201398192817275,0.6453740732864481,0.2372211742980875,0.10344827586207117,1
0.8434112062625301,0.5655281829388967,0.3059150600522544,0.5818815225841674,0.23861650740522874,0.10344827586206762,1
0.8557874505147829,0.5881141523264689,0.34978680185438293,0.06191893187101155,0.24233703203884052,0.10344827586207117,1
0.8390739997938944,0.6051766129768876,0.4283243283098853,0.30375914728651643,0.2441974761816956,0.11330049261083985,1
0.7773546284226915,0.6457960095988285,0.4678718198428004,0.7647822813860575,0.24466258721741016,0.1133004926108434,1
0.7673182707711743,0.7065363116552121,0.4352438054737713,0.44859529662700376,0.2548946663510159,0.11330049261083985,1
0.7523375768768142,0.6779158384329119,0.3740861065176887,0.6169060684648698,0.2618709682346253,0.1133004926108434,1
0.7590133337975713,0.7160030804062512,0.29059871148476707,0.3490349771674953,0.2609407461631972,0.10344827586207472,1
0.7293929219168936,0.7568144738409219,0.35864487122462835,0.4350805733823264,0.2521040001367332,0.10344827586207828,1
0.7289844089660681,0.7481482711249948,0.4703302941149129,0.16945687818024158,0.25117377806530494,0.10344827586207828,1
0.6326791441519665,0.7684916832632176,0.5702448927184046,0.1497003598679124,0.26791704804680605,0.10344827586207828,1
0.6105043419366306,0.771217348994853,0.5931037825824911,0.561162563382275,0.2725681584039449,0.09359605911330604,1
0.6260811940032263,0.7887790595673481,0.5877102106275978,0.6745070643019161,0.273033269439659,0.0935960591133096,1
0.6173980069457694,0.7889955410664551,0.5763629785429817,0.5967075105895769,0.2730332694396589,0.0935960591133096,1
0.6282211370097501,0.7940996860414216,0.5759652655402883,0.35248157386114026,0.2721030473682312,0.0935960591133096,1
0.6140296325399341,0.792489871881056,0.5651891733056951,0.4603786862909322,0.2725681584039452,0.07881773399015302,1
0.6320938867208956,0.7934764890982322,0.5665210706611548,0.46655516907645345,0.271637936332517,0.07881773399014946,1
0.6172583727611058,0.7936937122713987,0.5617096485540284,0.4738709620220633,0.27163793633251687,0.07881773399014946,1
0.6395338274430812,0.8001016606251945,0.5483264781293082,0.43032490701855064,0.26838215908252017,0.07881773399015657,1
0.6288491583927914,0.7977187261870207,0.5438190679491488,0.39219358332490584,0.2702426032253753,0.09359605911328828,1
0.6334127528790279,0.8009303263412225,0.5452894955778108,0.1775339398062709,0.2683821590825204,0.09359605911328828,1
0.631695224416242,0.7995397495796347,0.5433089698225492,0.1931260654996161,0.26791704804680616,0.09359605911328472,1
0.6345602854786933,0.799958886322045,0.5421080962410767,0.451709707841071,0.26605696755605057,0.09359605911328828,1
0.6298824663949069,0.7984176021391158,0.5471214735409938,0.4958468565329346,0.2655918565203361,0.06403940886699644,1
0.629652443723897,0.7988771534468266,0.5559828559216373,0.43558531701185793,0.26373141237748077,0.06403940886700354,1
0.6319046241280482,0.8002493381146011,0.5405638123024055,0.5516060055859833,0.26419652341319433,0.06403940886699999,1
0.6149437231769054,0.8079948726990469,0.5469114777957257,0.6005448525173226,0.26559185652033634,0.06403940886700354,1
0.6159256476689485,0.8059014988979425,0.5528558113224055,0.41491887536203786,0.26326630134176676,0.07389162561576867,1
0.613037613574897,0.8088184805356776,0.5524624578511856,0.4682009624842772,0.2600105240917695,0.07389162561577223,1
0.6151572206032531,0.808167028149284,0.5488214031719756,0.3809814674578298,0.2595454130560553,0.07389162561576867,1
0.6227224844347414,0.806653248397172,0.5463872192376543,0.5407368541917622,0.2600105240917694,0.07389162561577223,1
0.6235363150864117,0.8029200005114862,0.5433959840404998,0.4366399628861668,0.2600105240917694,0.06403940886701065,1
0.6220585845919157,0.8058578890479344,0.5449085436027168,0.42601219005919017,0.2595454130560555,0.06403940886701065,1
0.6211122282562916,0.8034552732230458,0.5422754821553417,0.4329084940150993,0.25815044360101325,0.06403940886701065,1
0.6235700600043413,0.8100895808926463,0.5423268454600478,0.3705665849000371,0.2572202215295857,0.06403940886701065,1
0.6213253065069212,0.804767923402768,0.5406163953563754,0.43494853523984656,0.25675511049387156,0.05418719211823131,1
0.6207983747323848,0.811322906398741,0.5409546377677394,0.44565129153354816,0.2567551104938718,0.05418719211823486,1
0.6247857972675952,0.8046589701913158,0.5400620737333138,0.37531483834531865,0.2553597773867301,0.05418719211823486,1
0.6185709130220229,0.8100412769536225,0.5392484973092597,0.4653599878349337,0.254429555315302,0.05418719211823486,1
0.6203053972540846,0.8082697559291956,0.5343451645877528,0.47883132938265405,0.2539644442795884,0.0640394088670071,1
0.6191886645483031,0.8143074471200746,0.5374896480230632,0.49590294250178846,0.25163888910101884,0.06403940886701065,1
0.6227069305108566,0.8071674791189389,0.5322605294793818,0.37015498216880827,0.2530342222081602,0.0640394088670071,1
0.6189301232107811,0.8143782469702372,0.5356429107401113,0.3687015904926226,0.25210400013673295,0.06403940886701065,1
0.6210219742457094,0.8065721762011877,0.5307950302486288,0.43377025968924915,0.2521040001367324,0.05418719211823131,1
0.62186660330015,0.8156732068323227,0.5363719592719178,0.43936063230521777,0.2521040001367325,0.05418719211823131,1
0.6204846471637881,0.8031722372936356,0.5325614975257282,0.4188093417050555,0.25163888910101895,0.054187192118227756,1
0.6147518577795242,0.8238138938843075,0.5485585831229427,0.41992162883985185,0.25070866702959127,0.05418719211823486,1
0.6817989419676547,0.8193518186566774,0.46586133864648027,0.44585600579708534,0.24977880861026316,0.03448275862069039,1
0.6041628227512564,0.6565408806509332,0.21059401472521122,0.42900132663080986,0.24884858653883565,0.03448275862069394,1
0.7758703569795246,0.5171716560245121,0.010630911164550727,0.4731796506225468,0.2428021430745543,0.03448275862069394,1
0.7777341414045659,0.46791333469566376,0.106703653649739,0.34125313297005866,0.22745420620019538,0.03448275862069394,1
0.8743252878991264,0.4770136090085909,0.18188138158086908,0.5302256648356823,0.21071093621869377,0.05418719211822065,1
0.8659335983363453,0.5484360819983715,0.34969088232766204,0.4026347788514381,0.18513092021072866,0.05418719211822065,1
0.7230375396224394,0.6842223479876088,0.48550507994234626,0.33648132526822716,0.22280345949515604,0.05418719211822065,1
0.6918276812082816,0.7414203691862185,0.5235647516082662,0.5094033082582556,0.23117509448590653,0.05418719211822065,1
0.704024037848618,0.7388026741405,0.5252023322109425,0.4351308076590262,0.23210531655733432,0.054187192118227756,1
0.7084554188693327,0.7435042141354842,0.5192497499452132,0.46440423905254496,0.2307099834501927,0.05418719211823486,1
0.7066953802374958,0.738874206533653,0.5165501473310967,0.41611492175723513,0.23024487241447875,0.05418719211823131,1
0.7080719293016515,0.7416665210048721,0.5203286124944484,0.3969735488291893,0.23070998345019253,0.05418719211823131,1
0.7104257065455598,0.7363713634033583,0.5159295305319237,0.3953916551814402,0.23024487241447875,0.04433497536945552,1
0.7084355620655169,0.7430175111387832,0.5203309205390929,0.46997891103847006,0.23024487241447858,0.04433497536945907,1
0.6933028829106791,0.7267675974715971,0.5042747664214992,0.43023568220835817,0.23070998345019236,0.04433497536945552,1
0.7661974611149978,0.6706437875728732,0.3638805907093809,0.44849714949153097,0.23396539704808997,0.04433497536945552,1
0.8039176974479738,0.5420161801203025,0.15714022270977637,0.4341542396714716,0.23164020552162037,0.05418719211822065,1
0.9302940230059866,0.44225489280484853,0.2558981669369732,0.45057920958962366,0.21303649139726336,0.0541871921182242,1
0.7708142912430063,0.4896600896709043,0.5907298328895636,0.31482582759012195,0.19489788830862084,0.05418719211822065,1
0.6534465216736715,0.5027888310916899,0.765475054240701,0.5058520237150511,0.20931560311155253,0.054187192118227756,1
0.3101866691112228,0.4900125253457638,0.8875389723768929,0.365344778831702,0.22605887309305314,0.034482758620697496,1
0.31770884349905565,0.43244010043867287,0.9130696759657466,0.43258335886857174,0.22791931723590933,0.034482758620697496,1
0.2678055238793326,0.42724102721200685,0.9052307273292559,0.5058147268305154,0.22884953930733717,0.03448275862069394,1
0.3778010348360776,0.47765314603056686,0.89243451692867,0.4038445018423003,0.23257042759304827,0.034482758620697496,1
0.47587070080103755,0.4517713865680126,0.8852464613572282,0.3307090104977348,0.2316402055216202,0.04433497536945552,1
0.22819487179209366,0.47628093082578066,0.914397501411552,0.3438814721555342,0.23489561911951815,0.04433497536946618,1
0.5070560390265049,0.438747422039286,0.8057820329519847,0.45775819691811326,0.2316402055216202,0.044334975369462626,1
0.7521044735381502,0.48343024061110307,0.8282329246889804,0.6944931429637384,0.23768628533380134,0.04433497536946618,1
0.4844968305943834,0.7740223174640826,0.5379089031455263,0.6714856287491882,0.22884953930733684,0.04433497536946618,1
0.6153690624591622,0.7445560117792037,0.3370911425566529,0.2883640193867921,0.2302448724144784,0.04433497536946973,1
0.943573799512224,0.5419254532745824,0.46321011263629874,0.39388059007844867,0.21629226864726095,0.04433497536946618,1
0.8161965691133787,0.625360429593512,0.09961510306240284,0.5667747199106461,0.23070998345019259,0.04433497536946973,1
0.8435702745110484,0.5126920887356329,0.205979215440282,0.39370462527203365,0.2348956191195178,0.0344827586207046,1
0.7729077879378589,0.49312981306804954,0.6771843952319514,0.1596796438802729,0.24001184051237098,0.034482758620708154,1
0.5847323866934595,0.583293914250046,0.8025821495188793,0.3224146048640117,0.24512769825312372,0.0344827586207046,1
0.5290937853917655,0.5164252540005416,0.7707697075296238,0.6748393861221577,0.23722117429808734,0.0344827586207046,1
0.5533982926292258,0.5841552874563916,0.8232988492220222,0.23271517895226876,0.2297797613787644,0.03448275862069394,1
0.6109472541682933,0.5641720082754287,0.7702834379274988,0.28290032579360536,0.22001279328087267,0.034482758620697496,1
0.5836433775038206,0.5629457442973864,0.8013461995444147,0.6190167404070296,0.22466390363801156,0.034482758620697496,1
0.6232487496575998,0.5661248069190239,0.7622357901392455,0.35329081771065435,0.22512865102162552,0.034482758620697496,1
0.5719402013179876,0.5329341546137352,0.834507695068423,0.40687698890599144,0.2260588730930533,0.03448275862070105,1
0.6595203089002523,0.5524013114277602,0.720730595817792,0.45103928377856967,0.22838442827162334,0.0344827586207046,1
0.7750587540073548,0.6484086767800278,0.5086001235496849,0.48824496071347706,0.19908388763004606,0.03448275862070105,1
0.7911147648490764,0.6154094554487417,0.5565708175139072,0.4392254648484166,0.11304198254397183,0.0344827586207046,1
0.7903992147997833,0.6071133174409875,0.5734078560104668,0.45077293549132075,0.0762996653309719,0.024630541871914602,1
0.7793744691134316,0.5926496326876382,0.5736850484853042,0.48486031756604436,0.08002055361668345,0.024630541871914602,1
0.7941754857474183,0.6012939375921234,0.5766145090836646,0.4804389585528721,0.08560152239315069,0.024630541871914602,1
0.7808353763038357,0.6081489952656527,0.5697917852549843,0.4021296374356939,0.09769404566961268,0.024630541871918155,1
0.7725310263620145,0.6146718214036906,0.5626941792373885,0.4336310619176829,0.11118153840111569,0.024630541871914602,1
0.7842846067097455,0.6258146567732354,0.5511311969702173,0.4488773909286775,0.12559961685614732,0.024630541871914602,1
0.7976762738932285,0.6285422799685988,0.5274479971658134,0.4189196656306512,0.15117926921201266,0.024630541871914602,1
0.772220996357184,0.6818195939761087,0.5669314606871774,0.4500512296175978,0.1609462373099049,0.024630541871914602,1
0.5580371082939226,0.6119393581293049,0.7693917498591889,0.4512946824147663,0.1972234434871906,7.105427357601002e-15,1
0.6098798152059716,0.5944181038420595,0.7436111441761102,0.4240994350840277,0.21443182450440576,1.0658141036401503e-14,1
0.7057465632803768,0.6291014887368993,0.6811661431909577,0.4183581787427584,0.19350255520147933,7.105427357601002e-15,1
0.7234423153905416,0.6653412270987114,0.5799271658391638,0.3027378707207472,0.18234061764854512,1.0658141036401503e-14,1
0.7068506535537495,0.6620070017412087,0.6500196244444698,0.43043691924961064,0.18187550661283144,7.105427357601002e-15,1
0.6857129168421647,0.6155260945471817,0.6744531474269382,0.6049998958738912,0.18048017350568976,1.0658141036401503e-14,1
0.7139091567948037,0.6196039576695914,0.6710519266232516,0.43875567958146017,0.17954995143426158,7.105427357601002e-15,1
0.734249068965409,0.6077928421444909,0.6559922505206413,0.38044746810530755,0.18513092021072872,7.105427357601002e-15,1
0.7334810882783309,0.6026509382827432,0.6359097039503072,0.43126859948797935,0.18978203056786733,0.0,1
0.7661138061066802,0.6025722500754204,0.6254243899470735,0.45415630318619127,0.19257233313005148,7.105427357601002e-15,1
0.7493716249370318,0.6026982977220455,0.6192675766819177,0.40078094260441527,0.19257233313005165,3.552713678800501e-15,1
0.7560082834022905,0.6057237038705958,0.6174334167187248,0.429129087581795,0.194432777272907,3.552713678800501e-15,1
0.7526324388170144,0.6045960466709664,0.6192217845183791,0.4253809925267482,0.1944327772729069,0.02463054187191105,1
0.7636574482537626,0.603183161556006,0.6084138208803572,0.4502580553080251,0.19629322141576258,0.024630541871914602,1
0.7612077532000762,0.6056669633428406,0.6035007297152895,0.40377947067907144,0.19489788830862068,0.024630541871914602,1
0.7723961743610321,0.602860311376755,0.5957311097342941,0.4251184267474015,0.1958281103800489,0.024630541871914602,1
0.7620928026759458,0.6006229354170405,0.5969719027414802,0.4427938373312327,0.1944327772729069,0.03448275862069039,1
0.7803518032067217,0.5936840379299031,0.5889002234298879,0.4452098116055243,0.19536299934433501,0.03448275862069039,1
0.7796526848071611,0.5886636246923425,0.5868872447146821,0.4085300717267348,0.19257233313005148,0.03448275862069039,1
0.7921413941873668,0.5889967385632191,0.5715151868122118,0.4299372495398974,0.19396766623719322,0.03448275862069394,1
0.7878018892534391,0.588526070594296,0.5621628112235338,0.4239654858670753,0.19303744416576538,0.024630541871918155,1
0.798016824158568,0.5887143743503251,0.5609096707450865,0.41383242418343535,0.19303744416576538,0.02463054187192526,1
0.7965009048717628,0.5881972039932453,0.5415402469847106,0.4179760451034189,0.19257233313005148,0.024630541871921707,1
0.8178802359838144,0.5880412385062838,0.5160046537206431,0.4591326434571697,0.19257233313005143,0.02463054187192526,1
0.8108022457209768,0.5878915017917525,0.509868017165041,0.4205101011588894,0.19117736367500957,0.03448275862069394,1
0.8252451234524859,0.5875221144487055,0.5010483996710955,0.42787452794309966,0.19210722209433787,0.034482758620697496,1
0.8128751299799073,0.5854846201250143,0.5066246299839403,0.48271184716333954,0.19164247471072363,0.03448275862069394,1
0.8205811358122134,0.5838061358138746,0.5002156605774728,0.4483752163509131,0.19117736367500984,0.034482758620697496,1
0.8148238673622085,0.5853339617951328,0.5049219403165537,0.3924491476796348,0.19024714160358155,0.044334975369462626,1
0.8236439360228537,0.5828048443212678,0.500917427055617,0.4015149191071863,0.1893169195321542,0.04433497536946973,1
0.8151378575799605,0.5766682172939315,0.5041087158975278,0.4381601104649559,0.18978203056786772,0.04433497536946618,1
0.8247046935165385,0.5787036486267457,0.5108392691805878,0.45524601814213883,0.18931691953215393,0.04433497536946618,1
0.8113124950276326,0.5775769665664153,0.5163283327650529,0.41988762507133837,0.1888518084964397,0.044334975369462626,1
0.8142868854267991,0.5864584102457798,0.5193396073217146,0.4452144524890476,0.1893169195321541,0.04433497536946973,1
0.8049737167250062,0.5846202058013747,0.5315741309165471,0.4061427861693494,0.18885180849643993,0.04433497536946618,1
0.8143883920174692,0.5795625828928712,0.5320842838292743,0.4188876419615665,0.18885180849643987,0.044334975369462626,1
0.8071124693640725,0.5773402696138749,0.5331992438913604,0.4707873089975178,0.19071225263929595,0.06403940886699644,1
0.8148739106432992,0.5838816416514523,0.5302207835494961,0.457712111848145,0.1935025552014795,0.06403940886699999,1
0.8062762387030904,0.5776879592052989,0.5332133162348185,0.38670009737594135,0.19210722209433748,0.06403940886699644,1
0.8147955411700213,0.5802543595402336,0.5273078258608015,0.4231585135531298,0.1925723331300517,0.06403940886700354,1
0.8048482310104585,0.5776500678834724,0.5307438150868475,0.4389039202693719,0.1902471416035819,0.06403940886700354,1
0.8153647091770003,0.5801190588022946,0.5260599236232875,0.4236801379864632,0.19210722209433787,0.06403940886700354,1
0.8079491657927378,0.5765384454929947,0.5300094713489941,0.4360247563137099,0.1911773636750098,0.06403940886700354,1
0.8157541205875073,0.5802714458667675,0.527909650444032,0.4486915534001098,0.19117736367500973,0.0640394088670071,1
0.8084230211525776,0.5764364784366411,0.5338254716459437,0.43749594246477946,0.19117736367500957,0.07389162561576512,1
0.8147439831218063,0.5803570994310521,0.528103709875791,0.438667687032321,0.19024714160358216,0.07389162561576867,1
0.804745149168915,0.576359286342816,0.5317171100108282,0.42108099010996325,0.19071225263929528,0.07389162561576512,1
0.8150828555486129,0.580428360435784,0.5251081159750625,0.41661614405059877,0.19071225263929562,0.07389162561576867,1
0.805918386683151,0.5762921877106005,0.5314147691352333,0.4395790018692308,0.19071225263929562,0.07389162561576157,1
0.8181781998227224,0.5804970488896564,0.5260535410397859,0.45654460534502017,0.1902471416035819,0.07389162561576512,1
0.8054987699045626,0.5761838115099935,0.5309137622127859,0.41614913713862683,0.18978203056786794,0.07389162561576157,1
0.8175467963181776,0.5838485692854719,0.5181811897936501,0.44867376135203174,0.18745647538929835,0.07389162561576512,1
0.8130887214307653,0.5682466724510375,0.527198465804337,0.42719970846325206,0.18931691953215338,0.07881773399016012,1
0.8217235740986708,0.5695329959257894,0.5293113610721515,0.43709520364549204,0.1883866974607266,0.07881773399016367,1
0.8056753683161916,0.569693600110774,0.5297989937349078,0.41456571130339553,0.18885180849643954,0.07881773399016012,1
0.8260909862704996,0.5750495467774885,0.5248280334527926,0.4454649851043231,0.18885180849644004,0.07881773399016012,1
0.8004448505312026,0.5731549040636725,0.5275284649152412,0.4312347302917167,0.18931691953215377,0.07389162561577578,1
0.8312880818943259,0.5656824517583932,0.5282951316396745,0.43576425241798056,0.18978203056786777,0.07389162561577933,1
0.8676444370743142,0.579817097002439,0.5407531684909355,0.4038138223454559,0.1916424747107233,0.07389162561577578,1
0.6246498117669359,0.6192625009687792,0.6355066614539338,0.4654660747542306,0.19303744416576515,0.07389162561577578,1
0.749078721548888,0.590597441350436,0.6963002670005088,0.4074303741155085,0.21536204657583344,0.10344827586207828,1
0.7246700660817408,0.5869664528726657,0.6258380214545094,0.43582280312591026,0.21350160243297808,0.10344827586208183,1
0.7958714301568647,0.6321040920907877,0.603949149832432,0.418969756677981,0.2121062693258359,0.10344827586207828,1
0.7841184891664174,0.4513539432536417,0.6010179679782376,0.5448387422152399,0.2060601895136552,0.10344827586208538,1
0.8778810655761142,0.466217982934376,0.5072087531315987,0.3201046076279429,0.19815366555861777,0.07881773399016723,1
0.9570720826369896,0.5564268054764135,0.5276757503613113,0.4048637016755202,0.18606114228215684,0.07881773399016367,1
0.7467715866307298,0.5465594060138667,0.5129356159849804,0.47304078024769447,0.20559507847794092,0.07881773399016367,1
0.7358358320784616,0.6695089743291414,0.3241806570381083,0.5415975119335161,0.21443182450440565,0.07881773399016723,1
0.781230981659079,0.6609956192260954,0.4085953474313856,0.43032440223896273,0.22884953930733684,0.09359605911329538,1
0.8681026073539814,0.5084126510185089,0.4221206690017826,0.39787048662393454,0.22512865102162585,0.09359605911329894,1
0.91464017039642,0.4433762105738648,0.5438406163918093,0.345267811621594,0.2228034594951557,0.09359605911329538,1
0.7469349164897778,0.5607845159777204,0.6995150505947161,0.2384671107142849,0.22605887309305364,0.09359605911329894,1
0.4422298571865033,0.505552227780665,0.7714021279478537,0.5909968390726732,0.237221174298087,0.09359605911330249,1
0.11917007870039797,0.21100565504825539,0.989251805946233,0.43303077508475957,0.23768628533380162,0.09359605911330249,1
0.19284055131031005,0.44302180795057555,0.8962349855843148,0.46599977664939574,0.23954672947665676,0.09359605911330249,1
0.21667610771214532,0.4170253687053628,0.91006707887613,0.5485548790737608,0.24094206258379916,0.09359605911330249,1
0.2659462228993492,0.36803404695850844,1.0,0.1953488814528607,0.24001184051237093,0.0935960591133096,1
0.24774139650549576,0.6377960356375809,0.7305047360648567,0.3162605273454251,0.2395467294766573,0.09359605911331315,1
0.6678369078385722,0.6562667670174437,0.5748958387527155,0.641377425386971,0.22931465034305107,0.09359605911331315,1
0.940055937629519,0.5413862572702451,0.6162001180422709,0.5076705543998783,0.14838896664982928,0.09359605911331315,1
0.7483007341765313,0.5254764907948324,0.5258933713480455,0.3956276822640379,0.15862104578343503,0.07881773399014946,1
1.0,0.6253842546106892,0.42275815445038195,0.5049161960358116,0.18094528454140338,0.07881773399015302,1
0.85822265401167,0.6558872930200993,0.5661020925742075,0.28370098003971156,0.18327083971997313,0.07881773399015302,1
0.1155020471471031,0.8098608742925174,0.5531185319521877,0.3590567354766572,0.20885085572793868,0.07881773399015302,1
0.1792636640943136,0.9113982425871596,0.5698110759660583,0.5142866778036247,0.2209430153523004,0.07881773399015302,1
0.2630606220624633,0.9377391099167613,0.5669994286807428,0.4011158337424763,0.228849539307337,0.07881773399015657,1
0.1830068239267462,0.8977394486663262,0.5321876237553491,0.4537943020150717,0.23257042759304777,0.07881773399015302,1
0.3183356337416851,0.8990274452861471,0.46188019243467393,0.5256171890711043,0.2344305080838042,0.07881773399016012,1
0.40945483782204684,0.5320766115784146,0.9374464142358656,0.45128322509505686,0.2353607301552317,0.06403940886699644,1
0.06488800760206637,0.33338822120179507,0.9527932821895342,0.37417305169246534,0.22326857053087026,0.06403940886699644,1
0.1662126534110317,0.4618578362575941,0.9006765355435029,0.4848088982826371,0.22652398412876754,0.06403940886699289,1
0.12115322742401233,0.4117085617155978,0.9289534976070155,0.37879229125857306,0.2241987926022981,0.06403940886699999,1
0.2988816683491594,0.5153841396669345,0.8890516831832815,0.22222294244207708,0.22001279328087256,0.07389162561575802,1
0.43335468974000213,0.49746093505692396,0.8744103778527383,0.46448710920922975,0.22047790431658673,0.07389162561576157,1
0.5794888025341572,0.5500307635281407,0.7923844352297746,0.5860476654008244,0.22233834845944175,0.07389162561576157,1
0.6145382995869272,0.5606580861628228,0.7668313524055024,0.45410041501807885,0.2144318245044056,0.07389162561576512,1
0.5707960337521473,0.4355660473193373,0.8515079741240001,0.4262599796870472,0.20792063365651067,0.05418719211823131,1
0.6796185694634178,0.43455334276793706,0.7264184810838699,0.5595667621396108,0.20745552262079694,0.05418719211823486,1
0.8018052251247724,0.5953382771843526,0.6386111576869185,0.40002601359110196,0.19582811038004874,0.05418719211823131,1
0.6556310114446525,0.4280644858992983,0.7499460973998009,0.31780864532288694,0.13350614081118392,0.05418719211823486,1
0.8613838338981703,0.42287651824544137,0.6038020125531396,0.42768765039958445,0.1655973476670443,0.0640394088670071,1
0.8075030913752254,0.4639267800338744,0.5444768128863637,0.4480063114764562,0.17117831644351125,0.06403940886701065,1
0.8863862956404123,0.46596380032989665,0.42963542955241224,0.5046657527255487,0.17815461832711962,0.06403940886701065,1
0.8909740467934767,0.47091630629140957,0.38560089414300347,0.3666967128621971,0.18606114228215645,0.06403940886701065,1
0.8658718558878926,0.44840687496574894,0.3953478781789296,0.4717183513156453,0.19722344348719026,0.06403940886700354,1
0.8711636544266202,0.4551908588537428,0.3775760539059886,0.41977830352938794,0.20047922073718796,0.06403940886701065,1
0.880272561562037,0.4565941380435228,0.3612360504707307,0.5064223189694228,0.20978071414726654,0.0640394088670071,1
0.8562156841454449,0.45013521944853074,0.44096588355283095,0.48937002585001743,0.21350160243297736,0.0640394088670071,1
0.881381769524537,0.4564210152846929,0.3961449420927576,0.38529183093099884,0.2139667134686917,0.06403940886700354,1
0.8664272977079678,0.45677844078691165,0.36717472663973444,0.3957358597890496,0.216757379682975,0.06403940886700354,1
0.8639378623449381,0.4683838717996065,0.32048950474647486,0.3767328537882915,0.21861746017373015,0.06403940886699999,1
0.864163354105541,0.4609211535734301,0.30049493368563646,0.12107044490539026,0.21908257120944488,0.0640394088670071,1
0.8647175807256924,0.4659734539877939,0.30819301198111554,0.5559239365576647,0.22094301535230002,0.054187192118227756,1
0.8613635716313082,0.4592834028899363,0.3076257641021196,0.5689285333002229,0.2214081263880139,0.054187192118227756,1
0.8640786488334099,0.46503495773795156,0.30970687942326197,0.4334825715004,0.22280345949515615,0.05418719211822065,1
0.8603961027126675,0.4594567883385348,0.3088819403005673,0.49173856703855734,0.22187323742372847,0.054187192118227756,1
0.8633652935995547,0.46586286670169197,0.31074289280671863,0.3613942759611078,0.22280345949515604,0.054187192118227756,1
0.8605954887621379,0.45992664661787686,0.3089873146265676,0.3318935556245267,0.22094301535230057,0.054187192118227756,1
0.863225760468571,0.464462875076042,0.3110222652641226,0.3127737549986933,0.2228034594951557,0.054187192118227756,1
0.8613403124467799,0.4604450153049427,0.3125808332340025,0.4594723127414685,0.22280345949515615,0.054187192118227756,1
0.8660087543073863,0.4655639788933712,0.31575502541224626,0.511146812193457,0.22280345949515554,0.05418719211822065,1
0.8621748460149729,0.4607494864848005,0.31200899800158993,0.4489343722218172,0.22001279328087256,0.05418719211822065,1
0.8655624452050218,0.4643530510555104,0.31079328472650825,0.48827942238887256,0.22280345949515576,0.05418719211822065,1
0.8614184671554707,0.46009613701171687,0.31196489325236443,0.39908546105388903,0.2223383484594421,0.0541871921182242,1
0.8625579960712221,0.4643107552856206,0.3106517818124318,0.4981179255767564,0.22233834845944175,0.05418719211823486,1
0.8615693908926103,0.4601805608529846,0.3110088001413758,0.45735653267188486,0.22373368156658383,0.05418719211824197,1
0.8638099495867563,0.4642189149046393,0.3104345632466802,0.4094798262774743,0.2223383484594417,0.054187192118238414,1
0.8613213309617586,0.4602726924784255,0.31112131864330794,0.3773176208664812,0.22233834845944175,0.054187192118238414,1
0.8619203139049317,0.46412862479566563,0.30809032780477763,0.5144475060885944,0.22047790431658623,0.04433497536945552,1
0.8603912017504672,0.4603603942895139,0.31028692527955204,0.39137868026109945,0.22280345949515554,0.044334975369462626,1
0.8628516250020192,0.4640437725438116,0.30978604071778243,0.4313117323637725,0.22233834845944175,0.04433497536945552,1
0.8613023133556814,0.4604423323968812,0.3101200265092917,0.41542405860336706,0.22140812638801402,0.04433497536945907,1
0.8622080274721903,0.4639647260224389,0.31040916125878165,0.5111457243998145,0.22187323742372791,0.03448275862069039,1
0.8637889884779564,0.46051855008101694,0.3112845701040616,0.4801018528191129,0.2228034594951557,0.03448275862069394,1
0.8648940993395418,0.46389125638067236,0.31223762414806466,0.4326357815929358,0.22140812638801385,0.03448275862069039,1
0.8616747568559624,0.46058935922555094,0.310314012488842,0.4138271878493579,0.22140812638801424,0.034482758620697496,1
0.8632214878839195,0.4638230196119037,0.30951890554406003,0.44756594840987113,0.22187323742372758,0.034482758620697496,1
0.8608135425646242,0.4606551087054811,0.31288962797452224,0.4289657684147086,0.2218732374237282,0.034482758620697496,1
0.8629872592197401,0.4637596776539641,0.31355890394366387,0.41863240660963286,0.22094301535230051,0.034482758620697496,1
0.8609705789944356,0.46071611594903045,0.312397117204931,0.41086956872557284,0.21954768224515855,0.03448275862070105,1
0.8628679884151046,0.463700940840706,0.3117522951017024,0.4568228308620982,0.22094301535230018,0.03448275862069039,1
0.861068770638115,0.4607726353914343,0.31017286575027686,0.4342585811563886,0.22047790431658656,0.03448275862070105,1
0.8627821875322434,0.46364660550022163,0.3113980044396548,0.422674662236767,0.21908257120944427,0.034482758620697496,1
0.861147630149046,0.46082476273338857,0.31074900050536014,0.4124708372585241,0.2195476822451584,0.03448275862070105,1
0.8627059991633885,0.4635969678263432,0.3112550500424601,0.4326511756808831,0.21861746017373043,0.03448275862070105,1
0.8612255924145769,0.46086993705728285,0.31422347216580676,0.43530114154219807,0.21861746017373043,0.03448275862070105,1
0.86261993858124,0.4635788791868128,0.31370504219874007,0.4374787069594646,0.2190825712094445,0.034482758620697496,1
0.8613319004569275,0.4624175162229892,0.315537710107089,0.41142720163293345,0.21908257120944483,0.03448275862070105,1
0.8624608096598814,0.46448672147274045,0.3163234103878032,0.4375761812240702,0.21815234913801665,0.034482758620697496,1
0.8617073692099437,0.4617237122826392,0.3166274679464082,0.45042418586955413,0.2176872381023033,0.0344827586207046,1
0.8636462001101515,0.46438750994148525,0.315257706798787,0.42101978410321816,0.2125713803615494,0.03448275862070105,1
0.8615686177840186,0.46343989833498256,0.3151480627006472,0.4075062291584586,0.21629226864726106,0.03448275862070105,1
0.8638466536079367,0.46349225473078726,0.3155763795077484,0.44820210907058555,0.21582715761154678,0.044334975369462626,1
0.8608287576639578,0.4610521209844103,0.3162992289399032,0.4522047737381586,0.21722212706658914,0.04433497536946973,1
0.8629305132756332,0.46337041046504857,0.3143991058514081,0.44596504686409605,0.21536204657583327,0.04433497536946618,1
0.8609987672970685,0.46109014685343175,0.3145715914499959,0.3868881393760488,0.21582715761154678,0.044334975369462626,1
0.8629505675726197,0.46334364435662034,0.31179155114238,0.41216967633409557,0.21489693554011927,0.04433497536946973,1
0.8624148010283454,0.4611124642529362,0.31256764043954516,0.4466243133310989,0.2148969355401196,0.04433497536946973,1
0.8625912228464866,0.4633252431044037,0.31440671687480626,0.42627869804720214,0.2148969355401192,0.044334975369473284,1
0.8612369780955834,0.46112592667367835,0.3147695579151817,0.41898039252112834,0.2148969355401196,0.04433497536947684,1
0.8626890726901725,0.46331894536485774,0.3130527256971656,0.43297879181526133,0.2139667134686911,0.04433497536945552,1
0.8611537929889141,0.461120630248204,0.31505586491097304,0.45567235155774166,0.2139667134686916,0.04433497536945552,1
0.8628682742639702,0.46334608815635,0.31618743060541005,0.4328634327826609,0.2135016024329777,0.04433497536945197,1
0.8623906158348569,0.4610393751839187,0.3139287219449321,0.43752790894681826,0.2148969355401196,0.04433497536945552,1
0.862998452152018,0.46369804171740014,0.3156496394975635,0.4405917830043462,0.21350160243297742,0.044334975369462626,1
0.8624669828924928,0.46230729107257673,0.3168018906518095,0.42372929718303576,0.2139667134686917,0.04433497536946973,1
0.8621849510341766,0.46586240250293326,0.3148918729774126,0.3989058028462928,0.21257138036154957,0.04433497536946618,1
0.8615821669002305,0.4630096666692243,0.3148727278804278,0.4234346727949894,0.21257138036154974,0.044334975369462626,1
0.8623607091329875,0.4627582263005068,0.31318183255583015,0.45175151290226684,0.21164115829012173,0.044334975369462626,1
0.8615023496070496,0.4615487741300639,0.31380040747668514,0.43901268267647503,0.21350160243297758,0.04433497536946618,1
0.8624086211999414,0.4629223663757024,0.3114699131074105,0.4150435787367385,0.21117604725440817,0.044334975369462626,1
0.8614666894360481,0.46163790215243444,0.3123399911667815,0.43984212465855305,0.21071093621869416,0.04433497536946618,1
0.8624419987930827,0.4643501103517095,0.3121048769724727,0.45030264112366286,0.20885085572793863,0.034482758620697496,1
0.8614264742363086,0.46225189801650185,0.31334484613935065,0.4241474674713306,0.2111760472544084,0.03448275862070105,1
0.8625085637156684,0.4628073607001959,0.3133592108267099,0.41928108721817287,0.2088508557279383,0.034482758620697496,1
0.8596029162876903,0.46133480854808373,0.3141647499927698,0.44298759023805817,0.20931560311155248,0.03448275862070105,1
0.8657869353618123,0.46732847235511854,0.31385714621909744,0.4540465663057125,0.20838574469222396,0.044334975369462626,1
0.8640995544639791,0.46398549187313853,0.31320594088475673,0.4364836655895656,0.2093156031115523,0.04433497536946618,1
0.8603706774970861,0.46747866486450784,0.31760924827421994,0.49654959409964927,0.20792063365651062,0.044334975369462626,1
0.8630435472382905,0.4664523190883897,0.313137830405554,0.5985483283803026,0.2074555226207966,0.044334975369462626,1
0.8640554989750308,0.46338933970631135,0.31453726802765836,0.4431570139212951,0.2055950784779407,0.044334975369462626,1
0.8613972204652557,0.46369077300468614,0.3110626445937372,0.14078463404654307,0.20652530054936877,0.04433497536946618,1
0.8651385828344763,0.4628023857035641,0.3126943127568164,0.3000860625374434,0.20606018951365454,0.044334975369462626,1
0.8609918541562108,0.46370944674302456,0.31056003541062893,0.5557329929125093,0.20419974537079935,0.04433497536946973,1
0.8647559870180884,0.463184637759498,0.3102185311058256,0.4669737532846261,0.20559507847794087,0.044334975369462626,1
0.8622115350295751,0.46229955276379264,0.31049737367207875,0.5853711190987277,0.20466485640651336,0.044334975369462626,1
0.8622368389751466,0.46419896254998405,0.31286948940066295,0.3236424214078203,0.20466485640651308,0.04433497536945907,1
0.8642953957838547,0.46253444557352363,0.3148189155824076,0.21574369803376278,0.2055950784779411,0.044334975369462626,1
0.8620760770172696,0.4638784317288607,0.31409180945145326,0.43883137397447747,0.20512996744222708,0.04433497536946618,1
0.8617182995948027,0.4646101256990414,0.31516629329504514,0.48931580876091907,0.20419974537079907,0.044334975369473284,1
0.8622217007722528,0.46438402498054776,0.31556625771540914,0.4589814571370377,0.20512996744222686,0.04433497536946973,1
0.861631205382371,0.4628419169992466,0.3150243999712006,0.4688414676698181,0.20419974537079918,0.044334975369473284,1
0.8623082345816344,0.4640133031913159,0.31563024760895164,0.5355580764709476,0.20373463433508535,0.04433497536946973,1
0.8614788456271913,0.4627209522043204,0.31312293296112875,0.43487953110601524,0.20326952329937184,0.04433497536946973,1
0.8633417957190649,0.4632259270859146,0.30963254204117086,0.3763894264677218,0.20140907915651599,0.04433497536946618,1
0.8621373011213286,0.4615533247562253,0.3100131092423092,0.2979541664334432,0.2028044122636579,0.04433497536946973,1
0.8619070829130354,0.4627601310394926,0.3069182564880843,0.41309458144025574,0.2023393012279431,0.054187192118227756,1
0.8622726398183824,0.4637817985491475,0.3089034254206844,0.46404639464418634,0.20140907915651615,0.05418719211823131,1
0.8620271741797265,0.46501610380217595,0.30715508445833045,0.4535045076947328,0.20140907915651576,0.054187192118227756,1
0.8611778457648936,0.46227932764615576,0.3089007980669569,0.4620575678540872,0.20094396812080187,0.054187192118227756,1
0.8631594263239948,0.46482059382994395,0.30687561526134527,0.42496647056057346,0.20094396812080165,0.07389162561576867,1
0.8624307186714387,0.4631474799517316,0.31115171584234774,0.37724507604431345,0.20047922073718796,0.07389162561577578,1
0.8619917978091978,0.46457221471379917,0.30949053077415417,0.3782447444682832,0.20047922073718757,0.07389162561577223,1
0.8618029263361441,0.46135973695817906,0.3109906396347335,0.5152308335419798,0.19954899866575995,0.07389162561577223,1
0.862126047197365,0.46361927190637353,0.3127320142835723,0.47931359884735675,0.20001410970147418,0.07389162561576512,1
0.8617473222546622,0.4651027491963234,0.3107971288718888,0.45232127333818023,0.1981536655586182,0.07389162561576867,1
0.8621536619526479,0.46525417329700725,0.31180148312853573,0.4430843671300697,0.19908388763004595,0.07389162561576512,1
0.8617334947650799,0.46174221953072114,0.31074008983141077,0.4261856201721829,0.1976885545229047,0.07389162561576867,1
0.8621589724995234,0.4627706398968002,0.308214107559507,0.40963954948125925,0.19861877659433239,0.06403940886700354,1
0.8617346320640904,0.46167662616203414,0.3090366497982452,0.4186576361051119,0.19768855452290454,0.06403940886699999,1
0.862151891422886,0.46276351005559974,0.3077614908196762,0.44262268188196824,0.19861877659433227,0.06403940886699999,1
0.8617482824528956,0.4616861903466086,0.3081359230629753,0.435199319515784,0.1981536655586182,0.06403940886700354,1
0.8621297549350664,0.4627601013462157,0.3079372188331231,0.4350264772030254,0.19722344348719037,0.06403940886699999,1
0.8617829660520953,0.4616771417713864,0.3079979060239094,0.4622927562038138,0.19722344348719087,0.06403940886700354,1
0.8620738761522836,0.46279740958040644,0.30820804604448626,0.4215928613067207,0.1972234434871901,0.06403940886699644,1
0.8618810197977619,0.4615451030358384,0.3090505004052923,0.40806587035876923,0.1962932214157627,0.06403940886700354,1
0.8618668594888534,0.4649131431854623,0.30772815097351464,0.4073968890722691,0.19536299934433485,0.07389162561576867,1
0.8626141260912779,0.4646583941367632,0.30818362541646954,0.45826123097136334,0.1962932214157627,0.07389162561576867,1
0.8644952796446054,0.46465301252832963,0.3078736213146971,0.4721235167331904,0.19908388763004606,0.07389162561576867,1
0.8610096191908855,0.4633264922408755,0.3080893605698782,0.5022920032959095,0.19954899866576006,0.07389162561576867,1
0.8634967555855692,0.4640570883702948,0.308010854667995,0.5415465700701374,0.19954899866575973,0.09359605911329894,1
0.8629803313266643,0.4643326254143819,0.30713822497075594,0.35423062406988265,0.19861877659433222,0.09359605911330249,1
0.8626528000971928,0.46349506893526554,0.3032455423675776,0.35531636119534843,0.1990838876300455,0.09359605911330249,1
0.8614283223771063,0.4621507567161145,0.30208198711159073,0.3733112147519351,0.19861877659433227,0.09359605911330249,1
0.861109281706259,0.46371826513732556,0.3000683175001736,0.3773287921861575,0.1986187765943319,0.07881773399016012,1
0.8615137730774101,0.4614115928098652,0.2995793335218819,0.4329706811104476,0.1986187765943321,0.07881773399016367,1
0.8623058721673995,0.463439141371088,0.299538173930393,0.43935308449683486,0.19861877659433205,0.07881773399016012,1
0.8600312820489164,0.4624430850798076,0.29965282390102815,0.405615605701761,0.19629322141576253,0.07881773399016012,1
0.8600101177560555,0.4624824495022045,0.2994979315866807,0.41492815228860325,0.1967583324514766,0.09359605911331315,1
0.8614234212726221,0.4618470051206836,0.2997080516829428,0.4603480742376569,0.19768855452290454,0.0935960591133167,1
0.8632198117463895,0.4626841981709633,0.29934858997651276,0.43858523030100643,0.19303744416576527,0.09359605911331315,1
0.8623587273616139,0.4616409032128185,0.301238864742167,0.42499590475081994,0.1958281103800489,0.09359605911332025,1
0.8616875531976118,0.4631841585237945,0.30309253214339904,0.43431128917354206,0.19536299934433418,0.0935960591133096,1
0.8605527073717764,0.4625554669665955,0.3023465282979713,0.4477037703486688,0.19675833245147686,0.0935960591133096,1
0.8624389691576742,0.4647181538992372,0.302546226856077,0.4036728687094168,0.19536299934433463,0.09359605911330604,1
0.8602355407903025,0.4651177926160629,0.30457703489946913,0.4289703736193431,0.19629322141576286,0.0935960591133096,1
0.862324153011837,0.4656680320975358,0.30539369112425396,0.42707545089270255,0.19443277727290678,0.10344827586206407,1
0.8602827602490155,0.4639413484783954,0.30213622090191317,0.4250542738779104,0.19582811038004874,0.10344827586206762,1
0.8622926938504326,0.46410128797999556,0.3009599749196648,0.43664557386630104,0.19303744416576493,0.10344827586206407,1
0.8616144533086817,0.4633145128213853,0.2993044921955772,0.4363628482504419,0.19443277727290717,0.10344827586206762,1
0.8622564176087705,0.46316769580922595,0.2997309271556523,0.4750152727238901,0.19350255520147894,0.09359605911330249,1
0.8616669020650726,0.4629461994896247,0.2994909911811603,0.44515210179161424,0.194897888308621,0.0935960591133096,1
0.8621676602487373,0.46305506232229166,0.2996504108487248,0.39054387558640813,0.1935025552014791,0.09359605911330249,1
0.8618577379974621,0.46177932622480455,0.29954003196964163,0.4173120767828754,0.19396766623719355,0.09359605911330249,1
0.8612566370031781,0.4626725782325597,0.2996118423935401,0.46121854455925154,0.1935025552014791,0.1133004926108434,1
0.8610991854150793,0.4616338561289139,0.29957879973653895,0.4387025659643593,0.19257233313005181,0.11330049261085051,1
0.8614859209272482,0.46341490099053484,0.2995622285352194,0.4355826240481289,0.19350255520147933,0.11330049261084696,1
0.8609205854744043,0.4649938128103752,0.2996602556702942,0.422558565394543,0.19257233313005165,0.11330049261084696,1
0.8627309686235076,0.46191588231312997,0.2993721814498299,0.45235533740550427,0.19164247471072324,0.12315270935960498,1
0.8611611681532562,0.4632488860568082,0.301466677721008,0.4376405373116946,0.19071225263929562,0.12315270935960854,1
0.8612055362746728,0.46351821082931804,0.3001401551727168,0.41657809791275796,0.1921072220943376,0.12315270935960498,1
0.8616804020788188,0.46364819742268176,0.29928682972073617,0.4389950316881074,0.19071225263929578,0.12315270935960498,1
0.8613310069666109,0.4615914962973824,0.2998122853533027,0.44772741751247624,0.19117736367500957,0.12315270935960498,1
0.8609770222443769,0.463657538677423,0.29938999948171463,0.4136996170886663,0.19071225263929556,0.12315270935960498,1
0.8627044689552346,0.46210222119276767,0.2997625027432017,0.40538207646855945,0.19024714160358128,0.12315270935960498,1
0.8612364313477473,0.46239037109249004,0.29941805186399784,0.4401370806690078,0.18978203056786805,0.12315270935960854,1
0.8626385709827854,0.4620493869679696,0.2997456109285581,0.4506651079003909,0.18978203056786738,0.13300492610837722,1
0.8612563456138849,0.4624001475616465,0.29942837365523267,0.40697199269845274,0.1897820305678681,0.13300492610837722,1
0.8626395091032688,0.4620393080604382,0.2997395299190898,0.41675043479391705,0.18978203056786794,0.13300492610837367,1
0.8612418775998315,0.4624171339326262,0.2994315253527983,0.4452951059684471,0.1888518084964401,0.13300492610837722,1
0.862665629297628,0.46201296004065434,0.29973851197666823,0.4384111525602128,0.18745647538929808,0.13300492610837011,1
0.861202977254403,0.4624553553727935,0.29943091971611974,0.4167102659248119,0.18792158642501242,0.13300492610837722,1
0.8627218204962038,0.4619588783478583,0.2997403998690811,0.43698068485206026,0.18838669746072575,0.13300492610837367,1
0.8611181247689086,0.4625314660997617,0.2994279854665054,0.45602570567438,0.1860611422821565,0.13300492610837722,1
0.8628682430411584,0.46186608091741577,0.299744213370277,0.4389578203374342,0.1883866974607261,0.14285714285714946,1
0.8607439832586878,0.4642417081843143,0.2994234132388567,0.4074332214842689,0.18838669746072637,0.142857142857153,1
0.861705154169316,0.4623547035591554,0.2997494563459906,0.43644109197986736,0.18792158642501203,0.14285714285714946,1
0.8606851131323489,0.464158296475902,0.29941756413526305,0.45925810066485334,0.18792158642501225,0.142857142857153,1
0.8616655876605104,0.4628603592709462,0.2997558641017688,0.43068556041637185,0.18699136435358424,0.15270935960591814,1
0.8616190081709681,0.4624197163077002,0.2994106323937894,0.408161537772371,0.18699136435358418,0.1527093596059217,1
0.8624211769922489,0.46446554122119643,0.299763294844946,0.4361827472704851,0.18699136435358418,0.15270935960591814,1
0.8613890313324242,0.46339520577627547,0.2994027202960097,0.4581907358495643,0.18513092021072866,0.15270935960591814,1
0.8625657317367826,0.4632241681689043,0.29977167613497624,0.4225250515614242,0.18652625331787018,0.15763546798030603,1
0.8612591987798595,0.46189440247963415,0.29939387805831275,0.39076131107668405,0.18652625331787057,0.15763546798030958,1
0.8627380777029189,0.462408454257767,0.299780973543851,0.4234139153264498,0.18513092021072888,0.15763546798030958,1
0.8607723509365898,0.462122792747651,0.2993841302751412,0.4553736742606158,0.18513092021072827,0.15763546798030958,1
0.8614686343252308,0.46224252525081627,0.29979116618614554,0.43220679591060895,0.18466580917501482,0.1822660098522242,1
0.8617632866008412,0.462343222083786,0.29937350113004296,0.42289237497376175,0.18513092021072866,0.1822660098522242,1
0.8613278260332996,0.46325237132102687,0.29980221778515925,0.4401154115602064,0.18327083971997235,0.18226600985221708,1
0.8609345046111341,0.4625995562649039,0.29936205085964546,0.45657528623034443,0.18420069813930104,0.1822660098522242,1
0.8614749395662836,0.46345369291185423,0.2998140272408578,0.42630019593049484,0.18280572868425868,0.1724137931034484,1
0.861144721178798,0.46331648575467904,0.2993499465460454,0.4172116988473794,0.18373595075568658,0.1724137931034484,1
0.8627399673603904,0.46327216723132253,0.2998263227706874,0.43815277249162454,0.1809452845414035,0.17241379310344485,1
0.861158122733618,0.4629322129475932,0.2993376265317596,0.4524100934795925,0.18187550661283128,0.17241379310345195,1
0.8627101352448462,0.46224695391190507,0.2998383967182227,0.4162657150756981,0.17954995143426153,0.18226600985221708,1
0.8612708125698731,0.4621250379099308,0.2993262463959224,0.412379179796617,0.18141039557711755,0.18226600985221708,1
0.8619089256607669,0.46237455448443365,0.2998483173666908,0.43377077887478177,0.1804801735056892,0.18226600985221708,1
0.8603156920156662,0.46197734389407297,0.2993191615258705,0.4590782914528586,0.18094528454140377,0.18226600985221708,1
0.8632353468668017,0.46281606839606015,0.2998499006409833,0.4031953052401053,0.1804801735056891,0.18226600985221353,1
0.8607060089897295,0.4629930374564416,0.2993288793553085,0.3790641983852383,0.18094528454140354,0.18226600985221708,1
0.8631896972990942,0.46214196598794127,0.2998134663953847,0.35994827771317156,0.18141039557711738,0.18226600985221353,1
0.8606742926113342,0.4624620754561799,0.3005089814786626,0.47792190987601285,0.18001506246997565,0.18226600985221708,1
0.8632621530267139,0.4657574128934741,0.3008030253077318,0.5019441406552104,0.17954995143426158,0.19211822660098576,1
0.8605632569936892,0.4673462970440834,0.303609132533763,0.450062958471418,0.17815461832712018,0.19211822660098932,1
0.8634402187501239,0.46297061716453985,0.30295430995202177,0.4694525464911798,0.17908484039854758,0.19211822660098576,1
0.8600850110549657,0.467277230543787,0.3015692770424301,0.44560909443705515,0.1786197293628338,0.19211822660098576,1
0.8618012930837142,0.46317165976840285,0.30245078214524135,0.3976030056598892,0.17861972936283385,0.19211822660097866,1
0.8588652011772893,0.46477477890742025,0.30067276335940135,0.42541977316819646,0.177689507291406,0.1921182266009822,1
0.8630826288338127,0.46230943905411054,0.30005734467833733,0.43439334148061703,0.17768950729140595,0.19211822660097866,1
0.8601887497866084,0.4634322361402765,0.29903272524383856,0.4383646805463012,0.17722439625569195,0.19211822660097866,1
0.8636419864508542,0.46233770560279874,0.3001852586526,0.4061492961799803,0.17768950729140578,0.201970443349758,1
0.8601683460088606,0.46318924061242556,0.297889600335927,0.4259544332702549,0.1772243962556919,0.20197044334976155,1
0.8622376385732808,0.4612078125526742,0.30027208494575175,0.45207032800492375,0.17768950729140584,0.201970443349758,1
0.8608702307665475,0.4637915652846808,0.29885031731889167,0.487199291533272,0.17675928521997855,0.2019704433497651,1
0.861676882453609,0.4625021533107186,0.3003727164917377,0.4003472701387229,0.1758290631485502,0.2118226600985338,1
0.8593143564604065,0.4637314275677588,0.2987377860174893,0.4002664187014916,0.17582906314855065,0.2118226600985338,1
0.8630211191352607,0.461052639434075,0.3005000255850691,0.43731591438657436,0.17582906314855054,0.21182266009853024,1
0.8592608639578713,0.4634148955274078,0.2985924377987892,0.41966365253761423,0.1753643157649364,0.21182266009853734,1
0.8632387647366888,0.4609255601637934,0.30066738901232937,0.4153056874409244,0.17582906314855026,0.21182266009852313,1
0.8591497906133431,0.46380273597788957,0.2983980187064381,0.45698853194844546,0.1725736495506532,0.21182266009853024,1
0.8647714896626144,0.4629427334232127,0.30089542430877136,0.43790871091579675,0.17210853851493865,0.21182266009853024,1
0.858981307750826,0.46397073838842157,0.29812763140694093,0.41249257383621596,0.17443409369350857,0.21182266009853024,1
0.8651001764391293,0.46173432508103546,0.30122006916364286,0.4227947136869302,0.17443409369350818,0.22167487684729537,1
0.8585578691886393,0.4643748526923997,0.2977320787716585,0.4650211233846973,0.17396898265779462,0.22167487684729537,1
0.8656136501838585,0.46154242147789765,0.3017105276202289,0.42309870427742335,0.17443409369350846,0.22167487684729537,1
0.8579433350721073,0.46456687279858244,0.2971108513062906,0.4164723815794251,0.17257364955065294,0.22167487684729537,1
0.8663506928144588,0.4599058129858966,0.30251856257569754,0.4303245873855316,0.17396898265779445,0.22167487684729537,1
0.8570492915355079,0.4648318569173333,0.29602336756952075,0.441509939185076,0.17350387162208095,0.22167487684729892,1
0.8674706355817915,0.4591439141783733,0.30405026844043215,0.3996576742992321,0.1735038716220805,0.22167487684729892,1
0.8538522547360388,0.46685238684923713,0.2937248267291486,0.4264351952749412,0.17303876058636683,0.22167487684729892,1
0.8672366609537785,0.45800035566318315,0.3078205024193038,0.45281494178012804,0.17210853851493876,0.2315270935960676,1
0.8622215035298075,0.4682291252698253,0.287746275159945,0.4578519595988348,0.17257364955065305,0.23152709359607115,1
0.9136285312135347,0.46859250551132625,0.42073136301960434,0.4145037124164506,0.17210853851493899,0.2315270935960676,1
0.8250656718459531,0.5890012123216297,0.5528496672122385,0.43672211186313764,0.17350387162208072,0.2315270935960676,1
0.7042898256169458,0.5716035539917927,0.6249314116147525,0.44075584918766436,0.17303876058636677,0.2315270935960676,1
0.6069083823723918,0.6195839297572463,0.6438939513847237,0.4770591944081627,0.16745742815780004,0.23152709359607115,1
0.8303702370843483,0.6637036331517066,0.4134614779926121,0.3542013136527573,0.1516443802477266,0.2315270935960676,1
0.8966401951988208,0.5467402735213354,0.3768706750744471,0.3515172248032716,0.1390871095876514,0.2315270935960747,1
0.8485079235244065,0.5437395196012277,0.42127869895243136,0.5644370717933589,0.1516443802477264,0.23645320197043418,1
0.8561580804124072,0.5249583043052448,0.4466904995445733,0.43749097351500305,0.15257460231915462,0.23645320197043418,1
0.8505582912763546,0.5610988253334377,0.48624544948179843,0.4026024839463218,0.14978429975697102,0.23645320197043063,1
0.7394247166998512,0.5580367484660052,0.5987243771184327,0.4380995013751852,0.1516443802477269,0.23645320197043773,1
0.8034281810098591,0.5717515525486319,0.4580070291685037,0.3930387112044471,0.148388966649829,0.23645320197043773,1
0.8965693709335684,0.5336329371737261,0.3584713404320121,0.4340245032646876,0.15024941079268508,0.23645320197044128,1
0.8280067081755115,0.5424364749748121,0.3256654317712654,0.35329872865783596,0.15443504646201026,0.23645320197043773,1
0.8599387203430832,0.5465483679196442,0.31193678532204167,0.4709452920408896,0.15862104578343536,0.23645320197044128,1
0.8353224876500129,0.541945138280837,0.32194901390453307,0.588743439769736,0.16094623730990507,0.2610837438423701,1
0.8559001838869141,0.5361270720993665,0.3126173720469018,0.46548354178221385,0.16234157041704708,0.26108374384237365,1
0.8309891973402519,0.5477882299323154,0.3030822460864768,0.2989035909517885,0.16652756973847208,0.2610837438423701,1
0.8526392936897726,0.5395796150165897,0.3088571123527,0.45351324018251005,0.16792253919351405,0.26108374384237365,1
0.8301345019251438,0.5486886051329614,0.27371034506796743,0.4663999636370186,0.1702480943720833,0.2709359605911388,1
0.8682416170468331,0.5077344886798725,0.31779512878571464,0.2856824976887523,0.17257364955065338,0.27093596059114233,1
0.7529476404199148,0.5768344275436947,0.187196038314485,0.4631230068665516,0.17489920472922246,0.2709359605911388,1
0.7567819212950214,0.5764323141916547,0.07140745917797497,0.43075180926099377,0.17350387162208078,0.2709359605911388,1
0.7242201027522899,0.5494526816460777,0.12002416985573516,0.452991806791263,0.17536431576493597,0.2709359605911317,1
0.7525619451171767,0.5636769006220187,0.06394490489831495,0.4800800959768743,0.17675928521997838,0.2709359605911388,1
0.7588698081801306,0.5930208971987884,0.14993441969122773,0.38468780313677714,0.17768950729140595,0.2709359605911352,1
0.8309857739313523,0.5230126519799723,0.4471412210181299,0.2728109279684252,0.17675928521997822,0.2709359605911352,1
0.8602130285725325,0.579909892712239,0.32086811753680256,0.5962633850972232,0.17396898265779445,0.26108374384236654,1
0.8166406100601739,0.6707683968203317,0.40515419972192945,0.4454188083900167,0.17117831644351097,0.26108374384236654,1
0.7126371923500868,0.6337342129457311,0.586363470376795,0.5581884185024797,0.1707132054077968,0.26108374384236654,1
0.7632811660503476,0.5837784819463138,0.5330309686195496,0.31046613028709713,0.16652756973847213,0.2610837438423701,1
0.872889184051078,0.5974275246772495,0.4344815173106148,0.37412957834202865,0.1521094912834405,0.261083743842363,1
0.8065240690814879,0.5993375670766238,0.4375752924324418,0.653861108649983,0.13676155440908158,0.261083743842363,1
0.8660973355983047,0.569411682340047,0.44773301403717136,0.4093375880892383,0.13304102977547003,0.26108374384235944,1
0.803550096152786,0.5544921080696037,0.5027406285560948,0.31335373049994925,0.1372266654447952,0.26108374384236654,1
0.8196227247062324,0.5824052138237823,0.372396156857909,0.4634611091867684,0.144202967328404,0.24630541871921352,1
0.8115686186864182,0.5625441545039199,0.2896848518539294,0.48444453961465384,0.15396993542629614,0.24630541871922063,1
0.9104776355097352,0.5352462636192414,0.20695053007871345,0.4368438230756418,0.1614113483456188,0.24630541871921707,1
0.9293181250211828,0.5384059117061455,0.4454278391277874,0.30866948072621164,0.1665275697384717,0.24630541871922063,1
0.3256892043174494,0.5323500415011736,0.8086018853026221,0.46930380476369765,0.1707132054077972,0.24630541871920997,1
0.3119146768311687,0.5222703022207538,0.8895520511007535,0.24593529699232863,0.17396898265779506,0.24630541871921352,1
0.40497711876761633,0.5508376870995051,0.8762456051766263,0.4630792790268243,0.17489920472922257,0.24630541871920997,1
0.42953513074570326,0.5342752075147988,0.8782259802661476,0.38548039580608845,0.17536431576493658,0.24630541871921352,1
0.41146121020093657,0.5568886186951523,0.8658103926878933,0.3902311794525344,0.17768950729140562,0.24630541871921352,1
0.451064949892005,0.538476121085677,0.8604850432832436,0.4908064667969454,0.1790848403985482,0.24630541871922063,1
0.44476109133403113,0.5472623480182135,0.8643525567912509,0.6039617879185647,0.18001506246997542,0.24630541871921707,1
0.46417183390116123,0.5380844141496985,0.8540310192695203,0.5315349825299591,0.18001506246997587,0.24630541871921707,1
0.4579006750736421,0.540553880758088,0.8581027187186865,0.4145042447480468,0.1809452845414031,0.26108374384236654,1
0.47156650407463097,0.5403614123239766,0.8533808522704422,0.4388617355878861,0.1823406176485455,0.2610837438423701,1
0.46438269165900303,0.5443311295716342,0.8567490694750884,0.39300876879884805,0.1814103955771171,0.26108374384236654,1
0.4708947807450048,0.5413163412689277,0.8530192727382087,0.3899364393285401,0.1832708397199728,0.26108374384236654,1
0.4641194365035306,0.5432476273785836,0.8553132950594498,0.4267693351914848,0.18327083971997307,0.2709359605911388,1
0.47193139633272474,0.5408877378768779,0.8542390984529019,0.4279239289577145,0.18327083971997296,0.2709359605911388,1
0.467387354124812,0.5429832920686839,0.8559368219536868,0.42550047568194704,0.1832708397199729,0.2709359605911352,1
0.47138793372498866,0.5397140207714749,0.8539929417843407,0.4390225014061228,0.18373595075568736,0.27093596059114233,1
0.47274914269576374,0.5443783878138544,0.85325780942513,0.43677537739508776,0.18327083971997307,0.2906403940886797,1
0.4779716507706787,0.5406057292518004,0.8501797546867225,0.4180253502445212,0.18420069813930137,0.2906403940886797,1
0.4750320543811454,0.5423192514946498,0.8521704173091257,0.42405366034634584,0.1837359507556869,0.29064039408867615,1
0.4790892459490268,0.5413915530951394,0.8456299127995611,0.4451272735993501,0.18420069813930093,0.2906403940886797,1
0.47435688649959884,0.5436895726755414,0.8489124030881128,0.45173293547594384,0.1837359507556868,0.3004926108374377,1
0.4787348241003947,0.5416666467799496,0.8469905337578778,0.4159204164376493,0.1837359507556872,0.3004926108374413,1
0.4744696371033802,0.5435481723156907,0.8518324597962036,0.4166311837047028,0.1842006981393006,0.3004926108374377,1
0.47882469286512375,0.5417742573709532,0.8490440844951384,0.43817384229978557,0.18420069813930115,0.3004926108374413,1
0.47571881878802524,0.5434592330250781,0.8509586416958513,0.4202193633610166,0.1837359507556869,0.32019704433497154,1
0.4790294177273158,0.5418482912665559,0.8481554593439901,0.41770017514925234,0.1842006981393012,0.3201970443349751,1
0.47556474019004746,0.5434016945805958,0.8504494583092403,0.4412630570571817,0.18327083971997296,0.32019704433497154,1
0.4790367904905801,0.5418784565012474,0.8491422181285988,0.44327238485151604,0.18327083971997307,0.3201970443349751,1
0.48039762110792616,0.5434482335355826,0.8480336302278442,0.42284055599589415,0.18327083971997257,0.32019704433497864,1
0.482250388107315,0.5407354646103478,0.8470841129580163,0.42935089511571384,0.18420069813930098,0.3201970443349822,1
0.4793135951296674,0.5418588775757872,0.8471400497202162,0.4410833259746143,0.18001506246997498,0.3201970443349822,1
0.4785937338674999,0.5426997409183851,0.8466180651018667,0.43532914536839895,0.1823406176485454,0.32019704433497864,1
0.4805615705340627,0.541751174097162,0.8483572521272087,0.4245001353208331,0.1809452845414031,0.33990147783251956,1
0.48240396663594165,0.5424320595294565,0.846052714793774,0.4333343635174191,0.18327083971997296,0.3399014778325231,1
0.4852921622627381,0.5403645403086587,0.847553024706566,0.43902543904740227,0.18187550661283094,0.33990147783251956,1
0.4874077407433939,0.5384130091190421,0.8461341355881746,0.4316240835945181,0.18234061764854523,0.33990147783251956,1
0.4839995000507016,0.5432709804072532,0.8475524832655147,0.42321727302765394,0.18187550661283128,0.3497536945812847,1
0.4877943246762433,0.5409665196304083,0.84606264893058,0.4310493204410868,0.18327083971997296,0.34975369458128824,1
0.4859134600134517,0.5428438540504271,0.8479038120014414,0.4364143907923038,0.1814103955771171,0.3497536945812847,1
0.4860340609167776,0.5404257722114801,0.8471005172162418,0.4292981806101123,0.1823406176485454,0.3497536945812918,1
0.4818020338529413,0.5422603467256442,0.8471633395706031,0.42480612075007657,0.18234061764854462,0.3497536945812918,1
0.48479996525563085,0.5421281208079276,0.8464255127416616,0.4352452564341823,0.18327083971997346,0.3497536945812918,1
0.48320058633038987,0.5432972523418895,0.8472741391780116,0.43976261316849913,0.18187550661283106,0.34975369458128824,1
0.4829774138570976,0.5406149964987368,0.8463988345001934,0.4291629513490233,0.18048017350568987,0.34975369458129535,1
0.48002004677808063,0.5423106828462264,0.847230065284756,0.424269025274202,0.1814103955771171,0.33990147783250535,1
0.4840186989343549,0.5393707232597571,0.847125326027401,0.43675339626895016,0.18094528454140343,0.3399014778325089,1
0.48231900241193104,0.541779586385668,0.8481176872614409,0.4377050700807184,0.1809452845414031,0.33990147783250535,1
0.4877090296663553,0.5403352381715558,0.8470563948121799,0.4248965245769959,0.18141039557711755,0.3399014778325089,1
0.4848806357704889,0.5422481472587014,0.8471677239326861,0.4230794686588148,0.1809452845414031,0.36945812807882206,1
0.48783444057537617,0.5423201515381517,0.8464346539455068,0.43780682621943645,0.18048017350568954,0.3694581280788256,1
0.4861887434491262,0.5430574102576388,0.8472631669691639,0.4369564204820333,0.18094528454140327,0.36945812807882206,1
0.48782602111051465,0.5414771694189493,0.8463990306376445,0.424156050215217,0.1800150624699761,0.36945812807882206,1
0.4861941603655222,0.5420501446190147,0.8472804301153002,0.4252135895395347,0.18094528454140338,0.3694581280788256,1
0.48782320771458465,0.5397290166639425,0.8463895220876089,0.4394894461262636,0.18094528454140393,0.36945812807882916,1
0.4861948540138905,0.5414740748044359,0.8472860896275041,0.43312455857617693,0.1800150624699757,0.36945812807882916,1
0.4878244520710078,0.5416231171571275,0.8463859549833088,0.42581946999646825,0.18141039557711727,0.36945812807882916,1
0.4861915725454541,0.5414072119000054,0.8472884566233428,0.43354987533423617,0.18187550661283083,0.3793103448275872,1
0.4878301514971193,0.541188288225646,0.8463843073955247,0.4406820087150763,0.18187550661283144,0.3793103448275943,1
0.4861827074594821,0.5424840151169896,0.8472896311110444,0.42532666622795,0.18094528454140332,0.37931034482759074,1
0.48784352728256586,0.5415517702726094,0.8463835351939405,0.4243266202881492,0.1804801735056896,0.3793103448275943,1
0.4861623387570352,0.5435756402999741,0.8472898743443538,0.4386610164628594,0.17861972936283402,0.3793103448275872,1
0.4878758420518471,0.5412823284733834,0.8463842802244039,0.4381470860238817,0.17954995143426158,0.3793103448275872,1
0.4861068753749249,0.5426073402167823,0.8472869462173426,0.42081145806863157,0.1809452845414031,0.3793103448275872,1
0.48798528817746,0.5414231145208155,0.8463925542609483,0.42893215516966626,0.17908484039854802,0.37931034482759074,1
0.4858229266351316,0.5425793135597465,0.8472638025934113,0.441920542976385,0.17908484039854758,0.3990147783251281,1
0.4896586804565587,0.5424826782465599,0.8464639149396836,0.4350564327668904,0.1772243962556926,0.3990147783251281,1
0.49580322044318004,0.5428510324949977,0.843749184972961,0.4213010474693257,0.17861972936283418,0.39901477832512455,1
0.49800701822514715,0.5423922311378282,0.8422979428014767,0.42808792514683935,0.17815461832711996,0.3990147783251281,1
0.49657905150390114,0.5429213487425989,0.8451214649626928,0.4424321507317819,0.1786197293628339,0.399014778325121,1
0.49371226360274323,0.5421302526718011,0.8467752459251798,0.4347722586654787,0.17536431576493658,0.3990147783251281,1
0.49324739993886757,0.5413311903877632,0.847067276066287,0.4262092636972473,0.17815461832711962,0.39901477832512455,1
0.4948239831558816,0.5406734287411139,0.8465660050942163,0.42505065812354154,0.17489920472922263,0.3990147783251281,1
0.4880240137638501,0.543069499697674,0.8470601269396112,0.44152763240386356,0.1781546183271198,0.40394088669950534,1
0.4917060652485439,0.5423898209330795,0.8454245327758163,0.43529146492440324,0.17489920472922274,0.4039408866995089,1
0.4890970839912602,0.5425301694759577,0.8473459343515144,0.42586566811996684,0.17722439625569195,0.40394088669950534,1
0.48858905282175724,0.541367776535873,0.8463789207475376,0.42132994472396695,0.17396898265779462,0.4039408866995089,1
0.4872485167952979,0.5428668743591506,0.8472701430200542,0.4426775136954584,0.17582906314855037,0.4039408866995089,1
0.49180235158880325,0.538705620269778,0.8464298684764873,0.4340557788384856,0.17443409369350846,0.403940886699516,1
0.4900002862671202,0.542213087224213,0.847196743969924,0.43069997134020677,0.17675928521997789,0.40394088669951245,1
0.4964377364468907,0.5425647487395759,0.8465936768773852,0.41791826881158106,0.17396898265779467,0.40394088669951245,1
0.4969097046746691,0.5428164179610362,0.8463937543984295,0.4350832366469598,0.17629417418426427,0.4039408866995089,1
0.4981922072297166,0.5424093349397773,0.8448364701169668,0.43871935670846496,0.17582906314855043,0.403940886699516,1
0.49657588369934635,0.5429025717758618,0.846638275483002,0.4323777310242713,0.17629417418426443,0.40394088669951245,1
0.4977849046794841,0.5423193987287791,0.8439368166317871,0.42169098722014,0.17536431576493586,0.40394088669951245,1
0.4898859666755013,0.5430754663526254,0.8476239297935622,0.424014696216914,0.17582906314855049,0.4039408866995089,1
0.49608333206744737,0.5414808448448335,0.8459565790574235,0.4404922828001011,0.17629417418426438,0.4039408866995089,1
0.4942951171647715,0.5411778632529805,0.8477678062581526,0.43686896145674264,0.17536431576493575,0.4039408866995089,1
0.49558001945644914,0.5423102335120092,0.8458335047750373,0.42974160654128496,0.17396898265779462,0.40394088669951245,1
0.49007594563710144,0.5410110742554879,0.8479485318632376,0.4208564322202392,0.17396898265779434,0.4285714285714306,1
0.49530571477464214,0.5417490431182853,0.8445105837360116,0.43883391205478556,0.17443409369350835,0.4285714285714306,1
0.49064743235214947,0.5394866093113501,0.848256099991401,0.4359904997968859,0.17396898265779484,0.42857142857142705,1
0.49313529729050387,0.5352041328124296,0.8416028926378767,0.430994773475931,0.17396898265779467,0.42857142857143415,1
0.49253446366705156,0.5328755682678412,0.8484395232755193,0.41868846518764874,0.17350387162208072,0.42857142857141994,1
0.5176983793439466,0.5570894200305957,0.8470724031556585,0.43359120547058877,0.17396898265779484,0.4285714285714306,1
0.5370251483142626,0.5366473916418225,0.8022993917048489,0.4396466851241614,0.17350387162208045,0.4285714285714306,1
0.48906273609896966,0.5350042044824324,0.8382444017912045,0.4310670069924212,0.1739689826577949,0.4285714285714306,1
0.4807191205647797,0.5248690435296322,0.8631167024157709,0.42190157035560805,0.1735038716220804,0.4285714285714306,1
0.45362565256672327,0.5176147105882591,0.8658109176227209,0.4304936889689726,0.17164342747922526,0.42857142857143415,1
0.46884259983161214,0.5059399500711478,0.8606874329942431,0.4297564204300827,0.17210853851493893,0.42857142857142705,1
0.4695733781955831,0.5073778659746695,0.8613874426933135,0.4540592795890219,0.17210853851493915,0.42857142857143415,1
0.46333222247198447,0.506707597320105,0.8620789620638959,0.43762652502457366,0.17257364955065282,0.44827586206896086,1
0.46636340701837997,0.5060133788316828,0.8636836422916221,0.43007038087783683,0.17257364955065294,0.4482758620689644,1
0.45868846343701125,0.50657632977335,0.8637784513367415,0.4579358613938399,0.17071320540779697,0.4482758620689644,1
0.45817116859947304,0.5071678096437521,0.8635281279958846,0.42203311117098496,0.17210853851493899,0.4482758620689644,1
0.45898031995481303,0.5056793061483874,0.863849314068273,0.4262351820388435,0.17117831644351109,0.4384236453201851,1
0.45982339556581553,0.5069166860956257,0.8634810635231227,0.42366901072618957,0.17117831644351109,0.4384236453201886,1
0.45737351778568736,0.506493389683473,0.8638858539582445,0.4174251555923905,0.17164342747922492,0.4384236453201851,1
0.46004463676913143,0.5059093419905577,0.8634504818020072,0.4303183113616493,0.17117831644351109,0.4384236453201851,1
0.45862408527593146,0.5072501782808128,0.8639125419211287,0.40723165135980677,0.17024809437208324,0.4384236453201993,1
0.4619686225549809,0.5066376447823541,0.8634265546547002,0.43320272579623914,0.16978298333636913,0.4384236453201993,1
0.4609335167391697,0.5071232490699297,0.8639344259715619,0.44267825461658195,0.16699268077418564,0.4384236453201993,1
0.45875408038219934,0.5037131822152998,0.8634062068978307,0.4247374485192672,0.16745742815780004,0.43842364532020284,1
0.45696549727803826,0.5065384194261906,0.8639536275527204,0.4135037769064504,0.16885276126494128,0.4482758620689644,1
0.4576926123674835,0.5036985975727467,0.8633878277827413,0.4437596953628914,0.1697829833363694,0.4482758620689644,1
0.4560938489322419,0.5056528921073715,0.8639714730674903,0.4471470166516156,0.16792253919351388,0.44827586206896086,1
0.45841444630968675,0.5070929499555735,0.8633702375597294,0.4129275930235211,0.16885276126494161,0.4482758620689644,1
0.4542158085877717,0.5044366898773094,0.863989099661247,0.42299349000561703,0.16745742815779976,0.46798029556649823,1
0.4579143785387404,0.5056514353214636,0.8633522393034336,0.45145228861576503,0.1683876502292279,0.4679802955665089,1
0.4571599227664624,0.507268060474343,0.8640078959785473,0.43223412883494616,0.16652756973847152,0.46798029556650533,1
0.4583500057789134,0.5065496902981729,0.8633320386592874,0.4110325286864957,0.16652756973847202,0.4679802955665089,1
0.46126352347906086,0.5041087244569392,0.8640304841395956,0.4405132748905603,0.16513223663132984,0.44827586206896797,1
0.46400275155735926,0.5063695611689768,0.8633051580165156,0.44675272668008414,0.16745742815779988,0.4482758620689715,1
0.4655350882473169,0.5072629360907781,0.8640666350400567,0.41349053775919276,0.16559734766704406,0.4482758620689715,1
0.46766979436681444,0.504942219788063,0.8632336192627851,0.4216167281473141,0.16559734766704406,0.4482758620689715,1
0.46711176768499163,0.505322365245553,0.8612156022121196,0.45761178761852445,0.1628066814527606,0.4581280788177402,1
0.46759586414981136,0.5042415753270592,0.8625480056649284,0.44729098098502956,0.1655973476670444,0.45812807881774376,1
0.46790484768323704,0.5042647514110095,0.8623350281696767,0.43289775333543556,0.1646671255956161,0.4581280788177402,1
0.4678933304262124,0.5067959776410879,0.8613210513283047,0.4279786157560136,0.16559734766704406,0.4581280788177402,1
0.4696509151468141,0.5040849094551935,0.8628363661206444,0.46613891511252054,0.16559734766704406,0.44827586206896797,1
0.47163460785661604,0.5026720604172614,0.8635091158272018,0.4649298754476106,0.1655973476670443,0.4482758620689715,1
0.46661673865520925,0.5031738020835096,0.8638496681019138,0.3844477589559298,0.1646671255956164,0.44827586206896797,1
0.4707441029069722,0.5056603063669574,0.8623101554530215,0.410665981879805,0.1637369035241882,0.44827586206896797,1
0.46850356290501693,0.5042107286692736,0.8638637760093085,0.4451574121256995,0.165597347667044,0.4482758620689751,1
0.4719383243957064,0.5051165999192151,0.8609035189617742,0.42289356198971506,0.16559734766704423,0.4482758620689786,1
0.470277508823422,0.5020450773314689,0.863676427613755,0.40566547298422057,0.1646671255956161,0.4482758620689751,1
0.4762215169928593,0.5021002321075525,0.8599482978096539,0.44292614911453315,0.16373690352418888,0.4482758620689786,1
0.4741963909289799,0.502973277143174,0.8605662104168394,0.4367072616148174,0.16373690352418832,0.458128078817726,1
0.4983031428031065,0.5031452915400269,0.8536334587583155,0.4300901388955796,0.16373690352418854,0.45812807881772244,1
0.49658163853499226,0.5064380455769752,0.8523286424706006,0.4194518731722517,0.16559734766704423,0.45812807881772244,1
0.4890259145863144,0.5021403469454966,0.8543589545051382,0.4620429069362857,0.16606245870275824,0.458128078817726,1
0.4861487933631049,0.5039726729112853,0.8552279600709618,0.42721450453201104,0.16513223663132995,0.458128078817726,1
0.488581736533629,0.5041230262549662,0.8539179688487077,0.40932006014551625,0.16466712559561644,0.458128078817726,1
0.4878878717506532,0.5021175220957624,0.8556241950976855,0.4135269513554601,0.16327179248847443,0.458128078817726,1
0.4870548513518562,0.5001468416147139,0.854771889879987,0.4730964084817651,0.16466712559561633,0.458128078817726,1
0.4869588192107477,0.5035881564197413,0.8560649333836491,0.44460325726456135,0.16373690352418843,0.4482758620689644,1
0.48832777726523846,0.5032630419089418,0.8540421593799252,0.4028811841107456,0.16373690352418888,0.44827586206896797,1
0.4868297200616648,0.5042515272439491,0.8547800070999294,0.4138244542494052,0.16420201455990233,0.44827586206896797,1
0.4873686804554266,0.5039472312207252,0.8554220319046759,0.4507663455782813,0.16466712559561644,0.44827586206896797,1
0.48655912096048304,0.5033335749438569,0.8551089944089871,0.4289334583423104,0.1642020145599025,0.4482758620689715,1
0.4875418938303512,0.5045698977621728,0.8557099808985015,0.40278258550167384,0.16420201455990277,0.4482758620689786,1
0.4893036965936647,0.5031326916547934,0.8558560556992976,0.4325227049435623,0.16466712559561617,0.4482758620689715,1
0.49654955757363184,0.5046131407044859,0.8529678034315451,0.4613622905401023,0.16373690352418854,0.4482758620689715,1
0.4967883709638855,0.5030390716436828,0.853651335887385,0.42182718080055726,0.16466712559561583,0.43842364532020284,1
0.49606726369599474,0.49801988812006615,0.8525064167523639,0.41544312605221273,0.16280668145276075,0.4384236453202064,1
0.5048048768820257,0.49783034666109316,0.8528196311912113,0.4376884293040405,0.16466712559561633,0.4384236453202064,1
0.4948518219538246,0.4980745694386848,0.8498583086997296,0.49867342774122997,0.16327179248847448,0.4384236453202064,1
0.49771713997136235,0.49736734485037215,0.8521789809472172,0.4112022287393918,0.16373690352418815,0.4384236453201922,1
0.5035420671341354,0.4971218187660675,0.8518705080200433,0.3763466758335748,0.16327179248847443,0.4384236453201922,1
0.5002696794640615,0.49664042118804047,0.8503036964854125,0.4725350007202651,0.163736903524188,0.4384236453201886,1
0.5022428582540346,0.4971496127593441,0.8513973211200361,0.45034581049859157,0.1628066814527608,0.4384236453201922,1
0.4995849459323397,0.49834599392839635,0.8509282284350529,0.4040591062750021,0.16373690352418854,0.4384236453201993,1
0.5019700109948968,0.4976676924714018,0.8503573067578654,0.421312635718769,0.16373690352418865,0.4384236453201993,1
0.4994934721242469,0.4970974147186369,0.8520693286840002,0.460667899966831,0.16327179248847432,0.43842364532019573,1
0.5013099752033753,0.4977393051874939,0.8499417643829806,0.42969680248968145,0.16234157041704664,0.4384236453201993,1
0.4995461538172441,0.4981630114728235,0.8511555798806634,0.41476277604164374,0.16234157041704675,0.42857142857142705,1
0.5028099625970573,0.4977833648186326,0.849898377982501,0.4346789425225593,0.16280668145276075,0.42857142857143415,1
0.5054419292853753,0.4981184397794772,0.8501629380660238,0.44973520838313846,0.16048112627419112,0.42857142857143415,1
0.507813929198241,0.49783678803940956,0.8478513249347415,0.41715115496123034,0.1618764593813329,0.42857142857143415,1
0.5065773931614399,0.49804031963396067,0.8479281224584403,0.42043896004981457,0.1618764593813327,0.41871921182265837,1
0.5078827905806589,0.49798929481031695,0.845673419605433,0.4422926028408179,0.16187645938133313,0.4187192118226619,1
0.5069056416524579,0.49742816457889355,0.8498122373764704,0.43696143016677164,0.16187645938133324,0.41871921182265837,1
0.5093849247098322,0.49570230811881544,0.8498421755856707,0.4165103395085411,0.16141134834561913,0.4187192118226619,1
0.5184660231855914,0.49146675649436034,0.8451539530139871,0.4194000946382123,0.16141134834561863,0.42857142857142705,1
0.5298021248986332,0.4885600849007322,0.8461262615762541,0.4449805195757229,0.16094623730990534,0.42857142857143415,1
0.5202669543758017,0.48943572717715206,0.843349009834318,0.44824159581564743,0.16048112627419084,0.42857142857143415,1
0.5255899509395802,0.48864788664358344,0.8428826212361633,0.42774221564373893,0.1590857931670495,0.42857142857143415,1
0.525096504250877,0.4893994927251689,0.8432164367932495,0.4156308676788708,0.16048112627419112,0.41871921182265837,1
0.5291788452573098,0.48864669250661735,0.8433898880607608,0.4262525768631027,0.15769082371200802,0.41871921182266547,1
0.5274642199659805,0.48944185707308085,0.8441278488035544,0.44652444252669693,0.1600160152384769,0.4187192118226619,1
0.5274656916535859,0.48851596083247306,0.8411778553961552,0.4221520820007455,0.15955090420276322,0.41871921182265837,1
0.529449078467729,0.4903680422468527,0.8410334854623687,0.4187367926988338,0.15955090420276377,0.4039408866995089,1
0.5286156636943858,0.48895358630281793,0.8384935287283584,0.44657928475181136,0.16001601523847744,0.4039408866995089,1
0.52854621846556,0.4900533247094789,0.8398347539613877,0.4444522498018964,0.1595509042027631,0.4039408866995089,1
0.5301747658644013,0.49024210726630574,0.8374284769605107,0.42312453588864,0.15955090420276372,0.40394088669951245,1
0.528415964372665,0.4911530933362303,0.8399566186773714,0.4104695309340309,0.15815593474772136,0.40394088669951245,1
0.5289554551256332,0.4892870568034404,0.839571650375111,0.4389099709208411,0.15862104578343558,0.40394088669951245,1
0.5283549357093434,0.4890448860136255,0.840201288085902,0.44164567818978295,0.15676060164057984,0.4039408866995089,1
0.5290068810767288,0.4889421658101462,0.8398092359230014,0.4296753127835916,0.15815593474772113,0.403940886699516,1
0.5283060922758601,0.4891490243704612,0.8383688325968351,0.4259361324652862,0.15722571267629334,0.3990147783251281,1
0.5290586766523977,0.4888802470894028,0.8382868261005758,0.4424833498741652,0.15722571267629412,0.39901477832513166,1
0.5282453080544826,0.4891980866551191,0.8401899902596222,0.44362095050851086,0.15350482439058208,0.3990147783251281,1
0.529137106763041,0.48883377768047753,0.8403880598419637,0.4189835146200841,0.15583037956915216,0.3990147783251281,1
0.5281353363751593,0.48924494298408666,0.8401573661793144,0.41480031861179084,0.15583037956915188,0.3793103448275801,1
0.5292679158227553,0.48884057768150097,0.840115209069801,0.44470182370310374,0.15583037956915222,0.37931034482758363,1
0.5240727580058487,0.4952973394798037,0.841859462812206,0.443722134844866,0.155830379569152,0.3793103448275801,1
0.5251112121945867,0.49093182382642475,0.8412301671009812,0.41590432844697994,0.15583037956915194,0.37931034482758363,1
0.5280902892248011,0.4927280994135619,0.8454330912490761,0.4143745414987037,0.1553652685334375,0.37931034482759074,1
0.5278104090715204,0.4920464199349951,0.8425777770703299,0.4413298056671718,0.15490015749772404,0.3793103448275943,1
0.5288895134180794,0.491359659800926,0.8421193211658786,0.4396555871011138,0.15490015749772348,0.3793103448275943,1
0.5286028248590805,0.48929841074766717,0.8384018581671201,0.4230569696317042,0.15490015749772448,0.3793103448275943,1
0.5286607695234115,0.4921377332743514,0.839551871437843,0.42664045743094586,0.1544350464620101,0.37931034482758363,1
0.5287197638105005,0.49233676517928404,0.8385376631074494,0.4553565810097776,0.15536526853343793,0.3793103448275872,1
0.5285905409774085,0.4890343691172685,0.8383673463835473,0.43468234950861845,0.15490015749772393,0.3793103448275872,1
0.5287639851217978,0.4942559033670927,0.839165552362424,0.4100356368011242,0.15443504646201014,0.3793103448275872,1
0.5285643294256378,0.49154578502890756,0.8414928193235065,0.42192435396006284,0.15443504646201026,0.3694581280788256,1
0.5287742289815678,0.4909354617590868,0.8402085567373597,0.4556822643567397,0.1549001574977241,0.36945812807882916,1
0.5272715652341892,0.4912789763719605,0.8415767798974466,0.4385454876784601,0.15443504646200998,0.3694581280788256,1
0.5287314386618422,0.4900713197291021,0.8399574221186263,0.41932968572139484,0.1544350464620103,0.36945812807882916,1
0.5287075876333158,0.4912976501211477,0.8424027505242606,0.434829768867757,0.1525746023191539,0.36945812807882916,1
0.5279049708045335,0.49065127315519447,0.8403864494373015,0.44665554943993446,0.15396993542629658,0.3694581280788256,1
0.5277771720874125,0.48968021420088514,0.840878150039727,0.4193137682011366,0.15257460231915423,0.36945812807882206,1
0.5292140903590319,0.4904390517016688,0.8398777113725164,0.413449821741662,0.1535048243905823,0.36945812807882916,1
0.5281611145991243,0.49023806733096226,0.8437280889259366,0.4446208962533263,0.15257460231915412,0.3497536945812847,1
0.529257123372166,0.4927717653150095,0.8426441126941642,0.44253633800403686,0.15396993542629636,0.3497536945812847,1
0.5273573096819761,0.4911510441857914,0.8395854614234509,0.41256494146259043,0.15257460231915412,0.3497536945812847,1
0.52833496433908,0.4897502545389514,0.837792268038807,0.42635670875809195,0.15350482439058258,0.3497536945812847,1
0.5286330766302237,0.48832029527972926,0.8390625461498877,0.4526862934191019,0.15350482439058202,0.3497536945812918,1
0.5287890490216656,0.4907793481925772,0.8376261075824084,0.4333612906375371,0.1539699354262963,0.3497536945812918,1
0.5285117340805665,0.49045846841243695,0.840180279178891,0.41149947836458217,0.15210949128344056,0.34975369458128824,1
0.5288460361506345,0.4902583215425914,0.8391115051767368,0.4347973148387882,0.15164438024772695,0.3497536945812918,1
0.528478541239717,0.4906737748037034,0.8389501690880283,0.4498328315218836,0.15210949128344073,0.32512315270936654,1
0.5288678677444684,0.4916359848952659,0.8391500628836599,0.42488866440618656,0.15210949128344106,0.32512315270937364,1
0.5284629872545159,0.4907694802814696,0.8394730958242773,0.4141018135280808,0.1516443802477266,0.3251231527093701,1
0.5288795988807762,0.4912415654132729,0.840231429309064,0.4419615415242313,0.15210949128344084,0.3251231527093701,1
0.5284537543304009,0.48898675345185005,0.8431125569906368,0.44669750100758526,0.15117926921201266,0.325123152709363,1
0.5288871084408777,0.4897140877172787,0.8416492134903908,0.417937685950282,0.15117926921201288,0.325123152709363,1
0.5284474859907772,0.49213934377202473,0.8398108746431419,0.42236945972942885,0.1507145218283987,0.325123152709363,1
0.5288924506751459,0.48850632497278845,0.8402854483092645,0.44815271368041626,0.15071452182839876,0.325123152709363,1
0.5284428554983208,0.4905919035657889,0.8400844507492168,0.43882415651411233,0.1502494107926848,0.325123152709363,1
0.5288965201686272,0.4911150141206186,0.8415040947383311,0.4098542046333748,0.15164438024772656,0.32512315270936654,1
0.5284392380238946,0.4921570844723496,0.8417021449422615,0.4284083694569796,0.14931918872125663,0.32512315270936654,1
0.5288997662500922,0.49037171241291255,0.8397530800962564,0.4530250835367179,0.15024941079268497,0.3251231527093701,1
0.5284363025458244,0.48888378562408746,0.8407915592341197,0.43807482646617996,0.1497842997569707,0.32512315270935943,1
0.5289024376493249,0.4914959750232604,0.8388202464564667,0.41490892851328737,0.1507145218283991,0.32512315270935943,1
0.5284338592306644,0.48989346481129836,0.8384767629514849,0.430151155795566,0.14931918872125724,0.3251231527093559,1
0.528904680899555,0.4899904945362938,0.838187263235603,0.44790736300707257,0.15024941079268497,0.325123152709363,1
0.5284317942299449,0.4909974194134834,0.840185732402505,0.43087171308322264,0.14931918872125713,0.3251231527093523,1
0.52890658450087,0.48979511139381293,0.8400804162123052,0.4062788632175335,0.14978429975697108,0.32512315270935943,1
0.528430039280141,0.4900880677133761,0.8399753844546893,0.4327885524622268,0.1497842997569707,0.3251231527093559,1
0.5289082000342377,0.48859394738026174,0.8410686000490302,0.45151178286497634,0.14978429975697108,0.325123152709363,1
0.5284285570602273,0.4894994765555635,0.8411928796284518,0.43669080595997606,0.14885407768554307,0.3103448275862064,1
0.5289095521239449,0.4908089587463081,0.8414234597628315,0.4126969720068286,0.14838896664982928,0.3103448275862064,1
0.5284273347707208,0.4906730777758807,0.8411082659940965,0.4323605018318455,0.1479238556141149,0.3103448275862064,1
0.5289106420191815,0.48841581572775644,0.8380767331227873,0.4466096347078552,0.1479238556141154,0.3103448275862064,1
0.5284263829999264,0.48946824303946734,0.8429563671281796,0.43145104189571304,0.14792385561411545,0.3201970443349822,1
0.5289114464295582,0.48865873049205183,0.8391084561557891,0.4089028109177844,0.14931918872125702,0.32019704433498575,1
0.5284257392502657,0.4893569701633808,0.8400939258268996,0.4348681247181803,0.147923855614115,0.32019704433498575,1
0.5289119113564525,0.48872237851852524,0.8375494398135114,0.44962441247563073,0.14838896664982912,0.32019704433498575,1
0.5284254772826624,0.489318944893136,0.8398289468928832,0.4318612528278414,0.14792385561411517,0.32019704433498575,1
0.5289119387109109,0.48874103267408936,0.8383521245343727,0.4103644540349629,0.1497842997569709,0.32019704433499285,1
0.5284257258586951,0.4893224496492378,0.838768776690981,0.43321007926849686,0.14792385561411528,0.3201970443349893,1
0.528911360209607,0.4886952503301176,0.8380126685943193,0.45065436817031446,0.14792385561411484,0.3201970443349893,1
0.5284267052507753,0.48953751444834726,0.8388288863903255,0.4309093339966074,0.14606341147125965,0.31034482758621706,1
0.5289098857620348,0.48987280723016213,0.8380346136270821,0.4095275064643657,0.148854077685543,0.31034482758621706,1
0.5284288013562585,0.4889710766137983,0.8386860389716804,0.42731020796800284,0.14699363354268688,0.31034482758621706,1
0.5289069948900683,0.4890140752866227,0.8392168689516928,0.45172775342179083,0.14745874457840144,0.3103448275862206,1
0.528432728708978,0.48904887838446287,0.8418604788192785,0.4353063351801751,0.14652852250697326,0.30049261083743417,1
0.5289016847193572,0.48903287132791945,0.8384770756722522,0.4147458556188723,0.147923855614115,0.30049261083743417,1
0.5284399340032789,0.48893013726327944,0.8420316915852232,0.42991727645265365,0.14652852250697382,0.3004926108374306,1
0.5288917957907444,0.4897566657879372,0.8387937431984288,0.4491849758630042,0.14699363354268744,0.3004926108374377,1
0.5284537830046105,0.4897041829150565,0.8411822100218597,0.4308403692661868,0.14745874457840133,0.2906403940886726,1
0.5288717796420422,0.48867060442811466,0.8405763280467424,0.41042918702540687,0.14745874457840144,0.2906403940886655,1
0.5284841403506595,0.489312039175936,0.8403408994553646,0.43010542344457264,0.14606341147125904,0.2906403940886655,1
0.5288220964242539,0.48877195393908396,0.8382438919145676,0.45179284359868715,0.14559830043554597,0.2906403940886655,1
0.5285769168813982,0.4892725761894284,0.8396975107956964,0.43173585012830207,0.14559830043554547,0.30049261083743417,1
0.5285925558914368,0.488779982820505,0.8373614402808865,0.41041911668787034,0.1469936335426875,0.3004926108374377,1
0.530807620473332,0.48929791812567913,0.8394240010939984,0.4315220951322563,0.14559830043554547,0.30049261083743417,1
0.5295453172300735,0.488677196048576,0.8374025987873877,0.45512866594594864,0.14513318939983186,0.3004926108374377,1
0.528109145536041,0.48998793434099924,0.8394944522796818,0.425490323117087,0.14466807836411757,0.2906403940886726,1
0.529141041447194,0.4895134696737304,0.8371587706529091,0.4106457390234852,0.1460634114712597,0.29064039408867615,1
0.5282359779251612,0.488761697413445,0.8407458458979286,0.43393175336995654,0.14234252318554816,0.2906403940886726,1
0.5290797141539516,0.48985581580570664,0.8402378087038957,0.45878251290360006,0.14513318939983164,0.2906403940886726,1
0.5282711560102227,0.4896336833303255,0.8425752079082854,0.42376436176336274,0.14420296732840396,0.28078817733988615,1
0.5290570891495503,0.4887265546356337,0.8376913760984475,0.41695682545080637,0.14559830043554559,0.2807881773398897,1
0.5282881250543715,0.48926367177754226,0.8400226294998059,0.44167789569423094,0.143272745256976,0.28078817733988615,1
0.5290399645320736,0.4888175172116523,0.8396636691327827,0.4502893289819455,0.14466807836411769,0.28078817733988615,1
0.5283149651807416,0.48922494798901917,0.8397700559625789,0.41141547991177824,0.14373785629269006,0.28078817733989325,1
0.5289749494899009,0.4888371609283886,0.8397292606513626,0.4177504080351262,0.14559830043554542,0.2807881773398968,1
0.5285920930540148,0.489214654352264,0.8390912922954983,0.45061316624911435,0.14420296732840385,0.28078817733989325,1
0.5335138097285523,0.48884181021741513,0.8389110847960161,0.4492024436958129,0.144202967328404,0.2807881773398968,1
0.5305661109337191,0.4892141233074832,0.8387223498663028,0.40874859354479304,0.1437378562926898,0.2709359605911317,1
0.5327459238380277,0.48883871349912233,0.8380153567432305,0.4207891771985917,0.1455983004355457,0.2709359605911317,1
0.5321212828121064,0.4892210513879877,0.8388147005192974,0.45045544153716255,0.14513318939983186,0.2709359605911281,1
0.5290030766100823,0.4888270218235432,0.8386925583089495,0.44049528229140483,0.14466807836411763,0.2709359605911317,1
0.529657870868583,0.4892395905956711,0.8396131413452486,0.40945455378327833,0.1446680783641178,0.2709359605911281,1
0.5287305589943767,0.48879712847504697,0.838644057385177,0.43152628565026374,0.14466807836411807,0.2709359605911388,1
0.528371659728632,0.4892918509819534,0.8389177936623742,0.4524440365538537,0.14187777580193398,0.2709359605911352,1
0.5295736598220938,0.48868705712335136,0.8378400556148649,0.4346651818929036,0.14420296732840385,0.2709359605911388,1
0.5312439912416269,0.4896911497966017,0.8390281888785797,0.4043756971613105,0.14420296732840363,0.2709359605911388,1
0.5293362861401963,0.4897658197394785,0.8377852407335791,0.43668035373359776,0.14466807836411752,0.27093596059114233,1
0.5294888479498999,0.4889262628597082,0.8390663607958606,0.45363507193968094,0.14420296732840396,0.2709359605911388,1
0.5315123072347921,0.48902849656913205,0.837754397911664,0.4337449689124236,0.14420296732840385,0.27093596059114233,1
0.5330641847708261,0.4890678159596647,0.8390932563146145,0.40267732488088703,0.14373785629268995,0.24630541871921707,1
0.5317605900217746,0.48896504730125806,0.8377298975356686,0.4414462702262987,0.14373785629269023,0.24630541871922063,1
0.5330520112878888,0.4891044759407736,0.8391161950716598,0.45147945375006526,0.14373785629268962,0.24630541871921707,1
0.532238250635099,0.4889408339848891,0.8377080180194335,0.43016262687197704,0.14373785629269012,0.24630541871921707,1
0.52966792958671,0.4891219147267277,0.8391373471345622,0.40188548783594025,0.14280763422126205,0.2610837438423701,1
0.5347905697012719,0.48892745977740504,0.8376873562943108,0.4338267020295045,0.14373785629269006,0.26108374384237365,1
0.532390751009325,0.4891326871131735,0.8391577012634419,0.4508901855011744,0.143272745256976,0.26108374384237365,1
0.5327222563780897,0.48891842835010646,0.837667157222602,0.4369639135518357,0.14327274525697584,0.26108374384237365,1
0.5311180783402741,0.4891405183283065,0.8391778845720173,0.40960709939538253,0.143272745256976,0.26108374384237365,1
0.5296193801881361,0.4889114397532539,0.8376468489483146,0.43506117517163767,0.14280763422126228,0.2610837438423772,1
0.5290489481909773,0.48914691096550267,0.8391984761476361,0.4487256960920776,0.14327274525697595,0.26108374384237365,1
0.5286024142689032,0.4889054667464028,0.837625776094779,0.4342490531977489,0.14327274525697667,0.26108374384238076,1
0.5296248421997531,0.4891525943961575,0.8392203028482812,0.40768328245269736,0.143272745256976,0.23645320197042707,1
0.5296626191292348,0.4888999742326512,0.8376027867825184,0.4285913675705868,0.14280763422126222,0.23645320197042707,1
0.5305204640982681,0.48915797280682416,0.8392451179765553,0.4537138442181854,0.14280763422126233,0.23645320197042352,1
0.5299692197670104,0.48889464863149507,0.8375749808187894,0.43630083476957005,0.14094755373050658,0.23645320197043063,1
0.5333190253580247,0.4891632956791989,0.8392781552042721,0.4123831574963734,0.14234252318554833,0.23645320197043773,1
0.5312516146232579,0.48888928661337394,0.8375318702624712,0.421185307120843,0.14141266476622047,0.23645320197044128,1
0.5307785758887917,0.489168732657678,0.8393437650430827,0.45372323112513924,0.14234252318554816,0.23645320197043773,1
0.5290597411464817,0.4888837433555484,0.8374005525722976,0.4374454018731659,0.1414126647662203,0.23645320197044128,1
0.5306851032316426,0.48917441018102403,0.8398832588193734,0.41860815521996586,0.14187777580193436,0.23152709359606405,1
0.5305849635380959,0.4888779060322187,0.8382725642045601,0.4122143202051103,0.14141266476622036,0.23152709359606405,1
0.5299393802394999,0.4891804310676513,0.8392883544359171,0.451381864441261,0.14187777580193425,0.23152709359606405,1
0.5296594164798645,0.48887167905403733,0.8395679266633013,0.4410121819472452,0.14234252318554833,0.23152709359606405,1
0.5283230667599002,0.4891868858616479,0.8413991187737633,0.4224577728078823,0.1418777758019343,0.2364532019704484,1
0.5289626040552703,0.48886497516969135,0.8384023326649674,0.40603598815479885,0.14141266476622052,0.2364532019704555,1
0.528323742808622,0.489193859959183,0.8406566347005617,0.4520165677027613,0.14141266476622014,0.2364532019704555,1
0.5294717767503095,0.4888577096307929,0.837201897542099,0.44351751921886934,0.14141266476622036,0.2364532019704555,1
0.5299288932446254,0.4892014385004779,0.8395464863208421,0.429835817435766,0.14141266476621991,0.24630541871921352,1
0.5313390574013898,0.4888497959863381,0.8373183831448852,0.4028204431132644,0.14187777580193436,0.24630541871921707,1
0.5310032057683604,0.48920971008178205,0.8395056788812164,0.44854354340806263,0.1418777758019343,0.24630541871921707,1
0.5330733272402582,0.488841142716411,0.8373310993086762,0.44542442505394236,0.14094755373050635,0.24630541871921707,1
0.5335801812351874,0.489218769892009,0.8395070925940624,0.4280998740368999,0.14187777580193386,0.23152709359605694,1
0.5331874243625003,0.488831650231778,0.8373213667582131,0.40124175052649663,0.14094755373050624,0.23152709359605694,1
0.5351382510278913,0.4892287226544324,0.8395222686318397,0.44126392765953804,0.14141266476621991,0.2315270935960534,1
0.528542864322334,0.48882120792436895,0.8373023302183382,0.44945643602562313,0.14048244269479263,0.23152709359605694,1
0.5300425936207375,0.4892396856432927,0.8405966350099681,0.43074383022610424,0.1409475537305064,0.23152709359606405,1
0.5305916074152851,0.4888096910286945,0.8372780344540272,0.4098434395368645,0.139087109587651,0.23152709359606405,1
0.5280076832781184,0.489251791997192,0.8395704774834822,0.4480293760540826,0.1409475537305064,0.2315270935960605,1
0.5291587809629564,0.48879695708087706,0.8372500910059675,0.44662043463393,0.13955222062336445,0.23152709359606405,1
0.5281373601844315,0.48926519454209005,0.8395999298731454,0.42286722161491086,0.14048244269479257,0.23152709359605694,1
0.5302314960897523,0.48878284175584225,0.8372192708524413,0.40148779235614623,0.13955222062336478,0.23152709359606405,1
0.5307439292553313,0.4892800703566828,0.8396319971147137,0.44957183163278963,0.14048244269479246,0.23152709359606405,1
0.5318115573475302,0.48876715382992125,0.8371860779272874,0.44989358922593964,0.13955222062336461,0.23152709359606405,1
0.5367589946188525,0.4892966263598163,0.8396661690072256,0.4270411403401974,0.1400173316590784,0.21182266009852313,1
0.533816052695938,0.4887496689547871,0.8371511343972002,0.405686876913262,0.1400173316590788,0.21182266009852668,1
0.5371220666061325,0.489315106276884,0.8397015568525513,0.45063186489995893,0.13955222062336484,0.21182266009852313,1
0.5343538784184847,0.4887301218331612,0.8371158617188574,0.44438831164144926,0.13955222062336484,0.21182266009852668,1
0.535322802951131,0.489335799458825,0.8397356878060878,0.425556555738765,0.1390871095876504,0.2216748768472918,1
0.5311037530864606,0.4887081962449973,0.8370849181205222,0.4084132730669237,0.13908710958765105,0.22167487684729892,1
0.532643656503716,0.4893590521991038,0.8397588712686481,0.4504089054778622,0.13862199855193655,0.22167487684729537,1
0.5330695531802219,0.48868351216473443,0.8370817488569418,0.4438180770533673,0.13908710958765083,0.22167487684729537,1
0.5318872528984407,0.489385282446502,0.8396959451065598,0.42489412949615823,0.1395522206233645,0.21182266009852668,1
0.5334831029986292,0.4886556089033252,0.8376938601095514,0.4031555955064908,0.13955222062336511,0.21182266009853024,1
0.5283254971846557,0.48941499918569437,0.840523577466113,0.4524344101383363,0.14001733165907823,0.21182266009853024,1
0.5333944122494215,0.48862392275104033,0.8365007414460155,0.4445513642162333,0.13862199855193666,0.21182266009853024,1
0.5325544296663445,0.4894488283196631,0.841052418483477,0.43078153250236656,0.13908710958765105,0.21182266009852313,1
0.5339764788815269,0.488587756903895,0.8370437918152747,0.3973989012985716,0.13862199855193688,0.21182266009852313,1
0.5364753544566309,0.4894875477466552,0.8399897261482236,0.4475541105315025,0.1353662213019395,0.21182266009852313,1
0.5374049229013657,0.48854624038777766,0.8367691383439259,0.44832185959446513,0.1362964433733677,0.21182266009852668,1
0.535124129655212,0.48953213566142084,0.8401216288609233,0.43475934687282525,0.13815688751622288,0.2118226600985338,1
0.5357363649051968,0.4884982710128256,0.8366622817544143,0.3993429606270517,0.13722666544479542,0.21182266009853734,1
0.5334777568629404,0.4895838382371462,0.8402234843684827,0.43608620934253256,0.13769177648050915,0.21182266009853024,1
0.5357638668506784,0.48844243468497206,0.8365588333315238,0.4510315484455571,0.13676155440908103,0.21182266009853734,1
0.531441662904798,0.48964426630821295,0.8403316762331783,0.44008531474044277,0.13722666544479498,0.2216748768472918,1
0.5327237160946467,0.48837688893786557,0.8364438448935707,0.40880508499222046,0.13629644337336774,0.22167487684729537,1
0.5305570815303714,0.4897155364676084,0.8404551870565602,0.4325173793501358,0.13629644337336685,0.22167487684729537,1
0.5324541629481585,0.48829919096936547,0.8363100827499401,0.45208204150034537,0.13676155440908164,0.22167487684729537,1
0.5290018700254621,0.4898004819947009,0.8406011236736124,0.43888255274899024,0.1362964433733673,0.21182266009851602,1
0.534305704703829,0.4882060371314678,0.836149700126319,0.40414586221260884,0.13676155440908142,0.21182266009851602,1
0.5317488793708274,0.4899029770346264,0.8407787363792034,0.42013462854634076,0.13629644337336735,0.21182266009851602,1
0.5373094924278519,0.4880928561054011,0.8359513535988343,0.4555951634107292,0.13676155440908125,0.21182266009851602,1
0.5332592547274088,0.49002845217952284,0.8410023262759074,0.44149784371620826,0.13397088819479744,0.2019704433497509,1
0.5410115019725081,0.48795314747560753,0.8356965879482992,0.4149370454500763,0.13629644337336735,0.201970443349758,1
0.534599243178337,0.490184757123406,0.8412962556445335,0.417555713438753,0.1362964433733667,0.20197044334975445,1
0.540313619576404,0.48777732830345505,0.8353524539797474,0.4516333245427231,0.13397088819479794,0.20197044334975445,1
0.5337870544356089,0.49038376814197554,0.8417063266515884,0.44105065738562993,0.1362964433733673,0.201970443349758,1
0.5385909581974408,0.48755032075491933,0.8348531952596484,0.415155045132072,0.13583133233765324,0.2019704433497651,1
0.5304166427010736,0.4906455218693693,0.8423307212860105,0.41496237662329616,0.13583133233765324,0.20197044334976155,1
0.5366392441768852,0.4872427357405552,0.8340447391848675,0.4507990706432947,0.13583133233765335,0.20197044334976155,1
0.5272596291968371,0.49102392967545844,0.8434281610142758,0.44419574151430463,0.13583133233765335,0.20197044334976866,1
0.5361239126242403,0.486695390765551,0.8324410977978074,0.4121668506030051,0.13490111026622567,0.20197044334976866,1
0.5189396518521083,0.49342760165652366,0.8468249340238749,0.42215641432296735,0.1353662213019395,0.2019704433497651,1
0.5414578310074983,0.48903704577971197,0.8311541204469107,0.4533144944277907,0.13536622130193984,0.2019704433497722,1
0.4974776071452004,0.48805547413675276,0.8644644057080146,0.4405428290306218,0.1362964433733668,0.20197044334976866,1
0.6446880900148253,0.5087798785492785,0.7630403028371908,0.4119991619096792,0.13443599923051205,0.20197044334976866,1
0.6982618992952493,0.5367512613944211,0.6671555918980485,0.4304188094299355,0.1381568875162227,0.2019704433497651,1
0.8422618764723808,0.45055890551340616,0.5478202814745772,0.4498736921607313,0.13443599923051178,0.2019704433497722,1
