wrist_ACC_1,wrist_ACC_2,wrist_ACC_3,wrist_BVP_1,wrist_EDA_1,wrist_TEMP_1,label
0.8462808387123057,0.6443768398680931,0.5651278899801608,0.5370737524297761,0.4677807974366166,0.8555555555555365,1
0.8026597608121055,0.5246410133871056,0.6587802472899605,0.5369374324258162,0.4621084123101368,0.8555555555555365,1
0.774466384980102,0.627880408439026,0.6889925755805212,0.694535287207392,0.4583920352361266,0.8555555555555436,1
0.6546374468912675,0.6892811231601749,0.7822671324010505,0.15733357196170672,0.45614260686294694,0.8555555555555436,1
0.44880767701785274,0.625499219423827,0.8916546839951209,0.4780063190556905,0.4616194294098598,0.8555555555555436,1
0.6125461173877593,0.5858075035401347,0.851294013526894,0.5422189982394424,0.4775609141503211,0.8555555555555436,1
0.41500820423340656,0.6391514167296329,0.8749870872868315,0.41715211065811203,0.48352671959751115,0.8555555555555436,1
0.4966528794423899,0.6314147346220683,0.8942906248028156,0.693305831017715,0.4770719312500441,0.8555555555555436,1
0.6399086807536827,0.6557778627765501,0.8198497103636497,0.6477971484197274,0.47384446062495056,0.8555555555555472,1
0.5778591644062135,0.6148544336659612,0.8730943785572695,0.5803781879393267,0.4779521157608151,0.8555555555555472,1
0.7333595629173125,0.6676915471859186,0.7292094718567692,0.44168843675082364,0.4785388799508755,0.8666666666666494,1
0.5894495634972545,0.6135625915632683,0.8094101396889699,0.41566258375875004,0.47198623386226457,0.8666666666666494,1
0.6361565705536728,0.6584775275659092,0.809352837208221,0.6735720141460335,0.46807421775732705,0.8666666666666636,1
0.57486969469397,0.6503249871749859,0.8736125540251266,0.5957469107612996,0.4723775119241186,0.8666666666666636,1
0.5628946718036906,0.6208944141677731,0.8521195398114472,0.3845741712042063,0.47716971253982743,0.855555555555533,1
0.5666111632823603,0.6161684597632282,0.8704100871258567,0.49454248725905503,0.47765869544010464,0.855555555555533,1
0.5762255377454342,0.620462471799945,0.8401878467032472,0.5933399343732152,0.4769740735089003,0.8555555555555436,1
0.6162768011505735,0.6057164190445019,0.8428940929107341,0.49688074693286677,0.4771697125398273,0.8555555555555436,1
0.6474781856070893,0.6002901242959129,0.8107601453687392,0.3472210737374377,0.4771697125398273,0.8555555555555472,1
0.6030644837695116,0.5878385593400078,0.849202080816687,0.47985311887537724,0.47638730931883944,0.8555555555555472,1
0.6187068497823527,0.601627807766376,0.8584494375242139,0.6041630361446085,0.47765869544010464,0.8555555555555543,1
0.6135195132877703,0.7451238293298795,0.8044514302794312,0.6373224911668199,0.47746305640917763,0.8555555555555543,1
0.6759254170318838,0.5353021024643804,0.7129908242399275,0.42993588994416565,0.474920284166648,0.8666666666666565,1
0.8398895717652168,0.5038679438951296,0.7789284041274904,0.5116473743007115,0.46836763807803716,0.8666666666666565,1
0.7719117064120088,0.5975317498858419,0.6407960092154543,0.5426772241697694,0.46768301614683294,0.86666666666666,1
0.5519380659699864,0.7185728636308756,0.7716092678253137,0.44329957407995224,0.4688566974296746,0.86666666666666,1
0.7019896514860859,0.7292622264210743,0.7240648451208291,0.44319833645091566,0.46602042841507485,0.8555555555555543,1
0.5670187158410712,0.6791661103479637,0.8599849072416399,0.5545260067251672,0.46631377228442494,0.8555555555555543,1
0.423911560517119,0.5845861396362565,0.89372986503174,0.46221996402167775,0.46768301614683294,0.8555555555555543,1
0.5101222167323398,0.6041705936192009,0.9150550774854981,0.724374966946689,0.4787344425304416,0.8555555555555543,1
0.49836428936999566,0.5636212654956144,0.906601929927292,0.5423598932991136,0.47668065318818964,0.8555555555555365,1
0.49249196462443623,0.5556479497411224,0.888146140564527,0.2116165474795757,0.46631377228442494,0.8555555555555365,1
0.49619782417536196,0.5569394005910926,0.901215374846893,0.448262333353064,0.46103258876843867,0.855555555555533,1
0.49321858251028317,0.5496339511909775,0.8934251557279238,0.47605027807416106,0.458587521364333,0.855555555555533,1
0.49781715680917343,0.5537286642849483,0.8949335586864495,0.5568555591837491,0.4569250100839344,0.8555555555555436,1
0.49208340131498407,0.5427388564609631,0.8975515071209941,0.5744200798212638,0.45624038815273005,0.8555555555555436,1
0.4987648658380003,0.5495063598434587,0.8913775325983089,0.5220316273458132,0.4554579849317427,0.8555555555555472,1
0.49236749697915594,0.5418860243257185,0.8996388283909138,0.5367855863431656,0.4547733630005385,0.8555555555555472,1
0.4990219965282295,0.551004793757105,0.8884330248634679,0.5319492285928394,0.4532085565585635,0.855555555555533,1
0.4965426543774959,0.5352463856574037,0.9192630215177922,0.5039017681751599,0.4528173549480695,0.855555555555533,1
0.5006607146058524,0.5701642651937274,0.8960764700863096,0.5392664978168146,0.4479273730425781,0.8555555555555472,1
0.4458427145250011,0.6080646865455627,0.8933084150525361,0.507421695717873,0.4532085565585633,0.8555555555555472,1
0.5433586936961359,0.6144782668279852,0.8376860027706212,0.5239096203972311,0.45917443845711403,0.8444444444444308,1
0.7217732220834561,0.5931027391896412,0.758161280474818,0.5494816717851572,0.4552623459008157,0.8444444444444308,1
0.7041722449309169,0.5831351936402006,0.7763266157928637,0.5705677210531789,0.45418659881047796,0.8444444444444379,1
0.7466447070836173,0.5817769475096186,0.72985849887489,0.5790075603379555,0.45350197687927385,0.8444444444444379,1
0.7278246436382922,0.5793971672773427,0.7457028183825005,0.4976642061200465,0.4537953207486245,0.8555555555555436,1
0.7448588221527714,0.5831492058833072,0.7318127158225589,0.43433285682844053,0.45447994267982816,0.8555555555555365,1
0.7312501673543657,0.583052467811044,0.7415855561095612,0.5026549094151962,0.4540887410693343,0.8555555555555472,1
0.7411438530944401,0.5820506478916635,0.7352705807869898,0.5191929037244453,0.45271957365828597,0.8555555555555472,1
0.7206620506112358,0.5815026518262641,0.7543642778111634,0.5074938014347069,0.4535997581690574,0.86666666666666,1
0.7318883952122397,0.5889712097757044,0.7519030334758081,0.5284328900530814,0.4531106988174197,0.86666666666666,1
0.6766318141597103,0.5865849826793282,0.7873909896287248,0.4951032941497299,0.4524261533375762,0.86666666666666,1
0.7144768917018518,0.6110119813132583,0.8131994805976845,0.5097140252174406,0.45203495172708197,0.86666666666666,1
0.5078533493901006,0.6038919625109923,0.8184487687313331,0.5065911115892734,0.4518393126961554,0.8555555555555436,1
0.46830781586974757,0.5749597365908377,0.9247068730780823,0.45308655203838666,0.45389317848976785,0.8555555555555436,1
0.4637443645361312,0.570108889339965,0.9013151209385146,0.5226726546896237,0.45937000103668024,0.8555555555555365,1
0.4419405901334361,0.5150312221484,0.9113864612939232,0.525382066591284,0.4591744384571137,0.8555555555555365,1
0.5818436937924505,0.52842834337328,0.853802358939957,0.586451193767836,0.4559469678320195,0.8555555555555472,1
0.6097080107223155,0.5256845343892728,0.8516477121418713,0.5182914849558534,0.4545777239696118,0.8555555555555472,1
0.716677695845749,0.5113699578720786,0.8007447399912088,0.4310964580515568,0.4523282955964324,0.8555555555555436,1
0.6713749216952002,0.4972268940336013,0.8110322741540447,0.4847878659377472,0.4533063378483472,0.8555555555555436,1
0.617560220114186,0.523482850229052,0.8196510089354094,0.4752514260874601,0.45232829559643195,0.8444444444444379,1
0.6487337958947095,0.51695652471943,0.8315902454230666,0.4910919600278892,0.4532085565585632,0.8444444444444379,1
0.5509812062911914,0.5456370730271416,0.8619714097466309,0.6314299845371119,0.45183931269615496,0.8444444444444414,1
0.472502509402249,0.5267131709196193,0.9211841923492412,0.6392223332873308,0.43961428148106485,0.8444444444444414,1
0.7063632571458445,0.5467342123621127,0.753045654413593,0.4563017377414096,0.450959128185384,0.855555555555533,1
0.7877854459078122,0.5226682192342943,0.6246845551767234,0.4732074210728318,0.4437219366169294,0.855555555555533,1
0.8153041840851589,0.46303914778844707,0.6768458151699626,0.3061787445496528,0.41858717580418436,0.8555555555555436,1
0.7607829657890913,0.4718077124984174,0.6597176315971158,0.5305847260744367,0.40636696102479064,0.8555555555555436,1
0.780791386311195,0.4165338477169747,0.660232843815013,0.8470372670533233,0.4150711777454371,0.8555555555555543,1
0.8084786420939352,0.3490099964571067,0.5935533898115576,0.07879824862715257,0.4204501425512064,0.8555555555555507,1
0.7965341604316665,0.39064803264838316,0.6059366099973844,0.18879261203732428,0.4358048631016076,0.8555555555555578,1
0.7673227774932951,0.33180944091995646,0.6000290681439084,0.5154890586449353,0.4383477117954969,0.8555555555555578,1
0.7848669671561734,0.28943096714499195,0.5381807876029672,0.591762446468501,0.4423575091902182,0.8555555555555436,1
0.7970772056594666,0.27003762715552937,0.5357552208822338,0.730595945996941,0.44460693756339753,0.8555555555555436,1
0.7393489209354313,0.27331987572133276,0.53463308313579,0.8151797013764321,0.44881237398904517,0.8555555555555507,1
0.7816551778093103,0.27032034141617095,0.546501705482215,0.5435559615023601,0.455169304595369,0.8555555555555507,1
0.742798161855716,0.27808406207781566,0.5534727091605459,0.4277894663130444,0.46142853036326914,0.8555555555555436,1
0.7799033166204734,0.27190579822343774,0.5582633016809027,0.39425803770048234,0.4657318245300611,0.8555555555555436,1
0.7447981187485992,0.28134889882814773,0.5522597130302087,0.42413318379906495,0.46768783258252977,0.8555555555555472,1
0.7749879343238202,0.2739811784360692,0.5631435818370731,0.6030868289248804,0.4702258648407227,0.8555555555555472,1
0.7471286559538377,0.28315270269660503,0.5516493168629181,0.5210371372384808,0.4679764364675433,0.8444444444444308,1
0.7728258060012402,0.2753327047770052,0.5669308818205948,0.6006790546215398,0.46680283163606207,0.8444444444444308,1
0.7423436241174278,0.2846866802131982,0.552361182197923,0.4967864979192393,0.4648468235835931,0.8444444444444272,1
0.7770369764761393,0.2762046852936978,0.567559212835023,0.5521917335402098,0.4627929577899804,0.8444444444444272,1
0.7408787456754777,0.2880691589300005,0.5473479022836112,0.5424147735585367,0.4611304465095827,0.8555555555555472,1
0.7824254487002957,0.26748559004006545,0.5736290937071906,0.4861013197035842,0.4596634213573909,0.8555555555555507,1
0.7272129407377446,0.29855654069800486,0.5358058421800129,0.5561446452824038,0.45878316039525935,0.8555555555555472,1
0.8595459764105224,0.23177630789564746,0.6253106855417823,0.5259925610459638,0.45760963201513893,0.8555555555555472,1
0.8049832999036695,0.38885787442732955,0.6217800618009728,0.4540820758912073,0.45702279137371793,0.8555555555555436,1
0.5958371031012102,0.6883575652085984,0.6495666738608784,0.5446152631935124,0.4568271523427909,0.8555555555555436,1
0.47549822958267707,0.5053868361354735,0.9301677909786272,0.5115004526356901,0.45888101813640314,0.8555555555555472,1
0.3761972318288824,0.5324190374434479,0.9239169828966314,0.44622086452612764,0.45731613524306836,0.8555555555555472,1
0.4163886431547731,0.5247186054029347,0.9193138247419956,0.507678358605391,0.47081262903078347,0.855555555555533,1
0.3904526593436758,0.5433614200555699,0.9138931516845432,0.6372437394701659,0.4699324445200126,0.855555555555533,1
0.39219112250794497,0.47430118415592837,0.933063872556816,0.5628949961541563,0.46826985678825417,0.8555555555555507,1
0.5847183762709702,0.5478060955682938,0.7633297110432098,0.5644091982327322,0.4678786551777604,0.8555555555555507,1
0.9126208292164397,0.5932385127889414,0.3776696069409353,0.47862286729657466,0.4410813066332565,0.8555555555555472,1
0.839504250076657,0.49390915470640306,0.3618075140675778,0.4398925842275093,0.4216190073983508,0.8555555555555436,1
0.9211700152335078,0.5313194563026736,0.4681770517318501,0.3614856163693597,0.4205479238409897,0.8555555555555543,1
0.6337785417220878,0.6013715828361018,0.7153673022423754,0.39872841007456705,0.4362939224532444,0.8555555555555543,1
0.33850274765581495,0.5134370505585779,0.937874284549131,0.502619484680774,0.45634298587821065,0.8555555555555507,1
0.44151604084523566,0.5441744088036763,0.9183349064089519,0.5130563400610698,0.4201567986818566,0.8555555555555507,1
0.6094727483697828,0.5745636150843896,0.7843741057544493,0.6723798913458454,0.4271984276707439,0.8555555555555543,1
0.8852638840846234,0.5902103308723678,0.5544928590190923,0.8464884890600124,0.4128217493722579,0.8555555555555543,1
0.7829072453357993,0.5363335850766892,0.6345599576586576,0.4483620048842406,0.3808409221501914,0.855555555555533,1
0.8019146772090995,0.5348908817915218,0.7303757983029047,0.35409530985474275,0.3844917804084518,0.855555555555533,1
0.5916971623380433,0.6100027816875542,0.8419501797152557,0.41607637011268434,0.3939784003500859,0.8555555555555365,1
0.8205878412625038,0.5211449040926622,0.5443258912489446,0.1658890867310751,0.41070228831153477,0.8555555555555365,1
0.8924308701686334,0.6104753882469696,0.3554753190569626,0.5083085764303539,0.4144187418369062,0.844444444444445,1
0.8083556503146945,0.6036388183762648,0.3650903141101489,0.737108438316698,0.4066924909168138,0.844444444444445,1
0.84667287867334,0.6108601155429126,0.3801823208850855,0.7381606484784343,0.40913748186955967,0.8444444444444414,1
0.8239002258088308,0.6077773514433309,0.3887908912462762,0.35295902731226436,0.409822103800764,0.8444444444444414,1
0.8430831312327367,0.6115992125105951,0.41489800175546704,0.09033231807998715,0.41040886799082466,0.8555555555555543,1
0.8318988257721434,0.6068943994531852,0.4128189682798613,0.45748961192894566,0.408941919289993,0.8555555555555543,1
0.8418885820044193,0.6089128487761967,0.4192058257452587,0.7147797342566102,0.40991988509054755,0.8555555555555543,1
0.8350112792997186,0.6063693281041969,0.4149329527198746,0.6672465385967716,0.4088441380002099,0.8555555555555543,1
0.8437535821891295,0.6116712614452247,0.41935381009972084,0.5231870678318269,0.40903970057977657,0.8555555555555436,1
0.8349009891684971,0.608063052362076,0.4148284132372375,0.48873479292936306,0.40952868348005333,0.8555555555555436,1
0.8405386912695314,0.6105717706678757,0.41929772550712696,0.6013815927049855,0.40542110479554927,0.8555555555555507,1
0.8376852413451086,0.6098648376517309,0.41512719349883653,0.5115417781940572,0.40727925510687424,0.8555555555555507,1
0.8417315803178205,0.611448856676489,0.41815865952997106,0.514745924002056,0.40767045671736846,0.8444444444444272,1
0.837825827643202,0.6095712029974001,0.4152965296523062,0.5699934735998224,0.40747489413780125,0.8444444444444272,1
0.8415128149774667,0.6121768124119202,0.4180178645441063,0.48896522829424255,0.40669249091681414,0.8444444444444379,1
0.8380438215301089,0.6098038545606815,0.4154129552915795,0.5135632888443504,0.4067903486579574,0.8444444444444379,1
0.841312038777438,0.6133641957020155,0.4179257968007259,0.5580173918371513,0.40591008769582604,0.855555555555533,1
0.8382243276386596,0.6093776469184342,0.41547743234723833,0.4730019851903769,0.4065947096270307,0.855555555555533,1
0.8411510562094204,0.6074795460052758,0.41789308235840006,0.5048342409564026,0.4065947096270307,0.8555555555555436,1
0.8383676619468132,0.6047743562978283,0.41555139931908236,0.548189009007199,0.4067903486579577,0.8555555555555436,1
0.8410232260543264,0.6074432277512057,0.42171692433009755,0.4773274079621056,0.4062035080165365,0.8555555555555365,1
0.8384821296415965,0.6045058840128993,0.41976367297874606,0.4977576878786334,0.40630128930632015,0.8555555555555365,1
0.8409200250959172,0.6041033282959161,0.421293073791839,0.5474378808884458,0.40542110479554916,0.8555555555555436,1
0.8385761867916317,0.6040053542953981,0.4209551182514593,0.47667229365780245,0.40551888608533226,0.8555555555555436,1
0.8408327828660638,0.6056855074551296,0.42040872999611045,0.5054388528106369,0.4055188860853328,0.8666666666666352,1
0.8386595021148964,0.6052740316643337,0.41903063028097653,0.5340483197184291,0.4058123064060435,0.8666666666666352,1
0.8407491952536525,0.6070269085103861,0.4188015931142251,0.4769447399706889,0.4045408438334178,0.8666666666666387,1
0.8387507389069211,0.6050656234042052,0.4174414524664703,0.5176380769426493,0.4035628780328633,0.8666666666666387,1
0.8406339269910668,0.6071135137241109,0.4185065867508736,0.5183110865316429,0.40346502029172004,0.8666666666666671,1
0.8389431090837303,0.6050198633468217,0.4161962026800944,0.4704432188192121,0.4044430625436344,0.8666666666666671,1
0.8394428204701567,0.6071403193129442,0.41791379587209576,0.5406927322285379,0.4024870544911654,0.8666666666666636,1
0.8383189215352098,0.6050033934809976,0.41835752535968623,0.49060969326382964,0.4035628780328636,0.8666666666666636,1
0.8414490230248635,0.6071506497162072,0.42237745788700265,0.4895617208361164,0.4038562983535735,0.8555555555555614,1
0.8383771713674206,0.6049967858511494,0.4235395981120732,0.551279805736195,0.4022914154602386,0.8555555555555614,1
0.8409715694075881,0.6071552222343477,0.42435597663438784,0.4755441276175725,0.4022914154602387,0.8555555555555578,1
0.8385290799825109,0.6049926992017857,0.4233565426004061,0.5182086792046341,0.4023892732013824,0.8555555555555578,1
0.840891118297026,0.607160836310479,0.4224499307004643,0.5553760752774811,0.40180250901132175,0.8555555555555365,1
0.8385858186628647,0.6049818694183938,0.42122191193591074,0.4706725813470001,0.40160686998039463,0.8555555555555365,1
0.8408341662485741,0.6071861975451713,0.4205359160339534,0.5158719907654551,0.40053104643869686,0.8555555555555436,1
0.8386725879284784,0.6049061715729165,0.4196811494908814,0.5605813309430064,0.40053104643869686,0.8555555555555436,1
0.8406379370389392,0.6077220761561124,0.4200919275493236,0.488338297319859,0.40092224804919085,0.8666666666666458,1
0.8395284073711111,0.605858733726236,0.41756978414777435,0.4608318596201879,0.4002376261179862,0.8666666666666423,1
0.8414875119862977,0.6078181045658425,0.4388234828505857,0.5544163307141425,0.401117887080118,0.8666666666666565,1
0.838104994233908,0.6025056119039859,0.45278301769083723,0.5513665604600209,0.3999442822486362,0.8666666666666494,1
0.8430390485897721,0.605225636624333,0.44128358672043727,0.46750360013744474,0.39994428224863654,0.8555555555555507,1
0.840530569175004,0.5985981515318577,0.4393475652271039,0.48446961573381314,0.3987706009657944,0.8555555555555472,1
0.8425715883774225,0.5994506122041717,0.4424383395244136,0.5632150183434265,0.3997486432177094,0.8555555555555543,1
0.8405940309781712,0.5981251021804412,0.4432145022267451,0.4946751222756597,0.3992596603174321,0.8555555555555543,1
0.8434163572492761,0.602646018891987,0.4474798467884244,0.43054217478812773,0.3991618790276492,0.8555555555555436,1
0.8388787827923079,0.6060480423048096,0.44642309714265277,0.5520452073448565,0.3981838367757343,0.8555555555555436,1
0.8434511298691458,0.6063240154870406,0.44702804154216896,0.5742836279365282,0.39837947580666133,0.8555555555555507,1
0.8367291690217984,0.6058072108699741,0.446979426229957,0.4742895068482906,0.39789041645502365,0.8555555555555472,1
0.8434087256130716,0.6062414910615557,0.4453183205837922,0.5331081959508667,0.3973035758136031,0.8444444444444308,1
0.8384315770701352,0.6040127718516659,0.4555217030752039,0.5017463733958425,0.3970102319442531,0.8444444444444308,1
0.8424369228859867,0.6061471155235761,0.4571912296638045,0.443756262789299,0.39642346775419224,0.8444444444444308,1
0.8380743746502031,0.6050274480778675,0.45618286532526264,0.5301638123891725,0.3966190303337588,0.8444444444444308,1
0.8440597642608314,0.6062882157069047,0.45523076208007063,0.5054448280427415,0.3958366271127718,0.8555555555555436,1
0.8352031615672446,0.6061347158448732,0.45590717226093125,0.49200958402144646,0.397010231944253,0.8555555555555436,1
0.8448865668049346,0.6057160637035753,0.45617849385787035,0.5682984927825114,0.3955432067920609,0.8555555555555436,1
0.8337093325560256,0.6068775171288584,0.453121268295747,0.4899237531814034,0.3956410645332047,0.8555555555555436,1
0.8481845580287142,0.6034906095218346,0.4566781299298546,0.4995292872031849,0.39339163616002526,0.8666666666666636,1
0.8302677838610681,0.6011873479521632,0.4589152050517663,0.5595954114873783,0.39534764421249424,0.8666666666666636,1
0.8537020301510987,0.5958250144762298,0.4629013674172646,0.4828469889863024,0.39466302228129035,0.86666666666666,1
0.8252149762457299,0.603258183333264,0.46491911748419595,0.4976050386114735,0.393978400350086,0.86666666666666,1
0.8842418408333041,0.5829083897400943,0.48642846252271676,0.5620753415783623,0.39378283777051926,0.8666666666666565,1
0.8237354472813057,0.5817900006062535,0.6591009509378396,0.4782528771959047,0.39407618163986935,0.8666666666666565,1
0.6333593084138074,0.6121677314304272,0.6940776814986935,0.4895139900302502,0.40600786898561014,0.86666666666666,1
0.9008850816747349,0.5920380975652556,0.5652575861313527,0.5705690836967773,0.40502982673369525,0.86666666666666,1
0.7971192158311742,0.6306892894910103,0.503653011459685,0.5504615979738451,0.40864849896928235,0.855555555555533,1
0.8544579926183817,0.6138627693928006,0.4990447821251336,0.5537526811403386,0.4132450605540644,0.855555555555533,1
0.8233199226292927,0.6095340996352319,0.5187015109487547,0.43061581858582676,0.41461430441647296,0.8555555555555472,1
0.8490512262630834,0.541285079437294,0.5014888473137508,0.404307377281037,0.40414964222292404,0.8555555555555472,1
0.7340474812535736,0.5600784638660885,0.6301346461878724,0.5373242428506171,0.4028782561016596,0.8555555555555436,1
0.6238305777218036,0.36968397654881935,0.8432257260511904,0.5471212274302004,0.40718147381709113,0.8555555555555436,1
0.6339903472356547,0.23208884855660328,0.7568242701399208,0.5452982803538867,0.409724246059621,0.8555555555555507,1
0.586422365502951,0.2679531832431156,0.7810322079533669,0.48265450483259964,0.4093331209004868,0.8555555555555507,1
0.6184474193023168,0.2930462023800977,0.760874751991061,0.596374596750567,0.409724246059621,0.8555555555555472,1
0.6205603848102594,0.28760966155653045,0.7744546598648476,0.5883587095641308,0.4089419192899931,0.8555555555555472,1
0.614608494388041,0.2847821917858113,0.7586299771500857,0.3795936038681762,0.4091374818695601,0.8555555555555543,1
0.6168940974821167,0.279888929280784,0.7714507625183431,0.45283096267740885,0.4098221038007641,0.8555555555555543,1
0.6099655265931275,0.2841781916474335,0.756706704600199,0.47827249761900426,0.4095286834800539,0.8555555555555436,1
0.6208726932940178,0.2781120371275232,0.7707508225988045,0.48371961785319834,0.40845285993835545,0.8555555555555436,1
0.6160178617149105,0.2855023826983258,0.7572805521174685,0.5416765212828456,0.40855071767949946,0.8555555555555436,1
0.6283029678483827,0.27720772999709065,0.765338317749167,0.5234866025407245,0.4091374818695598,0.8555555555555436,1
0.6408967305431823,0.3131705242538493,0.7569637491704556,0.5046120341325594,0.4096265412211977,0.8555555555555507,1
0.5911795478054851,0.31866679672993115,0.8139483424156508,0.5280293291213374,0.41040886799082466,0.8555555555555507,1
0.4964849047717488,0.3461467348303402,0.833886942707395,0.5261698727522016,0.4108979273424619,0.8555555555555472,1
0.5633098095693642,0.39272877317647054,0.8708345334090462,0.4952782871229731,0.411875893143016,0.8555555555555472,1
0.5586722235308021,0.43657674152067744,0.8592474483548569,0.5382594610981691,0.41324506055406485,0.8666666666666671,1
0.5562586717974259,0.4506847909264631,0.8533235493636679,0.529360527238088,0.4139296824852684,0.8666666666666671,1
0.5458747451635221,0.41164771291990765,0.858672637395397,0.5206615708808522,0.40962654122119724,0.8666666666666636,1
0.6142384770436129,0.3756156124946833,0.8639777575123222,0.5236518050061395,0.4110934899220289,0.8666666666666636,1
0.5129128328581468,0.392260401845721,0.7937957960283958,0.5158530813207507,0.41109348992202865,0.8555555555555472,1
0.8260405852432848,0.32023552036809333,0.53463651459333,0.5088108250189474,0.41285393539493054,0.8555555555555472,1
0.8199468400296905,0.3620683973465145,0.2845610201922858,0.5205290201241881,0.40718147381709136,0.8555555555555543,1
0.7978998611650148,0.33945461907737523,0.4194807170398629,0.48254299611969104,0.40825729735878924,0.8555555555555543,1
0.8197473156972754,0.3597115476619267,0.4251165051953398,0.5044037188137298,0.40649685188588736,0.855555555555533,1
0.8122888858353461,0.3403208877974193,0.42849704208475514,0.42047903802593134,0.4084528599383557,0.855555555555533,1
0.8146778646523212,0.3647940456190484,0.41192621808441543,0.40962873034267877,0.4081595160690057,0.8555555555555436,1
0.8754282895244296,0.3099735663262752,0.48024664181390514,0.6680718261250168,0.4073771128480177,0.8555555555555436,1
0.7137011692771558,0.3886751310997464,0.7885974538401639,0.39488627977141555,0.40757275187894526,0.8555555555555436,1
0.6042161241882911,0.7141132917642464,0.7156354396377897,0.4896740817425419,0.40962654122119724,0.8555555555555436,1
0.44785286998593876,0.6082749177220366,0.8760748534002791,0.5718444217630722,0.40903970057977646,0.8555555555555507,1
0.4792756460777033,0.633459925298433,0.9096516379745997,0.47255214097171955,0.41040886799082466,0.8555555555555507,1
0.4895775188277548,0.6498029673591963,0.8607943115079744,0.5978913033906751,0.413049574425858,0.8555555555555436,1
0.6230610562386989,0.6322501297805506,0.8410939555604895,0.6858887552148337,0.4122670947535101,0.8555555555555436,1
0.6837485821316662,0.6469755984251859,0.7734438789413226,0.5965132829935142,0.41001766638033066,0.8555555555555507,1
0.5561343607519921,0.6242824981475545,0.8596849573258014,0.47846837182473007,0.408257297358789,0.8555555555555507,1
0.5649851636478094,0.6399588922520743,0.8504720192375372,0.46321949333004747,0.4094309021902701,0.8555555555555365,1
0.5449645379017625,0.6244826591093389,0.8715078822736058,0.4703006890335736,0.4090397005797761,0.8555555555555365,1
0.5446871116819246,0.6364297052183385,0.8612309229522972,0.5350454129283473,0.4087462802590658,0.8555555555555436,1
0.5087015598563249,0.6209119255685909,0.8862017198695848,0.5301382336032869,0.407768238007151,0.8555555555555436,1
0.532558284749934,0.6366410764394176,0.8634815797667885,0.3958789610889807,0.4091374818695598,0.8444444444444414,1
0.4992476987963381,0.6200147189515116,0.8921286385326596,0.41409034542492434,0.40903970057977657,0.8444444444444414,1
0.5287746069651607,0.6384662840338977,0.8618009935090509,0.4997512702557552,0.40962654122119724,0.8444444444444379,1
0.47154022892356007,0.6193161317804617,0.9108249379799938,0.5522034170597184,0.4087462802590659,0.8444444444444379,1
0.46328309883480545,0.6499735189331121,0.8754643747444825,0.5232702246736889,0.41011552412147445,0.8555555555555472,1
0.3676182476220477,0.6161438750905005,0.9358604274041943,0.5188376022149128,0.4113869102427389,0.8555555555555472,1
0.607836444088244,0.7126969329026147,0.7664816745473426,0.5379841191100629,0.4104088679908243,0.8555555555555436,1
0.661869848136493,0.8642379689262127,0.37980972089033943,0.5412695982156651,0.40874628025906634,0.8555555555555436,1
0.539002154455946,0.9202138113786403,0.3991537884692682,0.5805616462520394,0.39749921484452977,0.855555555555533,1
0.5935001258188408,0.9258641713556861,0.3514939308922117,0.5225154640135925,0.4030738951325865,0.855555555555533,1
0.5452518648747892,0.9422074699438346,0.3720018786642628,0.41517472160874414,0.40111788708011764,0.8555555555555365,1
0.5676488203681791,0.9331452655132528,0.34568136303820124,0.36091552630418144,0.4000419870870595,0.8555555555555365,1
0.5433747745229373,0.9351753170682695,0.3645492544622724,0.51196498186626,0.3995530041867825,0.8444444444444272,1
0.5807392159256904,0.9230838233692431,0.34331526209236757,0.5308932352301642,0.40092224804919063,0.8444444444444272,1
0.5676988871888479,0.9050935245970553,0.36317251134890005,0.5622266397359391,0.399064097737866,0.8444444444444343,1
0.7828674792031964,0.698496773917957,0.42408798327167796,0.5103157100942849,0.39896623999672187,0.8444444444444343,1
0.6329509821678432,0.4345921137548324,0.8477419135859097,0.5639297875804269,0.39329385487024227,0.855555555555533,1
0.5327112344355491,0.23338204518401667,0.8154751029532488,0.5212641372000308,0.40053104643869686,0.855555555555533,1
0.49244570213304517,0.1288651158642955,0.6477217492853476,0.4663900873967089,0.40855071767949946,0.8555555555555436,1
0.45917769592977964,0.10507882701300214,0.6726876894213498,0.4674187292843863,0.3933916361600255,0.8555555555555436,1
0.4402272755753314,0.08236260982623606,0.5914509339475305,0.44521258966187743,0.3811665284935749,0.8444444444444379,1
0.48335539835901936,0.13702662242717478,0.7256456530830373,0.622883303520958,0.38820815748246296,0.8444444444444343,1
0.5693833720117094,0.35144080355451357,0.780251224260177,0.5685443069468634,0.3856653852399333,0.8444444444444414,1
0.4251476693793479,0.18170250906001506,0.8158058870688073,0.43177195526755163,0.39710808968539657,0.8444444444444414,1
0.4618652565282117,0.3031412303863037,0.8780483381718608,0.5896440697625623,0.40757275187894537,0.8444444444444343,1
0.5000695195707134,0.3357524800531494,0.843389493083293,0.5653129236754901,0.40972424605962077,0.8444444444444343,1
0.48912115557308206,0.28893810229638855,0.847870602887012,0.6943099007972119,0.41099570863224566,0.8444444444444379,1
0.5135386974895397,0.26042391826668615,0.8126287682561202,0.48868554901458494,0.4097242460596203,0.8444444444444379,1
0.5193058651195989,0.33914002952772004,0.8365607103568323,0.2871758442029979,0.4095286834800539,0.8555555555555436,1
0.5065958739975458,0.3429479108107587,0.8467861659548779,0.5280558100836049,0.40786609574829547,0.8555555555555436,1
0.45193323059215657,0.2578413090065644,0.8244449285492796,0.5039290847679618,0.408941919289993,0.8555555555555436,1
0.45039269123644393,0.28043070995973796,0.8344610056853787,0.512445016774482,0.40718147381709113,0.8555555555555436,1
0.5031148932879385,0.2985855022758639,0.8315677975655655,0.4838665538988132,0.40747489413780136,0.8555555555555436,1
0.5123716957095398,0.26466938773373205,0.8245791683150001,0.5140357027729338,0.40835507864857246,0.8555555555555436,1
0.5023380219872426,0.3043718326376986,0.8148149055703362,0.5216194661989326,0.40727925510687446,0.8555555555555365,1
0.5139259104539777,0.16856176296961206,0.8682107616664791,0.49078298445393265,0.40786609574829513,0.8555555555555365,1
0.4696884459563442,0.36875800267520487,0.8837221304993993,0.5109822500515984,0.4079638770380787,0.8444444444444343,1
0.578196011535575,0.6793702380666752,0.6946139985262081,0.4839152004748824,0.40923526315934333,0.8444444444444343,1
0.5028324400468407,0.4891970582871843,0.9327614798565422,0.5286052624041332,0.40806173477922203,0.8444444444444414,1
0.48917427890074294,0.5685589471797309,0.9014608761564913,0.5163864949905005,0.4112891289529558,0.8444444444444414,1
0.47844659008298906,0.5228936878010374,0.908592178420926,0.5623834580355924,0.4160813295686647,0.8444444444444343,1
0.49446767940167596,0.564805077749562,0.8950285486282011,0.5473598698848587,0.4166680937587248,0.8444444444444343,1
0.5315588718962585,0.5556770207990178,0.8832183529358731,0.5154493104433487,0.4154944889272436,0.8444444444444414,1
0.5024844368767264,0.5644349520252141,0.8895109616558701,0.467367747239019,0.4140275402264124,0.8444444444444414,1
0.47968112000412677,0.5513986195446581,0.9045327877558849,0.4508982068438723,0.4139296824852685,0.8333333333333286,1
0.48303171640629705,0.5550568379882393,0.8971963684897003,0.49022858675364844,0.41432096054712275,0.833333333333325,1
0.46811793907546295,0.5531435855531561,0.9016413562560652,0.5223504832667942,0.4132450605540644,0.8333333333333321,1
0.5606395208888308,0.547065461651404,0.8670246819828951,0.5291549993649806,0.4122670947535101,0.8333333333333321,1
0.722603036448402,0.5609990910652883,0.7259370966327532,0.5220033749464851,0.41158254927366633,0.8444444444444308,1
0.8337616171895039,0.5710016907619553,0.5890196535220821,0.518010729608965,0.4089419192899931,0.8444444444444308,1
0.8196015121754232,0.5443051923336273,0.5847514826313409,0.4940513273025039,0.3934894174498086,0.8444444444444379,1
0.8569306581960561,0.6205039057116863,0.4138538794257449,0.49684317403335726,0.3943696019605797,0.8444444444444379,1
0.8494454813976935,0.5466062919972025,0.5245108022602475,0.521018890631605,0.39163119068712327,0.8333333333333286,1
0.8232241754508167,0.5865927670502677,0.5425836822531753,0.46090515371243695,0.35681424735317746,0.8333333333333286,1
0.8586704289214793,0.5523791598863668,0.4918509093435617,0.4646157219020188,0.38723019168190864,0.8333333333333286,1
0.8918506866364133,0.545769106090989,0.5473287385372494,0.5073062282593012,0.36991946307903856,0.8333333333333286,1
0.6142840169593486,0.6734719316924678,0.7768135441938949,0.5181191409728235,0.37158212726215745,0.8444444444444308,1
0.37271006772710247,0.5633819945559356,0.9098778440130477,0.6246366839795822,0.40180250901132186,0.8444444444444308,1
0.4627832657328786,0.5397043042074522,0.9088753249793535,0.6678119668218745,0.40150901223925084,0.8444444444444308,1
0.472056023218271,0.5904409723517295,0.907496437527477,0.3634582985199354,0.4067903486579575,0.8444444444444308,1
0.40915825260539934,0.5366083440871405,0.9144014877382457,0.7047672294469006,0.40630128930632003,0.8333333333333286,1
0.406476096684508,0.562408803096801,0.9140826361534344,0.5460919604533352,0.4068881299477407,0.8333333333333286,1
0.43036568126094227,0.5360909698828448,0.9082384186442359,0.3681876321948222,0.40903970057977657,0.833333333333325,1
0.43225276455592415,0.5447992102926296,0.9130289140615689,0.4491949946205869,0.40913748186956,0.833333333333325,1
0.46789713311840664,0.5331728324102726,0.9053633500488338,0.5226007793385019,0.40737711284801836,0.855555555555533,1
0.45652888612382425,0.5423655635530593,0.9083481825976867,0.5461488593444637,0.40767045671736835,0.855555555555533,1
0.4849382266944496,0.5366505839043915,0.8974242645890346,0.46244095790963424,0.40913748186956,0.8555555555555365,1
0.45565972815692,0.5396675373308902,0.9073009982238434,0.4841367520135855,0.40991988509054766,0.8555555555555365,1
0.5143427480143874,0.4854217862379026,0.9097873381348158,0.4919418310350962,0.40991988509054755,0.8555555555555294,1
0.3408980661636966,0.4945193326175128,0.8494519830423737,0.5178429640291978,0.410506649280608,0.8555555555555294,1
0.399024719996882,0.39454978272905583,0.8890011084148862,0.5382876703315538,0.40542110479554927,0.8555555555555436,1
0.5602545141548632,0.21598415564310863,0.8445675475760905,0.505203622482307,0.4088441380002098,0.8555555555555436,1
0.47930937488044384,0.2379818181680719,0.8052200232041189,0.5114862325051195,0.41021330541125756,0.8444444444444485,1
0.561025185242507,0.2826255455258827,0.804220680177937,0.407094808456295,0.40796387703807846,0.844444444444445,1
0.5068365497451501,0.25005135207865725,0.8089433197880425,0.6181370644151934,0.40757275187894526,0.8444444444444521,1
0.5176462901739425,0.26532539987759024,0.8033727870113763,0.5411707414174356,0.4129517166847142,0.8444444444444521,1
0.4998130907058959,0.24726057785332622,0.8062193198867507,0.3604127259687926,0.40982210380076434,0.833333333333325,1
0.5028672737059494,0.26136795191895357,0.8012123117429037,0.6739796147867423,0.40903970057977657,0.833333333333325,1
0.5011444217301813,0.2476077709018566,0.8069133512697251,0.8111866169742754,0.40991988509054755,0.8333333333333286,1
0.5115368657629568,0.260966887964931,0.8051618427659544,0.6195389191756855,0.40757275187894537,0.8333333333333286,1
0.4945074476987541,0.2553263959903914,0.8107248429371557,0.30604828795228556,0.40727925510687435,0.8444444444444308,1
0.5058712876957938,0.26465218140206254,0.8085982311477153,0.3503692657331718,0.4063012893063197,0.8444444444444308,1
0.5017564146062006,0.2571432389936207,0.8119221809648123,0.41939027437698206,0.40542110479554916,0.8444444444444343,1
0.5083796115238028,0.26383075222555813,0.8086980794941148,0.3944334717930629,0.40405193738450085,0.8444444444444343,1
0.5059564771505807,0.25776311023446374,0.8117518514240277,0.419068628240134,0.40512768447483904,0.8333333333333321,1
0.509036067353013,0.26346981211456527,0.8088723576210683,0.259478886104136,0.4056166673751157,0.8333333333333321,1
0.5073632964335056,0.2571178071524629,0.8115790214438408,0.4982946689657332,0.4049320454439116,0.8333333333333286,1
0.5080856533813819,0.26512092990573316,0.8090537033952994,0.6933246316787189,0.4046387015745613,0.8333333333333286,1
0.5033868660511672,0.2613146426484719,0.8113478498319379,0.582433878024036,0.40454084383341793,0.8444444444444414,1
0.5091786477000106,0.26886821311517406,0.8099172476929624,0.548868159561411,0.4042474235127076,0.8444444444444414,1
0.5076525477317941,0.262519958112692,0.8116788267225874,0.5919151346012175,0.40336731545329707,0.8444444444444379,1
0.5105128631784068,0.2698930905223026,0.8090725814874784,0.5273638855187702,0.40248705449116584,0.8444444444444379,1
0.510466505321189,0.26377927247715033,0.811368440290236,0.5253454641117583,0.4023892732013824,0.8666666666666565,1
0.5054912535289612,0.26565092890502046,0.8092431183501293,0.5712854202003613,0.40326945771215295,0.8666666666666565,1
0.5036430123711604,0.25887219680044715,0.8112285407179214,0.5225066088210727,0.40248705449116595,0.86666666666666,1
0.5040710703421418,0.2628104473573276,0.809373883162208,0.5038167131578817,0.4017046512701784,0.86666666666666,1
0.5036723138598564,0.25791876165455757,0.8110974044473573,0.5530820949924242,0.4017046512701784,0.8333333333333215,1
0.5040016427954364,0.2624423384766447,0.8095127779617833,0.5205929083325463,0.40160686998039485,0.8333333333333215,1
0.5037469882960026,0.2582206108800709,0.8109419898713179,0.4981861384737029,0.40141123094946796,0.8333333333333321,1
0.5039222412195324,0.2620373767141142,0.8096983433984388,0.5395501625065913,0.40141123094946785,0.8333333333333321,1
0.5039852553770426,0.26019325597867987,0.8107005054168679,0.518075600146622,0.4019980715908881,0.8444444444444308,1
0.5052810727771699,0.2635128294930287,0.8100555040765888,0.4935083920150639,0.4008244667594075,0.8444444444444308,1
0.5022634655300547,0.260105834581035,0.8100379615072566,0.5263361501843521,0.3999442822486363,0.8444444444444379,1
0.5083985066777581,0.2643858125532303,0.812296644297793,0.5006019881899958,0.40053104643869697,0.8444444444444379,1
0.5002435101016515,0.26391663452567454,0.8166672069401315,0.49778135122915523,0.39994428224863643,0.8222222222222051,1
0.4548690954939486,0.2652786165879422,0.8264833992526787,0.5225997673391489,0.4003354838591302,0.8222222222222051,1
0.43140644864920535,0.27260777107529705,0.8363658620867502,0.49525778456682407,0.40131352611104465,0.8222222222222122,1
0.3541562351164884,0.2765570485001848,0.8400558259125216,0.5068055160472899,0.40082446675940675,0.8222222222222122,1
0.42292980475415337,0.2370480300508671,0.844865775511872,0.5449890799878948,0.40190029030110497,0.8333333333333179,1
0.5434416921325901,0.27083671395955244,0.800654997876745,0.521763745925913,0.40209585288067207,0.8333333333333179,1
0.6415112225555762,0.2906170962164411,0.7532905660830449,0.5296144378495504,0.3982816180655173,0.8333333333333179,1
0.5473099306099565,0.2909897243853973,0.8098142748181454,0.522153875016835,0.396032189692338,0.8333333333333179,1
0.44293888133409154,0.2928618337720506,0.8331602078492881,0.5299912752243282,0.3958366271127718,0.8222222222222229,1
0.5068566276785268,0.28928396651719823,0.8320222444831886,0.41761116192757397,0.3988684587069383,0.8222222222222229,1
0.5025262451887149,0.2754301918274392,0.8195575427775217,0.3939523403325199,0.3982816180655173,0.8222222222222193,1
0.5401960960524552,0.2774011582548249,0.8075745345575676,0.40102508479746457,0.3986728196760112,0.8222222222222193,1
0.5559792983985752,0.27078672226557615,0.796420476782163,0.5799742006498394,0.40043326514891353,0.8333333333333357,1
0.5530288126983567,0.27186223186775005,0.7949346227291365,0.5753176365804331,0.40131352611104454,0.8333333333333357,1
0.5085800651146238,0.26613043340969167,0.8144483195094974,0.8460067034332217,0.39916187902764855,0.8333333333333321,1
0.52238947657266,0.2729279476706234,0.8054467960738145,0.4827310168025019,0.39779263516524044,0.8333333333333321,1
0.5180581419138846,0.2537347178197445,0.8040419349312549,0.3356902464925643,0.39789041645502354,0.8333333333333108,1
0.5254940904589009,0.24447554848846414,0.7890553554438097,0.38468149837265364,0.39828161806551765,0.8333333333333108,1
0.5095254386494439,0.24801225464768445,0.8007829001069802,0.3970138458958934,0.3985750383862279,0.8333333333333179,1
0.6252041905007533,0.2701387120270391,0.7236453686987729,0.5706855648018768,0.3969124506544698,0.8333333333333179,1
0.8060099814242014,0.31173544201710757,0.4720320831889254,0.5800682733271264,0.39485866131221736,0.8444444444444166,1
0.7842793648037281,0.30040821116394806,0.40650915388952763,0.5946962170849031,0.3907510061763523,0.8444444444444166,1
0.7854244793325207,0.2838694884747551,0.39820492019668446,0.600486460144564,0.3900663842451486,0.8444444444444308,1
0.7689524576219233,0.29067242861193543,0.37578838827712224,0.49445833761560193,0.38947962005508785,0.8444444444444308,1
0.7684348535390728,0.27550056237695225,0.36022384817748687,0.4100597275436415,0.39016424198629207,0.8111111111110993,1
0.7580655741554564,0.28733326507124496,0.34183634371833255,0.5042973518779006,0.39016424198629207,0.8111111111110958,1
0.8066285154714796,0.2791065781170784,0.38781019718254495,0.46209793943127747,0.3607262634581154,0.8111111111111029,1
0.7984637980670337,0.34873265193882763,0.47474171924662684,0.5157882102470862,0.36825687534728013,0.8111111111111029,1
0.6910087938283298,0.35218313597715667,0.6738665359997292,0.5481066799398847,0.387230191681909,0.8333333333333286,1
0.5911260770442641,0.24545454866189942,0.8333424327365132,0.5269406321546805,0.3914356281075567,0.8333333333333286,1
0.5182868737825701,0.2742264221372475,0.795301007569893,0.5626299275321193,0.40053104643869686,0.8333333333333321,1
0.5527534642330186,0.2710463407968561,0.804106832678488,0.5660983485128579,0.3979881977448071,0.8333333333333321,1
0.547678453929695,0.2709659685416604,0.7918789444251585,0.6160141042046584,0.3968145929133261,0.8222222222222086,1
0.5488319371219954,0.2679658580821296,0.7979799721635488,0.5281512096638566,0.3971080896853967,0.8222222222222086,1
0.5444164742528633,0.26838656725402527,0.7933757120201897,0.2817589095926398,0.3931959971290985,0.8222222222222122,1
0.5448766610226801,0.26529752713444343,0.797131846019872,0.4413932311536625,0.39466302228129013,0.8222222222222122,1
0.5428997267290316,0.26391346575522856,0.7939221124913429,0.4958146504444133,0.3946630222812906,0.8222222222222122,1
0.5477486349210101,0.26844018045972606,0.7967560673943803,0.5445243234160848,0.39466302228129035,0.8222222222222122,1
0.5435337282484181,0.2658927487587368,0.7941905911239712,0.488675678224055,0.39456516454014656,0.8222222222222086,1
0.5502661271429778,0.2688618434107519,0.7965600344067179,0.5239722930139422,0.39456516454014634,0.8222222222222086,1
0.5494361502007667,0.2666855469085073,0.7943350607006379,0.5174360225113523,0.39427182067079614,0.8444444444444379,1
0.5507829771668786,0.2688851187968612,0.7964538333849964,0.5110124678150603,0.3936850564807357,0.8444444444444379,1
0.5509257000984435,0.2666081616728103,0.7944118610513122,0.5243994841075441,0.3929026532597484,0.8444444444444343,1
0.5532054466644359,0.26898886170840774,0.7964002863214064,0.507584581216584,0.3931959971290985,0.8444444444444343,1
0.5506177558403492,0.26647755909723037,0.7944465759791761,0.4984919809912457,0.3932938548702425,0.8222222222222086,1
0.5546324553985191,0.2691663863006598,0.7963810739829434,0.5344882058425984,0.39221803132854416,0.8222222222222086,1
0.5514887552875298,0.266173058857747,0.7944530018550351,0.4814345578517229,0.39358719873959247,0.8222222222222157,1
0.5544553930595603,0.27033558203013897,0.7963848221834131,0.5351505213471374,0.3933916361600255,0.8222222222222157,1
0.5516961460813106,0.26754870912522566,0.7944425158765529,0.5121868929866192,0.39329385487024215,0.8222222222222051,1
0.5530201799796072,0.26868170119260626,0.7963948938799309,0.5008707833643614,0.3939784003500859,0.8222222222222051,1
0.546362380228186,0.2667359131802307,0.7944600299979357,0.5359952949158144,0.39348941744980903,0.8222222222222157,1
0.5491140811455304,0.2682468192885051,0.7956012361062212,0.5290749958290974,0.39309821583931503,0.8222222222222157,1
0.5455094453006579,0.26606672030042444,0.7941614610736237,0.4751752114830674,0.39221803132854394,0.8333333333333215,1
0.5540589118510965,0.269403369510951,0.7966465692574938,0.5254311778093198,0.39241359390811115,0.8333333333333179,1
0.5503450637155599,0.2660868619128923,0.7941585201180725,0.5344939217507523,0.3922180313285447,0.8333333333333286,1
0.5531673286782395,0.26953136940307,0.7967217632586232,0.502823338089042,0.3923158126183275,0.8333333333333286,1
0.5520896220427725,0.26591052301538565,0.7940533812512797,0.48415919729501694,0.3918268297180507,0.8222222222222086,1
0.5540904062554994,0.2697449830141019,0.7968499990509998,0.5396404706390477,0.3927070142288217,0.8222222222222086,1
0.5518621007209445,0.2656566887265576,0.793902520936516,0.5087278696941006,0.3911422077868464,0.8222222222222157,1
0.5541637877344434,0.2700479939769362,0.7970255069789638,0.4967460531810727,0.3923158126183277,0.8222222222222157,1
0.5519107153420355,0.26529018308576763,0.7936985632613784,0.5265098162648495,0.3920223922976174,0.8333333333333179,1
0.5537132688994516,0.2704986958709712,0.7972636903988379,0.5167237973418621,0.3921201735874005,0.8333333333333179,1
0.5494675126249194,0.2647334408114781,0.7934175033521933,0.47989867784579404,0.3917289719769068,0.8333333333333215,1
0.5496614986515429,0.2709083556544511,0.7976014752642666,0.5353852499065095,0.3918268297180506,0.8333333333333215,1
0.5428504501319155,0.2611166500810732,0.7929967621845176,0.5113176979398739,0.39065322488656906,0.8222222222222193,1
0.5469759871868455,0.2645082996898582,0.7981754394454363,0.49404058091457786,0.3907510061763523,0.8222222222222193,1
0.5399494738257752,0.2529208551296935,0.7885101858451684,0.5246083470630458,0.39065322488656906,0.8222222222222157,1
0.5382257796670027,0.2613466733959662,0.7918647142922852,0.5165017807496871,0.3899686029553645,0.8222222222222157,1
0.5296183610295503,0.23903054582938899,0.7844644530625418,0.48666569045247027,0.39035980456585884,0.8222222222222157,1
0.5258495716412845,0.2554474003321404,0.7859486615636224,0.5328905273854784,0.3897730403757982,0.8222222222222157,1
0.5330196469488293,0.15010462707212513,0.7769992928463857,0.49271471745731377,0.39045758585564216,0.8222222222222122,1
0.5870250919972746,0.2315572310922434,0.875380756110882,0.5046177674014174,0.3903598045658587,0.8222222222222122,1
0.6889813162671026,0.7160911598081984,0.5641417333839622,0.5171729592642308,0.39075100617635217,0.8222222222222122,1
0.7936814461034483,0.6871069586160381,0.3301705174334375,0.4911799122809583,0.38781695587196874,0.8222222222222122,1
0.6923149550955321,0.7854219622873431,0.2755070073984141,0.5203928049160415,0.3842962178288857,0.8222222222222157,1
0.6895063212700029,0.7897326528827606,0.21975015131288084,0.5840914353000355,0.38214457074548935,0.8222222222222157,1
0.6650078269637097,0.796255300742693,0.23740027442432451,0.51782792442998,0.38292697396647735,0.8111111111110922,1
0.6658523566614158,0.8120675858656345,0.23932374199160059,0.4811780999265125,0.3827313349355501,0.8111111111110922,1
0.6665198082204894,0.8114613781235274,0.2360263653625277,0.4499875611113151,0.3813621675245018,0.8111111111111029,1
0.6824498343824996,0.7733729191009107,0.24046109092326812,0.48307741756896755,0.3804819830137305,0.8111111111111029,1
0.6891621322105828,0.7904714517781637,0.24312435426367407,0.584444112528848,0.38097096591400814,0.833333333333325,1
0.7918338053909245,0.670085290649671,0.29419905663730916,0.5112324496083304,0.38302475525626045,0.8333333333333215,1
0.8047425586361213,0.6009016096641544,0.4341646151698491,0.494564943273544,0.3832203942871871,0.8333333333333286,1
0.5986730238419824,0.5746012614236933,0.7840852428110261,0.5366158939077382,0.380775326883081,0.8333333333333286,1
0.49974924362896855,0.1647663603409925,0.9015209573189187,0.5099353084523556,0.39026194682471516,0.8111111111110993,1
0.4886571913250386,0.2160441701770368,0.7702282424640401,0.6278054286391445,0.4042474235127076,0.8111111111110993,1
0.5604969519380436,0.26341279570494824,0.8119979143824947,0.5297784507836105,0.4026826935220926,0.8111111111111065,1
0.5241577183519384,0.2678266829854895,0.7896694345427211,0.475461277479301,0.4035628780328637,0.8111111111111065,1
0.5439542289625409,0.2653487679566843,0.8081781482592378,0.4586163463916492,0.4049320454439117,0.8222222222222157,1
0.5269695272508341,0.26552567928368365,0.7948357593599631,0.36407212310017334,0.4072792551068738,0.8222222222222157,1
0.5411508422403588,0.26765775100856365,0.8076106399278238,0.5198613685221197,0.41011552412147445,0.8222222222222157,1
0.5334809936467374,0.268474687419306,0.7975382169042046,0.5276341805240068,0.41265829636400375,0.8222222222222157,1
0.5386847089102645,0.2650457697307449,0.8039602596490223,0.532562358611371,0.4142231028059792,0.8333333333333286,1
0.5425577893017005,0.27044904098619305,0.7918206915891106,0.5249259785247026,0.41549448892724383,0.8333333333333286,1
0.5581788855388421,0.268720284514294,0.7980030709414121,0.5071483429306967,0.41588576698909785,0.8333333333333286,1
0.543429544402164,0.2553620449522006,0.7837614314389936,0.5241310908182564,0.41490772473718296,0.8333333333333286,1
0.5256682657055141,0.24138392764001937,0.7864856781113724,0.5134352658824342,0.4139296824852686,0.8222222222222086,1
0.5204680044766639,0.2402093318028789,0.780837037207287,0.5059506157598807,0.4109957086322452,0.8222222222222086,1
0.5408928131527154,0.2476371956501684,0.7865976203385665,0.5232221322858499,0.41040886799082443,0.8222222222222051,1
0.53444942221088,0.24989526569498527,0.7810524135821905,0.49433611351820517,0.4079638770380788,0.8222222222222051,1
0.541472146748947,0.2499939875615061,0.7866773310384225,0.5095378166175282,0.4074748941378017,0.8444444444444308,1
0.5328084287562442,0.24727426536293223,0.783528600464501,0.5086402358763755,0.4058123064060428,0.8444444444444308,1
0.5384778716451897,0.24981628219525231,0.7869243258702431,0.5085165544677597,0.4044430625436347,0.8444444444444379,1
0.534294656490226,0.24772372408055154,0.7841495865448771,0.5288190131036865,0.40317167642237006,0.8444444444444379,1
0.5398973701560403,0.24969316183055684,0.7879612756326306,0.5009502981629044,0.40268269352209296,0.822222222222198,1
0.5352570275804781,0.2475877358577137,0.7828641731207705,0.5065963334944601,0.4019002903011053,0.822222222222198,1
0.5380137637860637,0.24752709515781612,0.7869382392067036,0.5228795430009354,0.4014112309494684,0.8222222222222051,1
0.5362480715704853,0.24758405698679647,0.7833823693050291,0.49769519144185365,0.4007266090182634,0.8222222222222051,1
0.5402878669516635,0.24920378470355287,0.7845384977316556,0.5208275766341784,0.3995530041867825,0.8222222222222015,1
0.5372140380805948,0.2499842852153868,0.7836781135069211,0.5169963585501907,0.39994428224863643,0.8222222222222015,1
0.5377325356286518,0.24817276631373714,0.7834918317281718,0.4975473033779974,0.39877060096579486,0.8222222222222086,1
0.5358070874507997,0.24792725080453037,0.7819123106272825,0.5279843655496362,0.39877060096579486,0.8222222222222086,1
0.5397410579521742,0.24791083930238278,0.7823572452970645,0.5056376604158546,0.3979881977448072,0.8111111111110993,1
0.5352948995995909,0.24486038890344036,0.7822979624837112,0.5022706472478793,0.39877060096579464,0.8111111111110993,1
0.5392006234127705,0.2477337967177557,0.7841416017127945,0.5316964425106175,0.3940761816398691,0.8111111111111065,1
0.5360543974604037,0.24745285210004692,0.7821825519500478,0.49865480993505407,0.3963256864644089,0.8111111111111065,1
0.5379676374612801,0.24529612387674193,0.7804593068048458,0.5018501535406142,0.3970102319442531,0.8111111111110922,1
0.5364879257890333,0.24514621910792278,0.7818936645680961,0.5374284595991752,0.3973035758136032,0.8111111111110922,1
0.5375389256437433,0.24532445394576158,0.7814218187423516,0.4946354772523862,0.39661903033375956,0.8111111111110958,1
0.5346577911887803,0.24496207988211088,0.7799290346772287,0.5084970658269562,0.3956410645332049,0.8111111111110958,1
0.5353089220625656,0.2442577399476188,0.7811634311337023,0.5352801209585791,0.39603218969233844,0.8111111111110922,1
0.5326056023547558,0.2410051624919678,0.7799793680039342,0.4930128085427482,0.3952497864713509,0.8111111111110922,1
0.5329036321652446,0.24196523484901794,0.7811425431622513,0.5068514274957969,0.39534764421249424,0.8111111111110887,1
0.5342434730287056,0.24326802683129972,0.7799935362117998,0.5298780514256526,0.3944673832503631,0.8111111111110887,1
0.5368198267437354,0.2455980814462897,0.7811296556919112,0.4877971432588986,0.3949564426020006,0.8111111111110958,1
0.5355108476753264,0.24413889639188263,0.780006695269194,0.5187179621965636,0.39407618163986957,0.8111111111110958,1
0.5375646938608282,0.24520265165269028,0.7811158121558069,0.5183778911807195,0.39417403938101325,0.8111111111110922,1
0.5357629802941892,0.2451806392332853,0.7800212624696579,0.48862960575336367,0.3937828377705195,0.8111111111110922,1
0.5374315938460981,0.24526161167752092,0.7811006037615505,0.5392502228875657,0.39436960196058,0.8111111111110993,1
0.5358557874356435,0.24516582235645318,0.7800369989376807,0.5067778992931492,0.39417403938101303,0.8111111111110993,1
0.5373575746791399,0.24527044126426722,0.7810844487288482,0.49751134409524944,0.3925113751978945,0.8111111111111029,1
0.5359201789653006,0.2451560291583591,0.7800534796638762,0.5447111756341249,0.39329385487024227,0.8111111111111029,1
0.5372979388617518,0.24528526898639902,0.7810677132387094,0.48752389910526245,0.3932938548702425,0.7944444444444301,1
0.5359765689733145,0.24512780649047766,0.7800704243791262,0.5113072928525243,0.3938806190603027,0.7944444444444301,1
0.538290407433449,0.24630869021202256,0.7810505744753162,0.5430130532653371,0.39251137519789436,0.7944444444444372,1
0.5383658758241769,0.2461229404145477,0.7800877822136616,0.4846090883684896,0.39260923293903816,0.7944444444444372,1
0.5379301285844131,0.24507880423763545,0.7810329120558992,0.5080359617343086,0.39182682971805016,0.8111111111111136,1
0.5365610400079586,0.24562963703779717,0.7801059381218436,0.5467802529286345,0.3929026532597487,0.8111111111111065,1
0.5381091076577282,0.2463057988655507,0.7810138744231893,0.49652828611945693,0.3919246110078336,0.8111111111111171,1
0.5373176310991343,0.2456533112985626,0.7801266806706462,0.48882802351956767,0.3925113751978939,0.8111111111111171,1
0.5377717574440916,0.24545600697123549,0.7809895035221082,0.5386795811982181,0.39202239229761704,0.8111111111111065,1
0.5369175998805295,0.24730142674439992,0.7801600216914357,0.523108920353036,0.39084878746613605,0.8111111111111065,1
0.5383787262125187,0.24582107834990335,0.7809269391645681,0.4809690089557294,0.3915334093973398,0.8111111111111136,1
0.5368382125331496,0.24502237857210907,0.7804146427381551,0.5146705002010108,0.39065322488656906,0.8111111111111136,1
0.5391321914530477,0.245449919062751,0.7821414792192452,0.5335837759778094,0.39084878746613594,0.7944444444444372,1
0.5362819632137861,0.24601284245399307,0.7806890669624162,0.4960597552452581,0.39016424198629185,0.7944444444444372,1
0.536994805229922,0.24529823520221494,0.7808798037411087,0.49442111591335325,0.39055544359678585,0.7944444444444407,1
0.5363291950133386,0.24470807427639207,0.7802066038005164,0.5312111768627724,0.3896751826346544,0.7944444444444407,1
0.5365863357417374,0.24450358293391278,0.7809325276724617,0.5075322913610876,0.38996860295536495,0.8111111111110993,1
0.5353717348750466,0.2456276992542355,0.7801959572112194,0.4931112318522019,0.3907510061763523,0.8111111111110993,1
0.5339718210954072,0.24237279472511297,0.7809319040958811,0.5225615766064201,0.3903598045658584,0.8111111111110993,1
0.528450774309068,0.24112316070337902,0.7802005464318205,0.5139085489800047,0.3897730403757983,0.8111111111110993,1
0.5316627526790062,0.24276064915374745,0.7809259363713561,0.49154225038226856,0.3889905607034504,0.8111111111111065,1
0.5340503235454012,0.2449168870277862,0.7802066928326796,0.5204470395255264,0.38957740134487107,0.8111111111111065,1
0.5373012973187016,0.24535908818051594,0.7809203300085492,0.5070274328474755,0.3895774013448712,0.8111111111111029,1
0.5358853433873927,0.24508663228785244,0.7802111916339198,0.4952706122108145,0.3893817623139443,0.8111111111111029,1
0.5373568906879032,0.24534945848005313,0.7809175232027934,0.5263705253203409,0.38938176231394406,0.8222222222222051,1
0.535901696193076,0.2450724927360609,0.7802115631169597,0.5024515386141883,0.38996860295536495,0.8222222222222051,1
0.537330211734691,0.24537351556610199,0.7809206944584385,0.5036643587299988,0.3885993590929565,0.8222222222222122,1
0.5359424879199082,0.24504116034552031,0.7802029512516446,0.5353179490990598,0.38859935909295673,0.8222222222222122,1
0.5372440941306706,0.2454124000321075,0.7809385883862875,0.49108349510214055,0.38869721683410063,0.7833333333333066,1
0.5362853392747124,0.24499232293701184,0.7801656943527178,0.5116426376142357,0.38928398102416106,0.7833333333333066,1
0.5382657913681879,0.24547810258678765,0.781041200547907,0.5316083168811763,0.38830601522360675,0.7833333333333208,1
0.5355414693738796,0.24488207257703792,0.7811070189455062,0.4873263390213277,0.38752353555125874,0.7833333333333208,1
0.5376357790710328,0.24639119236850437,0.7808556405784763,0.5152781580958896,0.38791481361311253,0.8111111111111029,1
0.5367710653618307,0.24505722532339774,0.7801605917266682,0.537766413891559,0.38732797297169175,0.8111111111110993,1
0.5401662132338478,0.2454767884009475,0.781259390724254,0.48709224659891054,0.387230191681909,0.8111111111111136,1
0.5372452259502013,0.24490553923894898,0.7810181085083967,0.5088608066799766,0.38732797297169175,0.8111111111111136,1
0.5378323015672831,0.2455320747885893,0.7806596240900375,0.5399831862498361,0.38713233394076496,0.7944444444444301,1
0.5381283500265978,0.24548336321818964,0.7803607663405328,0.5040154383820504,0.3864477884609211,0.7944444444444301,1
0.5408486915298691,0.24618748760492348,0.7808440016325031,0.4872262447224142,0.3870346291023419,0.7944444444444336,1
0.5383159436510625,0.24432355757889518,0.7801854545595441,0.5325584119253735,0.38723019168190864,0.7944444444444336,1
0.538242937825816,0.24780543571603036,0.781250736696568,0.5215360414024249,0.38791481361311253,0.8111111111110887,1
0.5393315589320791,0.24538069057019185,0.7809955737942065,0.48825299722453913,0.3879148136131124,0.8111111111110887,1
0.5419352015094372,0.246545101871877,0.7807328214073418,0.5122646041392831,0.38732797297169175,0.8111111111110958,1
0.53731872627816,0.24322661197741158,0.7802045011586215,0.5312103935537656,0.3882081574824625,0.8111111111110958,1
0.5413994016131558,0.24982419229111552,0.7811144996499588,0.49425490476417633,0.38967518263465495,0.7944444444444514,1
0.5385988006348544,0.23622588603985378,0.782015348855314,0.5085185248980574,0.3895774013448712,0.7944444444444514,1
0.50860885583105,0.23134100452707873,0.7793310300251985,0.5258468938101333,0.39153340939734016,0.7944444444444478,1
0.5038259009338467,0.2732300761516472,0.8089127246695161,0.49931971677666726,0.39251137519789436,0.7944444444444478,1
0.5253976181172432,0.2604265099551442,0.8043462505781882,0.5040578752860857,0.39358719873959214,0.7944444444444478,1
0.5385199329133352,0.27581192064439636,0.8047519244446766,0.5305089049193152,0.39710808968539635,0.7944444444444478,1
0.5278319622313791,0.26593052131289174,0.8021018717871051,0.5033503993945173,0.3995530041867825,0.7944444444444443,1
0.5309968621781977,0.2702151256245203,0.8045634278588139,0.5299750196601947,0.401117887080118,0.7944444444444443,1
0.527790250772864,0.2637702259125551,0.8031801886264387,0.5094923106492204,0.401313526111045,0.7944444444444301,1
0.5227962247150676,0.2663622156367016,0.8049022078617162,0.4748933818892523,0.40092224804919063,0.7944444444444301,1
0.5234800203846791,0.26264868123597446,0.8030717239098737,0.5178753643490227,0.4010200293389742,0.7944444444444336,1
0.5137615667147155,0.2603369727346085,0.8040569540424081,0.5101012900493198,0.40043326514891386,0.7944444444444336,1
0.5140954226666636,0.2568227957373452,0.8034162358512427,0.4947201684594854,0.39837947580666133,0.7944444444444301,1
0.51695842683585,0.26061323709005996,0.8020983703358152,0.5265697957449358,0.3978904164550239,0.7944444444444301,1
0.512681831843449,0.25350140789790954,0.803448332866552,0.4930211648519328,0.3965211725926159,0.7944444444444407,1
0.516147020963461,0.2604648048051527,0.8042144713900312,0.5143496668262889,0.39573884582298813,0.7944444444444407,1
0.5093333332165046,0.2512040153477782,0.8026668597888011,0.5173413102770358,0.39495644260200025,0.7833333333333243,1
0.4914152377847319,0.2476956075184974,0.8033802297131103,0.49626946472769906,0.39436960196058,0.7833333333333208,1
0.5018603058970537,0.23873946220297732,0.7953853634406595,0.5278578329713717,0.38987082166558173,0.7833333333333279,1
0.5257323499690989,0.274901152497506,0.8143537696702889,0.503984667451683,0.39104442649706295,0.7833333333333279,1
0.5214294377790536,0.28217522727670774,0.8095133051344512,0.5074884778275859,0.39065322488656906,0.8111111111110887,1
0.5712926623610068,0.3041646828353443,0.8000289616651113,0.5245327215234886,0.39084878746613605,0.8111111111110887,1
0.6128572148103884,0.27554530880255035,0.7915010662862447,0.4762712281320128,0.3902619468247148,0.8111111111110958,1
0.5822835222931635,0.3428850007713252,0.8110647618518604,0.5409046876822566,0.39016424198629174,0.8111111111110958,1
0.618848388154249,0.4199985263978502,0.8007024912998488,0.5591598158352303,0.3907510061763525,0.794444444444423,1
0.8523661826532325,0.38972297710346054,0.5145104504551027,0.49556677174392605,0.3904575858556423,0.794444444444423,1
0.7646670362335698,0.4143145678797693,0.19890639278932637,0.5452524547024208,0.38928398102416084,0.7944444444444265,1
0.7758475307518747,0.36016136211147676,0.2647921155584524,0.5485930957237074,0.3884037965133895,0.7944444444444265,1
0.7583760999137135,0.38289388502721705,0.2414557958634482,0.5363285335725969,0.3884037965133901,0.7944444444444372,1
0.7580661917412157,0.3218503279606783,0.29054054987351396,0.46628282766819307,0.3884037965133895,0.7944444444444372,1
0.8024622816576499,0.3561027952138816,0.320835855706899,0.2987958407065585,0.38635000717113743,0.7944444444444336,1
0.7938102667969567,0.3474383162591972,0.33641858611444236,0.5494116907261639,0.3860565868504271,0.7944444444444336,1
0.8005681506764677,0.34320733585616625,0.3457934778459596,0.5049040055510406,0.3867412087816312,0.7944444444444514,1
0.7933409715052683,0.34526610964261384,0.34144466061457396,0.4715029562807381,0.3868389900714144,0.7944444444444514,1
0.8041274976320795,0.35809831707532314,0.3305429966070259,0.5519359738074245,0.3861543681402102,0.7944444444444478,1
0.795345416040768,0.3441550661892179,0.3388614481489876,0.5389434149893619,0.386252149429994,0.7944444444444478,1
0.7955708912418047,0.33416650359552325,0.33888538596611306,0.47183588130763476,0.38517640233965644,0.7944444444444301,1
0.7913968238642453,0.3317292407922062,0.3457009844077273,0.6074280541024014,0.3860565868504273,0.7944444444444301,1
0.7865174891125293,0.31925769324023545,0.34748600059465823,0.5209273211510884,0.38507854459851254,0.7944444444444336,1
0.7819559301297158,0.31387887412250215,0.3565966765703621,0.549932443540876,0.38527418362943977,0.7944444444444336,1
0.7839427067566593,0.31383565957920523,0.34977408818805883,0.5411024195653683,0.3853719649192232,0.794444444444423,1
0.7886022509753788,0.33107925491166246,0.3484479789110779,0.4760063986559998,0.38635000717113754,0.794444444444423,1
0.8007875084813361,0.3573913302784658,0.31704496522019293,0.5531111069156011,0.38468741943937934,0.7944444444444301,1
0.7948132716020493,0.3429232812539316,0.3665232125311084,0.48555870676228546,0.3854697462090063,0.7944444444444301,1
0.7960189490040832,0.33871268314229697,0.36598600823934085,0.5178139852942221,0.38458956169823555,0.8111111111111029,1
0.7860593308957757,0.31441835318897615,0.35264752770857294,0.5367029775025901,0.3885015778031733,0.8111111111110993,1
0.7814024324814697,0.2942162819938673,0.4080561859061151,0.482920940440574,0.3848829820189462,0.8111111111111136,1
0.7772584634657308,0.28862227851370204,0.39424869068727486,0.5175301524761277,0.384882982018946,0.8111111111111136,1
0.7835348736536798,0.3040868692466547,0.3881450633944245,0.4067799227008906,0.3853719649192232,0.7833333333333172,1
0.7913917900282499,0.3140990316411958,0.36392706677048126,0.6126359037029723,0.38468741943937934,0.7833333333333172,1
0.7863565628495964,0.32316964020894223,0.3600335175877487,0.5668083879541125,0.38566538523993343,0.7833333333333243,1
0.7699572072935843,0.3157210943588106,0.3014663380414269,0.4641112606207005,0.38429621782888523,0.7833333333333243,1
0.7479376292069305,0.3206823523607888,0.2344073719652347,0.5312798306851471,0.38811037619267963,0.7944444444444336,1
0.7613025608343399,0.3163982968180923,0.2979569322832795,0.49015119743385827,0.3893817623139444,0.7944444444444336,1
0.7911711393740672,0.3255188875994933,0.3751600917404897,0.5238244795292452,0.3886972168341001,0.7944444444444372,1
0.7786246938174062,0.34357709879179865,0.2884621603285858,0.5898381638596175,0.38947962005508774,0.7944444444444372,1
0.7855178122011695,0.3361976864701559,0.30764297878727476,0.462725538241407,0.3906532248865694,0.7944444444444372,1
0.8054506788262938,0.344614622671345,0.3715458474407243,0.545319851574134,0.38987082166558173,0.7944444444444372,1
0.8054581564755343,0.33789280840718705,0.4057972858655162,0.319653718003619,0.3889905607034504,0.7944444444444336,1
0.8099336238087964,0.33461399033037054,0.40965452460339846,0.4426364319817701,0.3921201735874007,0.7944444444444336,1
0.8095947336577698,0.33707305133052734,0.4282300481859083,0.6313178920071126,0.39045758585564183,0.7944444444444443,1
0.79647340679427,0.3257221273148635,0.48571633106773343,0.4827601986318932,0.3903598045658587,0.7944444444444443,1
0.8209420412651975,0.3363774697438615,0.42963179589620226,0.5599645291917534,0.39221803132854416,0.7944444444444407,1
0.8080275331337117,0.3353586442345088,0.43299536398783206,0.4064923195402335,0.3928047955186046,0.7944444444444407,1
0.8085223764445459,0.3261869376374753,0.46691305877070116,0.5446982299615887,0.3915334093973404,0.8111111111110993,1
0.808894393952785,0.332081865652625,0.4492997946565503,0.5218787417793369,0.39515200518156723,0.8111111111110993,1
0.8119827681507266,0.33402027678713997,0.45094685805094437,0.5224355810839095,0.393880619060303,0.8111111111111065,1
0.7994385611681354,0.3283176671360709,0.4910120793444114,0.5907580030398399,0.39466302228129035,0.8111111111111065,1
0.803438177673303,0.3216791201415592,0.49084698682645184,0.4685093819913375,0.396130047433482,0.7944444444444265,1
0.8080650445835078,0.3278746487112286,0.4497593320218436,0.49270118446259376,0.39691245065446945,0.7944444444444265,1
0.8033271099716612,0.32733790716837474,0.4696254487341652,0.5243234153803513,0.39720579452381977,0.7944444444444372,1
0.796032446964002,0.32147001362694144,0.49643967487463136,0.5256545789978241,0.39642346775419224,0.7944444444444372,1
0.7987147859588691,0.32215545834940323,0.4727297294972042,0.5266764149830828,0.3972057945238191,0.7833333333333208,1
0.8039457918959554,0.3264953316105277,0.45479393675121293,0.47810583566403375,0.397890416455024,0.7833333333333172,1
0.8023106153330931,0.32252978259071863,0.4744682144669691,0.5293757206824784,0.396716811623543,0.7833333333333279,1
0.8027190394198274,0.3268359918095486,0.49533403077988836,0.5575823166587687,0.3974014335547468,0.7833333333333279,1
0.7912294340730825,0.3256349211851086,0.5431150396714849,0.46383050488425787,0.401117887080118,0.7833333333333208,1
0.7927833332770851,0.3201423892890324,0.5368304650007499,0.49745306547810053,0.40258491223230963,0.7833333333333208,1
0.7907321540379124,0.3204146581725348,0.538044820169436,0.527502732170658,0.4032694577121534,0.7833333333333279,1
0.7978667407598735,0.3216477011301381,0.520432409920437,0.5102468681570618,0.3998465009588532,0.7833333333333279,1
0.8004749813421563,0.3235940575248232,0.5153998976106093,0.49388412426252287,0.39368505648073615,0.7833333333333243,1
0.8007479995440767,0.32486563677656916,0.519302500058951,0.49552391030272214,0.39847725709644466,0.7833333333333243,1
0.7900826005347239,0.32370015435973215,0.5324664190807815,0.5556721166264978,0.3995530041867825,0.7833333333333279,1
0.7965314970805183,0.3246834653910648,0.5129300858111449,0.5200993532265096,0.3997486432177094,0.7833333333333279,1
0.8022431067117245,0.32504469860465834,0.5062251016298439,0.45813693926798355,0.39808605548595066,0.7944444444444407,1
0.799997769550441,0.3218285516050532,0.5105065267392775,0.5169341535168155,0.39720579452381977,0.7944444444444407,1
0.7996158326314424,0.32052684339247195,0.49897460213294426,0.55639850178295,0.39652117259261543,0.7944444444444407,1
0.7992700584282328,0.3223158847890667,0.49217532229984845,0.5334724207920958,0.39466302228129024,0.7944444444444407,1
0.8072362984746034,0.32105288925145675,0.4625507629016369,0.47754780599896796,0.3922180313285445,0.8111111111111136,1
0.8038618678408891,0.32138778966022996,0.46507357219108153,0.5151665791539357,0.38771917458218563,0.8111111111111136,1
0.7958977038782113,0.3198922945733443,0.47809718793701883,0.565812209492775,0.39104442649706306,0.8111111111111065,1
0.8031851033678512,0.31917444614000157,0.46009090461988245,0.4873142863659165,0.3928047955186048,0.8111111111111065,1
0.7986813207394606,0.32258387696123597,0.4740205653545002,0.45280111216937097,0.38048198301373093,0.8111111111110993,1
0.8020247583553146,0.3193108646446442,0.4577059944023613,0.49444166263958333,0.39094656875591927,0.8111111111110993,1
0.8037940164431754,0.3225563950282251,0.4542703835916598,0.4988880278772777,0.3900663842451484,0.8111111111111029,1
0.7970786532257299,0.3241086333777333,0.46218470018098246,0.5579033164700239,0.3821445707454896,0.8111111111111029,1
0.8052612415707439,0.3221522833314877,0.4545982074762917,0.5002682639608417,0.3905554435967863,0.794444444444423,1
0.7991076619495648,0.3226433925972101,0.4747291850985921,0.5140276682274683,0.38654556975070464,0.794444444444423,1
0.7992402126898521,0.32146341743201945,0.490404969036279,0.5192392706372748,0.3855676039501499,0.7944444444444301,1
0.7983039602607275,0.32097359800441816,0.48690244480880457,0.5059122142605845,0.38957740134487107,0.7944444444444301,1
0.8011054171067806,0.32196243244809386,0.46080687737212106,0.4860218751405364,0.38517640233965644,0.8111111111110958,1
0.7997351712678109,0.32607571291353726,0.46576626300716645,0.5456716706989966,0.38742583071283565,0.8111111111110922,1
0.8037797293482933,0.3282213538358544,0.46650545755498163,0.5771365487071918,0.38996860295536495,0.8111111111110993,1
0.8037713206484624,0.32793149446769,0.46655231872606956,0.4964500025821821,0.38996860295536484,0.8111111111110993,1
0.8016107504262857,0.32734297945048424,0.47073815117382894,0.5021474757543877,0.39133777036641293,0.7833333333333172,1
0.8047482468115175,0.3262324262539855,0.4303585174465913,0.5357776983831951,0.3914356281075564,0.7833333333333172,1
0.8036089183140773,0.32663354754275553,0.41601261587276905,0.3999228149283455,0.39006638424514817,0.7833333333333243,1
0.7992100707975606,0.324621489757428,0.41678871833131803,0.40405231642937467,0.38899056070345017,0.7833333333333243,1
0.8039344071402011,0.326995965730273,0.4182390420545423,0.6080990156608206,0.3883060152236064,0.7944444444444336,1
0.8016635587362717,0.3235806543039543,0.44698859734520846,0.5232746673593963,0.38908841844459385,0.7944444444444336,1
0.8025308870297208,0.32442023449147755,0.4561631956101792,0.5568075463768486,0.3892839810241606,0.7944444444444372,1
0.8031384003583031,0.3218966302106097,0.45282084074794854,0.47523607628397857,0.3890884184445942,0.7944444444444372,1
0.8018190655272129,0.3241349560196949,0.4495894287353798,0.47803038035854495,0.3890884184445942,0.7944444444444407,1
0.8005915551013867,0.32200677141587997,0.4493425289371569,0.4691414276564527,0.3890884184445944,0.7944444444444407,1
0.8050549102054761,0.326133326563533,0.42928426506038747,0.46938154207720895,0.38889277941366696,0.7944444444444372,1
0.8013818497731942,0.3279553988351751,0.4289097448762031,0.490922837970522,0.38869721683409997,0.7944444444444372,1
0.8019774217253206,0.32796661150377515,0.4331951915375167,0.5765104517458,0.38928398102416095,0.7944444444444301,1
0.8018754786416699,0.32699448913166346,0.42133254217449134,0.5626574636295743,0.38830601522360675,0.7944444444444301,1
0.8026781744975815,0.32729207456106335,0.4078954683273745,0.5523678159439731,0.386936771361198,0.7944444444444301,1
0.8030794435038688,0.3282483349386587,0.42012284665258404,0.5404716551346633,0.386838990071415,0.7944444444444301,1
0.8049304428572277,0.32937521512197077,0.4378124808102049,0.4871379120934128,0.3875235355512584,0.7833333333333137,1
0.8048736325932413,0.3274431486204895,0.4393139042693031,0.49581419819323985,0.38947962005508785,0.7833333333333172,1
0.8067973631645807,0.3281633966126612,0.43098566898215973,0.5598259829768935,0.38742583071283576,0.7833333333333208,1
0.7979308715688429,0.32526425336979575,0.41480991743937434,0.48459839368039925,0.386838990071415,0.7833333333333172,1
0.8028470337536291,0.3251074754089224,0.40519338635011665,0.5399087406668978,0.3862521494299944,0.794444444444423,1
0.799734325862798,0.3264004503867255,0.3976499125870137,0.5166361029845624,0.38713233394076496,0.794444444444423,1
0.7995341894342135,0.3278558228819984,0.40899394797932076,0.46451077331007257,0.38693677136119864,0.7944444444444336,1
0.8018440842294133,0.3234468597626296,0.4084128000922928,0.5723960274130159,0.38693677136119775,0.7944444444444336,1
0.7987362404979853,0.3276083391285707,0.39237338255146986,0.5183844979763355,0.3862521494299941,0.7833333333333243,1
0.7990421431323833,0.32602083214709027,0.375620655730021,0.4784658128375052,0.38527418362943966,0.7833333333333208,1
0.7991740068203022,0.32888922855191316,0.3892596807944915,0.5063403632678768,0.3836115958976811,0.7833333333333279,1
0.7992012123428395,0.32670467144614423,0.3810173972824492,0.4647423909364301,0.3855676039501502,0.7833333333333279,1
0.8005991188587526,0.33226793622872797,0.3781029385274134,0.4989589325620215,0.38527418362944,0.7944444444444336,1
0.7991914074826783,0.33073841509334084,0.38002278667614275,0.5707715152704523,0.38429621782888534,0.7944444444444301,1
0.7994840633620778,0.3280613998070264,0.38513677764328824,0.4865494040524239,0.3844917804084518,0.7944444444444407,1
0.7972487490296724,0.3286884900582353,0.37124212885492125,0.4811890787952859,0.3832203942871871,0.7944444444444407,1
0.8001504994195174,0.33187204587709646,0.3756245662910006,0.5160407130317893,0.38322039428718757,0.7833333333333172,1
0.8006660952214208,0.3300640005234428,0.38708313557300644,0.5006923128563595,0.3827313349355499,0.7833333333333172,1
0.8018614641905895,0.32756123552627936,0.40550465137321956,0.5048573980063572,0.3824379910662,0.7833333333333172,1
0.8074286526969017,0.3315323922388423,0.380837042518105,0.5143680763008843,0.38194893171456223,0.7833333333333172,1
0.8008531269091881,0.33219123350743207,0.4086289338678315,0.5254353221993036,0.3822423520352731,0.8111111111111065,1
0.8004773230818494,0.328763722771403,0.43445251505734167,0.49499802185516595,0.3810687472037918,0.8111111111111065,1
0.804788290591295,0.33597276452792296,0.3943114818131864,0.46657156747617334,0.381655511393852,0.8111111111111029,1
0.8019578567893209,0.3354741260868265,0.36072650191955075,0.4860230506128609,0.38194893171456235,0.8111111111111029,1
0.8008148788888423,0.3364431477825798,0.3750449540281503,0.5850014231416893,0.38155780655542904,0.7833333333333279,1
0.8001191305110635,0.3343448394433086,0.37452868627427494,0.4834604997002316,0.38077532688308113,0.7833333333333279,1
0.7980814384492788,0.33857521594724543,0.34616941886340236,0.5159733439738502,0.38087318462422515,0.7833333333333243,1
0.7949515454891645,0.34222106077774406,0.3358395674559784,0.6122182527779703,0.3810687472037918,0.7833333333333243,1
0.7969604229544491,0.3377189509102098,0.3676688297610423,0.49864791454176666,0.37989514237231037,0.7833333333333172,1
0.7971567820266796,0.3351280132382817,0.3544874444639084,0.4293074484492842,0.3806775455932975,0.7833333333333172,1
0.7974987637020927,0.3396386492793553,0.33157618431157126,0.5550440897684988,0.38009078140323727,0.7833333333333208,1
0.7964749592107003,0.33589000036167305,0.34049391765910975,0.5444958788208966,0.38028634398280414,0.7833333333333208,1
0.799407333190976,0.3346708067635807,0.37446116751021435,0.48136551441338726,0.3790149578615395,0.8111111111110993,1
0.7981466478173835,0.33531818214852577,0.3696152430036237,0.48694536486817946,0.3796017220515998,0.8111111111110993,1
0.798273856962018,0.34173731021417764,0.34665291167362683,0.5189575797696686,0.37862375625104594,0.8111111111111065,1
0.8006082253632507,0.33535115411130434,0.3777001833872965,0.5145995981500155,0.3792105204411058,0.8111111111111065,1
0.7995496629468402,0.3367271215060442,0.3827899102681632,0.501798673548114,0.37813469689940793,0.7833333333333279,1
0.8034371219583054,0.3398741741987064,0.36137809960459144,0.4590670024018456,0.37872153754082893,0.7833333333333243,1
0.8020177396283736,0.3388544767117949,0.36110214471112495,0.5486915861370951,0.37774357174027473,0.7833333333333314,1
0.8013445800364083,0.3346799301661767,0.38989267407734796,0.5449289517966117,0.3778413530300577,0.7833333333333314,1
0.8038967502697103,0.33602963113780204,0.38951258644378306,0.43591355069631954,0.37745015141956406,0.7777777777777679,1
0.803905179237379,0.33478427528928406,0.37728632162192516,0.5545124076644952,0.37774357174027484,0.7777777777777679,1
0.8008591956774007,0.3329040355188708,0.39717911289884944,0.5664192034235185,0.3771567310988533,0.7777777777777715,1
0.7999588135539627,0.3280469411858282,0.3934485911648105,0.43524468489398727,0.3762765465880826,0.7777777777777715,1
0.7942914953635729,0.32942201761074885,0.3611733012494791,0.5054636503427606,0.3765699669087932,0.7944444444444372,1
0.7958331812821813,0.33586795243855416,0.35567492365126,0.5680083312708156,0.3764721091676497,0.7944444444444372,1
0.7973867864754183,0.3294082342463751,0.38405138784007875,0.4821922679798046,0.3765699669087933,0.7944444444444407,1
0.7956002982516861,0.3316051751935578,0.3479246048909687,0.5175272266663167,0.37617868884693906,0.7944444444444407,1
0.7945824969620987,0.33546073493496537,0.3401975893627225,0.5508912732663406,0.37520072304638485,0.7944444444444372,1
0.7943441427162493,0.32716205451663666,0.3727131753508207,0.5056829677685336,0.3744183198253972,0.7944444444444372,1
0.7934898910672548,0.3331708104965122,0.34455552252453125,0.5124341121137572,0.374613958856324,0.7944444444444336,1
0.7926242549376026,0.334658260647829,0.335133140047875,0.4813892602012859,0.37451610111518085,0.7944444444444336,1
0.7979937031943025,0.3351337734080695,0.371654504604929,0.5354198759494452,0.3746139588563242,0.7944444444444407,1
0.7968659966075142,0.335026111953776,0.35999317118725555,0.5126754584883149,0.37383155563533677,0.7944444444444407,1
0.7958756763057347,0.3404323670088687,0.33624466304387796,0.5130435175494124,0.37304907596298875,0.7944444444444407,1
0.7952782314645059,0.33545270711143227,0.36457692324539936,0.5277748542353594,0.37353813531462643,0.7944444444444407,1
0.7955840220506165,0.33194017307051255,0.3592016774573483,0.5058737927428183,0.37363591660440987,0.7833333333333172,1
0.7899517650844611,0.33558259479259567,0.32002032814996295,0.4842102331943759,0.3738315556353369,0.7833333333333172,1
0.7911542467147353,0.3358264710810057,0.33415907429978436,0.5641160685109863,0.37001732082018235,0.7833333333333243,1
0.7909835072800147,0.3283285374900013,0.3720708201859577,0.5130171530196598,0.37226667274200154,0.7833333333333243,1
0.7902164646105625,0.33492497621451445,0.33651162718250294,0.45848511455725127,0.37207111016243477,0.7944444444444301,1
0.7878481651924741,0.33396047822576536,0.33806339709526323,0.5565319468494911,0.37187547113150776,0.7944444444444301,1
0.7967813777740975,0.33474324296467467,0.3552354412739903,0.5321729839938446,0.37197332887265133,0.7944444444444443,1
0.7905337405473507,0.33807202677603937,0.3440805150312598,0.40193607794324,0.37109314436188046,0.7944444444444443,1
0.7942847335032135,0.3433284152302717,0.3241438771215167,0.4552435293304617,0.3712887069414469,0.7833333333333279,1
0.7958933828646306,0.3363489516650249,0.3615634294675134,0.5767957449214877,0.3713864882312302,0.7833333333333243,1
0.7990416365529578,0.33457736860728604,0.36118606394330915,0.4647493773625235,0.3710931443618807,0.7833333333333314,1
0.7989160844218226,0.33512205532890504,0.3598460340734255,0.4859446213766746,0.3704085224306761,0.7833333333333314,1
0.8010569143245785,0.33353031938090516,0.38950734577055957,0.5850373549679386,0.36913705985805134,0.7944444444444301,1
0.8014459622945733,0.3334782167008939,0.3744072919200535,0.5356012018133278,0.36982168178925534,0.7944444444444301,1
0.8048968264323002,0.3334786139339102,0.393045656690024,0.5178643397974381,0.37089750533095334,0.7944444444444372,1
0.8027852308406279,0.3306067043021978,0.40787101072755005,0.49936210794459457,0.3737336978941932,0.7944444444444372,1
0.8034586263269679,0.3284658297798449,0.4001486283909885,0.5534787810449759,0.37383155563533665,0.7833333333333137,1
0.804147613141057,0.3331651466972666,0.3876880042390831,0.7372137187845079,0.37539628562595106,0.7833333333333137,1
0.7998540695699987,0.3333907850499237,0.3949105861572613,0.5719813641522487,0.3749073027256744,0.7833333333333172,1
0.7998984916665421,0.3337369330699173,0.37863841896467804,0.2597008315683791,0.37520072304638474,0.7833333333333172,1
0.8005282681953713,0.33350208191072855,0.38260322128928165,0.536850884216409,0.37265787435249564,0.7833333333333314,1
0.7993127984146453,0.33569588302398434,0.3686585909533895,0.4781822156096082,0.37275573209363866,0.7833333333333314,1
0.8071251595339051,0.34757837187388385,0.35508296543870155,0.42280525711581496,0.3661053047152447,0.7833333333333279,1
0.8036736682834345,0.35370059702199996,0.3670753929404412,0.21574219694582147,0.3646382795630527,0.7833333333333279,1
0.8068972104247083,0.35192291250197993,0.3651026950139876,0.32904692946675573,0.36630086729481126,0.7833333333333314,1
0.8030952996222068,0.34425829229712257,0.373129108479075,0.6115857306450216,0.36727890954672604,0.7833333333333314,1
0.8091806565949279,0.34905085427226196,0.3657211396648515,0.6322612330624247,0.3674744721262925,0.7833333333333279,1
0.8033249107266676,0.34923983688372556,0.3739910208249697,0.5473396542299431,0.36757225341607624,0.7833333333333279,1
0.8112365796659129,0.35025403805337335,0.3681764882671485,0.5847193263243015,0.3672789095467264,0.7833333333333172,1
0.8011275491710435,0.3491491704708933,0.377104057687637,0.6451902024365516,0.3671810518055826,0.7833333333333172,1
0.8159833068879871,0.33471166066855207,0.37582162618411624,0.5104904481666004,0.36688770793623204,0.7833333333333243,1
0.8147555470917784,0.3232447949608129,0.45269420959945267,0.5791888687948308,0.36522512020447406,0.7833333333333243,1
0.782561345437663,0.3644131142443494,0.5752210246528904,0.5250635532513699,0.36806123631635346,0.7944444444444301,1
0.8024871380267108,0.3625785426072603,0.5638825991142142,0.5068856787786457,0.3669854892260155,0.7944444444444301,1
0.7973692260118643,0.3691755876426983,0.5770472138749198,0.5651111772584871,0.3687458582475579,0.7944444444444407,1
0.8013175417187197,0.35764118528900846,0.5675672125532153,0.5582677148627734,0.3681590940574968,0.7944444444444407,1
0.7992477776921592,0.3631954023935567,0.5531231828353836,0.5453820128451166,0.36786567373678614,0.7944444444444407,1
0.7853229400478645,0.3396907525717823,0.5623766914607643,0.5226451121025472,0.36845243792684756,0.7944444444444372,1
0.8038795670341801,0.3246964232303678,0.5140549149864312,0.5020192649804555,0.36757225341607613,0.7944444444444443,1
0.7921168753661201,0.3116797284816597,0.5148540952345747,0.45796396755380814,0.368648076957774,0.7944444444444443,1
0.792370711434516,0.3162609526589778,0.5182174389092531,0.4162990699364698,0.36991946307903867,0.7833333333333172,1
0.7907679519327708,0.3096783897995463,0.5197602723231168,0.5161857546935414,0.37148434597237423,0.7833333333333172,1
0.7919278725579553,0.3168349723259898,0.5198698776567356,0.45643867279839845,0.3746139588563242,0.7833333333333208,1
0.7909448528534053,0.31052853157710664,0.5215441546075134,0.46942083275774493,0.37686331077814295,0.7833333333333208,1
0.7932662722749096,0.31895502186972746,0.5196396494258029,0.5012826192978175,0.37774357174027484,0.7833333333333101,1
0.7934239537810999,0.3165842224398028,0.5217458466857936,0.5353178312163617,0.3798951423723105,0.7833333333333101,1
0.7976217947235705,0.32258823666597813,0.5167957432288426,0.5326312771688867,0.3796017220515998,0.7833333333333172,1
0.7958661968465135,0.3179243811037816,0.5169550794103448,0.48331711653986226,0.3789171001203955,0.7833333333333137,1
0.799552849957426,0.3230237570381545,0.5158473037108557,0.5331633526314581,0.3775479327093477,0.7833333333333279,1
0.7968727417239279,0.317623707364897,0.5149831121974984,0.5051758436846594,0.37637432787786607,0.7833333333333279,1
0.8000271042550687,0.3233179163750305,0.5119595400076513,0.4833611469119283,0.3756897059466616,0.7833333333333279,1
0.797600026436279,0.3172957291851655,0.5145936765816332,0.5477268402738961,0.3744183198253971,0.7833333333333279,1
0.7999223004644123,0.32371568680561147,0.5117171167404904,0.4941193364065374,0.37363591660440953,0.7833333333333279,1
0.7974599850421816,0.31676323688375957,0.5149031826910858,0.5035537434565452,0.37187547113150743,0.7833333333333279,1
0.7957928855696927,0.3245872010525642,0.5113617184811723,0.5555847265350033,0.37207111016243466,0.7833333333333279,1
0.7886163297864427,0.3122258948679,0.5153408906807758,0.4821624420974469,0.3711908492003033,0.7833333333333279,1
0.7942839480905959,0.31798366178990956,0.5135581492080895,0.5262046746561466,0.37050630372045945,0.7833333333333172,1
0.792512726746851,0.3119598921646985,0.5199281851067651,0.5432459174932331,0.37079972404117,0.7833333333333172,1
0.7938826333572431,0.3174426424685779,0.5168947031867202,0.476067467979409,0.369234917599195,0.7833333333333208,1
0.7933538073728785,0.3122101522850076,0.5204964179435074,0.5349234533767779,0.369039278568268,0.7833333333333208,1
0.796997857555769,0.32364864190827136,0.5119627541583921,0.5202262366322907,0.36825687534728024,0.7833333333332995,1
0.7928733172645801,0.31320311415146307,0.5196235574971527,0.4895698273145168,0.369137059858051,0.7833333333332995,1
0.7989065127150298,0.3271813140481449,0.5083090582812647,0.5459216493476529,0.3676701111572198,0.7833333333333101,1
0.7962617984645481,0.3146862820189185,0.5185754966783102,0.4873570085358252,0.36776789244700314,0.7833333333333101,1
0.8007660238627754,0.32892045279688886,0.5084214894182371,0.5105389631194811,0.3660074469741009,0.7944444444444372,1
0.7961313184780289,0.31422934192325036,0.5204355275458774,0.5368448376387049,0.36737669083650915,0.7944444444444336,1
0.8023886362760015,0.3312780700110103,0.5046631675468882,0.47474405704128214,0.3664965063257386,0.7944444444444407,1
0.7931201097263387,0.30668215837353263,0.5283904961499654,0.528012844501848,0.36620308600502804,0.7944444444444407,1
0.8070060716527481,0.3341034057951066,0.5027852771580191,0.5201873357324969,0.36571410310475105,0.7944444444444301,1
0.8635818690178225,0.23023780529837473,0.6055102749080183,0.4772228395687282,0.3664965063257386,0.7944444444444301,1
0.7631461026201124,0.5774967713076284,0.6759381036832823,0.5475242500121814,0.36473606085283605,0.7944444444444372,1
0.5935515023180266,0.6676884918806831,0.6770064131003558,0.5067563926394391,0.3617042292586695,0.7944444444444372,1
0.4388217119255817,0.4205636925427133,0.9544219378818615,0.48585158701508063,0.3635624560213552,0.7944444444444301,1
0.655206317264933,0.5649379177212465,0.8284573719940964,0.5506945179223173,0.3721688914522182,0.7944444444444301,1
0.6613651714798856,0.4622950561149339,0.7521872973313244,0.5506129683107942,0.36874585824755735,0.7944444444444301,1
0.9409745953193547,0.6346127534102135,0.45039665591137984,0.5455760999502387,0.3654206827840406,0.7944444444444301,1
0.8415901526469274,0.6521557447753901,0.5646577932012243,0.5921663876597831,0.35358677672808403,0.7833333333333279,1
0.3859073301615978,0.5633159121925266,0.8430017690951004,0.3602019739653774,0.3531955751175898,0.7833333333333279,1
0.44945381516532523,0.5752912767074481,0.9526194476249776,0.433736069284422,0.3638558763420655,0.7833333333333279,1
0.364255079165346,0.5920134910935925,0.9169722557917726,0.4547316951369375,0.3673766908365089,0.7833333333333243,1
0.47225864461293793,0.5379207901116003,0.8771966880686607,0.5330496702891282,0.36688770793623204,0.7944444444444514,1
0.5514850608868486,0.5290027275867419,0.8744964929708448,0.6855960963703731,0.3654206827840406,0.7944444444444514,1
0.49693777064274136,0.5473353163263096,0.9045937395301007,0.5426724378563245,0.3614108853893194,0.7944444444444478,1
0.5569912672707613,0.5670636871357757,0.8542306893479601,0.4013482450892816,0.36473606085283605,0.7944444444444478,1
0.5704120289448945,0.5793938858182617,0.8738426138168895,0.5090018233329979,0.3650294811735467,0.7944444444444301,1
0.5564472481946301,0.5620676626512218,0.8678243256758975,0.48678591573797503,0.3643448592423424,0.7944444444444301,1
0.5715687755993344,0.5739709963371499,0.8721027018546788,0.4986094980479062,0.36346467473157185,0.7944444444444336,1
0.5646387105901649,0.5693594053171624,0.8597711383741338,0.4674586689580114,0.36405143892163216,0.7944444444444336,1
0.575885392844731,0.5688918070207789,0.8659784887245354,0.5076812820769218,0.3638558763420655,0.7833333333333137,1
0.559028044783729,0.563243518101084,0.8671425159159143,0.546592457790672,0.36307347312107774,0.7833333333333137,1
0.5688993180917753,0.5629804382942112,0.8705729263718662,0.5050135164239434,0.3646382795630533,0.7833333333333243,1
0.5591802749418758,0.5610282285165745,0.8658770073991506,0.5145252916653419,0.36424707795255906,0.7833333333333243,1
0.5749477528774679,0.5697971467357414,0.8680913426588611,0.526512893636039,0.3641492966627756,0.8111111111111029,1
0.5638604454570881,0.5659900910365461,0.8634923236744556,0.5366885322731689,0.3645404982732695,0.8111111111110993,1
0.5749303589229445,0.5692295368457996,0.8653211397322336,0.5026052016639913,0.36346467473157174,0.8111111111111136,1
0.5637902500838342,0.5671824818994429,0.8614151690570506,0.5156032894869091,0.3634646747315716,0.8111111111111136,1
0.5751053969220158,0.5698349156228306,0.8672877691690464,0.4976789522982668,0.36375809505228207,0.7944444444444336,1
0.5635131949692147,0.5670875243144413,0.8642905052990718,0.5163007887648872,0.3627800528003675,0.7944444444444336,1
0.5772558603432986,0.5699586950418212,0.8671131946657029,0.5020237618588712,0.36356245602135506,0.7944444444444407,1
0.5652968838232186,0.5668989636363337,0.8641165883064043,0.5090924830451988,0.3632690357006446,0.7944444444444407,1
0.5759593456097507,0.570248716720077,0.8673129241507089,0.5123023708594889,0.36238885118987374,0.7944444444444407,1
0.5635755799361887,0.5663871307224244,0.8623568908677983,0.5042738168822681,0.36248663247965696,0.7944444444444407,1
0.5889816064413684,0.5719355246983443,0.8594449334584251,0.5101811023089484,0.3617042292586695,0.7944444444444407,1
0.6000952607436048,0.5924206295064264,0.8397054670703732,0.5116632136797626,0.36199764957937974,0.7944444444444407,1
0.6325536562655645,0.6235293304389906,0.8285788037293126,0.5064663290153973,0.3611174650686092,0.8111111111110993,1
0.6285137799217129,0.6421423885378387,0.8236462741119619,0.5199533471799298,0.3620954308691633,0.8111111111110993,1
0.6013848708104628,0.6438564225860633,0.8374104877804998,0.5124876737808277,0.3606284821683319,0.8111111111110958,1
0.5917508002096907,0.614206899176701,0.8412663416515445,0.5161877464205746,0.36150866667910253,0.8111111111110958,1
0.6130596897365201,0.5960756120240631,0.8352427668314907,0.5010860626465881,0.36170422925866963,0.7944444444444407,1
0.5955373533803685,0.6247295711143277,0.840359496009274,0.5123605136071818,0.3638558763420653,0.7944444444444407,1
0.6081134708188992,0.6342869745429074,0.8359312019699436,0.529108575410258,0.361508666679103,0.7944444444444407,1
0.5796554782570321,0.6427408717339145,0.8402229344388557,0.5244663340763809,0.36170422925866963,0.7944444444444407,1
0.5892867242048676,0.6607770507891195,0.8346722355564622,0.47793657501173054,0.36111746506860876,0.8111111111110993,1
0.6277196795732611,0.6730938043873713,0.8034558422045275,0.4813768270303476,0.36317125441086107,0.8111111111110993,1
0.6361523096645681,0.6980510160073783,0.8026253962416082,0.502438893690242,0.361508666679103,0.8111111111111065,1
0.5648735647623546,0.6718790931278341,0.8125875039798963,0.5277100008448177,0.36072626345811554,0.8111111111111065,1
0.6592314682742422,0.674754592451227,0.8284897129997466,0.4908705841786731,0.3616064479688865,0.7944444444444265,1
0.6081797140465988,0.6016770749476823,0.8292316826343313,0.5265187043149944,0.36101968377882554,0.7944444444444265,1
0.5483663089789653,0.638486811934062,0.7726285243560377,0.48759484872623443,0.35994386023712766,0.7944444444444372,1
0.8412038355040021,0.5318886688475933,0.7484783578527189,0.5560071376159338,0.35476045801092493,0.7944444444444372,1
0.6733966944114986,0.38352845764633986,0.7728147853495572,0.5831278217458993,0.3520220467374692,0.7944444444444301,1
0.6862727539177003,0.44451507352788366,0.8160981897826204,0.4742189589495243,0.3547871395356591,0.7944444444444265,1
0.5939304200608944,0.43754331020707826,0.8287186871586576,0.4583854597646887,0.35644972726741764,0.7944444444444336,1
0.7078244217362826,0.43905044100871404,0.7388581410696751,0.5074944606028396,0.3571343491986215,0.7944444444444336,1
0.8641063455376758,0.40795306994221425,0.3919006643493783,0.5500188683398693,0.3586013743508135,0.7944444444444301,1
0.8393835688455145,0.4049315836833222,0.46644517318737483,0.5444625464403356,0.3571343491986214,0.7944444444444301,1
0.8143014846959384,0.3977587457348497,0.5320490998519118,0.43263736078155257,0.3565475850085609,0.7944444444444336,1
0.8365175855704983,0.40896250448022176,0.4986195851745269,0.447284916481539,0.35791675241960885,0.7944444444444336,1
0.8274961780068839,0.40575038148296977,0.4959663387799726,0.5127047913216287,0.3575255508091151,0.7833333333333314,1
0.8323153693736636,0.4068788544893104,0.4868557341381389,0.5581625341602061,0.3568410053292711,0.7833333333333314,1
0.8250626997177185,0.39752877267888975,0.48660694605904137,0.3370162460961367,0.35596074436713987,0.7833333333333421,1
0.8355229075485942,0.40126140654985626,0.4921834497228051,0.4134363749643676,0.3550805598563691,0.7833333333333421,1
0.8175998102886012,0.3878733566781432,0.5172471326634815,0.6424772444920588,0.355765181787574,0.7944444444444443,1
0.8249020409352312,0.38270063925986597,0.48727061712231434,0.5449459267171762,0.3556673240464301,0.7944444444444443,1
0.8236704792734102,0.381715425601997,0.47549776121358667,0.6088592088501358,0.3549827785665858,0.7944444444444407,1
0.822792715503443,0.38189478303202506,0.5004528465013494,0.4728933955204962,0.35498277856658556,0.7944444444444407,1
0.8118706456727489,0.382098472113041,0.5428502048591618,0.6238334099041613,0.35508055985636944,0.7833333333333279,1
0.8217360970770365,0.4015903548712706,0.5572708035774887,0.5796186622249202,0.35537398017707944,0.7833333333333279,1
0.8267884566507673,0.40972879165609105,0.485206325959225,0.5433810207577677,0.35703656790883787,0.7833333333333243,1
0.8322335038270001,0.4159928970060626,0.36120847664159395,0.5291386499277057,0.35126632504121524,0.7833333333333243,1
0.803833046736083,0.40091458000939795,0.30838934712786525,0.493627627305683,0.3484301324779753,0.7944444444444265,1
0.8088270022314764,0.40577455329417966,0.2917995875446532,0.5920647649939613,0.3501905014995169,0.7944444444444265,1
0.7971506432855848,0.40766986267260874,0.29909488681863405,0.5976346738295187,0.34979929988902336,0.7944444444444301,1
0.8124454796363507,0.4127274707051023,0.30349596872935436,0.3169845008160058,0.34950595601967327,0.7944444444444301,1
0.8115958289182108,0.40874831235552966,0.3262026337487946,0.48597738527477247,0.34784329183655416,0.7944444444444265,1
0.8233719831309886,0.41232498872615614,0.34171005252833153,0.5523778684754438,0.3501905014995169,0.7944444444444301,1
0.8186718337004177,0.4088500673160812,0.35463718380767534,0.5644628842459618,0.3488213340884695,0.7944444444444336,1
0.8252647935001547,0.4097014718161177,0.3497886181154289,0.47098391844291365,0.3496037373094564,0.7944444444444336,1
0.816885505935184,0.40906334851354603,0.3485028574635805,0.5304067102071053,0.34862577150890206,0.7944444444444336,1
0.8244346350272571,0.41041524263268164,0.3360354428354097,0.5024404632552476,0.34999493891995037,0.7944444444444301,1
0.8205080742082561,0.4086955990532402,0.35171141473657885,0.5297992427271779,0.34940809827852937,0.7944444444444407,1
0.8241183047674042,0.41116359611434655,0.35477078528967054,0.4438550835550856,0.3489191153782524,0.7944444444444407,1
0.8168685086417029,0.40908674007945,0.35905294729095105,0.42872460758028785,0.3484301324779754,0.8111111111110922,1
0.8278017815336464,0.4062424050010731,0.3794065950365899,0.4920424218988171,0.3478432918365544,0.8111111111110922,1
0.8271927983428873,0.4014127254219055,0.39200852452395446,0.6283755090254214,0.34715874635670996,0.8111111111110993,1
0.8293464600655533,0.40455140474736573,0.39939799472773907,0.4884046249762865,0.3419752676791473,0.8111111111110993,1
0.8253985717012485,0.40173022443506434,0.403415865939113,0.2932317316951608,0.33913907511590813,0.7944444444444372,1
0.8318807389420542,0.40439653405692083,0.40271955646262875,0.4240161356660657,0.3374764873841495,0.7944444444444372,1
0.8264275494934303,0.4018192776231833,0.40866396157971674,0.4544646143111615,0.3385523109258477,0.7944444444444407,1
0.833774177681931,0.4043603220731773,0.40173896717436225,0.6402952946748998,0.3382588906051368,0.7944444444444407,1
0.8265280065932923,0.40175916940783696,0.4055291321140371,0.5427056179901724,0.33972583930596867,0.7944444444444301,1
0.8306643762403894,0.40499930083307234,0.39413473776864527,0.5866692570865231,0.3391390751159078,0.7944444444444301,1
0.8268310761251245,0.4093193329375495,0.39492536825246255,0.5694043781450714,0.3364006638424515,0.7944444444444301,1
0.829478008529327,0.41168680739287483,0.37889947645862504,0.49543224815810016,0.3371830670634388,0.7944444444444301,1
0.8237313661988719,0.4095538188203607,0.3725870235011877,0.566764877036546,0.33855231092584726,0.7944444444444372,1
0.8255678488598688,0.4116687287037975,0.3652147884943383,0.5075908510356204,0.3369874280325118,0.7944444444444372,1
0.8247782634638081,0.4095316132964694,0.38101637516610626,0.5239291923232099,0.33825889060513725,0.7944444444444336,1
0.8309645978825655,0.41173224170586703,0.38407600400350705,0.6133477192514972,0.3386500922156309,0.7944444444444336,1
0.8285889224800923,0.40938629060385656,0.39173866910142385,0.4691991004932029,0.33904129382612436,0.794444444444423,1
0.8306657296792486,0.412123339006691,0.39967999371782803,0.4687258988244393,0.33874787350541413,0.794444444444423,1
0.8333236859547377,0.4064809552823873,0.4191938912467425,0.5611957260551856,0.3384544531847038,0.7944444444444301,1
0.8297262363920843,0.40325933894829535,0.49641222972654275,0.43565953783480377,0.3374764873841495,0.7944444444444301,1
0.8214112951208212,0.4026290672642218,0.5252970536455225,0.4411038203768769,0.33679186545294537,0.8111111111110993,1
0.8298222717797885,0.4036644265227979,0.5167032163572937,0.5160862703435016,0.33855231092584726,0.8111111111110993,1
0.8242573253962433,0.40246171715096946,0.5249891336514791,0.4223011428145237,0.33825889060513736,0.8111111111111065,1
0.8275695818309603,0.40375986914071776,0.5232879096943177,0.5615617688633089,0.33923685640569146,0.8111111111111065,1
0.8233979204320547,0.40239287230985243,0.522101728674465,0.6308168311211944,0.33835667189492,0.7833333333333314,1
0.8276461730506384,0.40382222410327345,0.5214013725959311,0.5428642771909629,0.3387478735054139,0.7833333333333279,1
0.8219444918716037,0.4023224628398883,0.5216903923608722,0.4581671192476986,0.33855231092584726,0.7833333333333421,1
0.8286189671098968,0.403919231649152,0.5211513687063422,0.572542390627843,0.3386500922156306,0.7833333333333421,1
0.8236917235629277,0.40216003969920544,0.5262256741434959,0.5181991341916494,0.3379654702844266,0.7944444444444336,1
0.8267886833698848,0.40427335613106785,0.5232178294743451,0.48965965644989623,0.3386500922156306,0.7944444444444336,1
0.8239247298544856,0.397266235566519,0.5298918382811426,0.483423909107959,0.33816110931535337,0.7944444444444407,1
0.8234480657420926,0.39577090062713294,0.5310471929187122,0.4455339835651673,0.3375742686739328,0.7944444444444407,1
0.8245295538055688,0.3947258804583993,0.5286499603570403,0.4991841665548769,0.3366940841631617,0.7833333333333172,1
0.8234831916878225,0.3953211242812083,0.5316839298016524,0.5476914816412978,0.33679186545294537,0.7833333333333137,1
0.8195379744427647,0.3953783054811275,0.5352098381444743,0.49633031174177744,0.3359116809421743,0.7833333333333172,1
0.8247875845668582,0.39588023017163637,0.5323362759547012,0.5681774678748317,0.3370852857736554,0.7833333333333172,1
0.8217180525035441,0.3952112838141353,0.5366806305919126,0.5152026626294428,0.33669408416316204,0.7944444444444336,1
0.8224753440870269,0.3959740784746173,0.53433375519824,0.4792647963943399,0.3375742686739328,0.7944444444444336,1
0.8224235601343071,0.3960834569885619,0.5327617353588234,0.5739680347751984,0.33669408416316127,0.7944444444444301,1
0.8253797937783891,0.3960332721172573,0.5273501661456322,0.4630889352713221,0.33571604191124726,0.7944444444444301,1
0.8224785857893737,0.3950803113084519,0.5319992660265216,0.3835710120208314,0.3358138232010305,0.8111111111111065,1
0.8233046577035865,0.39611845072863977,0.536655220776395,0.4940906414676098,0.33610724352174093,0.8111111111111065,1
0.8225452117542591,0.3949243059063371,0.5374685366866738,0.506587374750068,0.33522705901097016,0.8111111111111029,1
0.8226652501784232,0.39679111469928585,0.5358843641890069,0.5359411852647329,0.3334666135380683,0.8111111111111029,1
0.8231894760830925,0.39546796942979273,0.5305103643184355,0.5552410331603725,0.3327820680582241,0.7944444444444372,1
0.8239162769911541,0.3967952560609455,0.5332558237299807,0.43954832738722804,0.33131504290603253,0.7944444444444372,1
0.8230589611458825,0.3953586762345817,0.5322622449542254,0.5394401097228195,0.32808764873229845,0.7944444444444407,1
0.8233482758875261,0.39886267698407274,0.523356480339233,0.6203518796001289,0.32662062358010724,0.7944444444444407,1
0.8303787277332213,0.40329343833006226,0.49534699218946987,0.47295826084827314,0.32466461552763803,0.7944444444444301,1
0.8358181982158193,0.4047153158407887,0.4834801003122342,0.49324004368813473,0.32329537166523015,0.7944444444444301,1
0.8292569920308916,0.404978009684857,0.5106166996399364,0.5451963602954875,0.3248601781072049,0.7944444444444443,1
0.829319381030906,0.4033819730790273,0.5072945908311804,0.45838548325171363,0.32583822035911914,0.7944444444444443,1
0.8267430945771124,0.40285645655945573,0.5132323075259834,0.5301416581840226,0.3247623968174216,0.8111111111111136,1
0.8286495402201693,0.4033290632603344,0.5104253176338073,0.55603975664533,0.32309980908566294,0.8111111111111065,1
0.827065571999934,0.40284914902631264,0.5101923435733727,0.4361965279236263,0.32261082618538617,0.8111111111111171,1
0.8294289885943976,0.4033393119431028,0.5044218640964846,0.5544635489330286,0.32212176683374827,0.8111111111111171,1
0.8285538744057234,0.40284074683655824,0.5086967242971829,0.5466103174449752,0.3232953716652299,0.8111111111110958,1
0.8286050035348647,0.4033455626426137,0.5090606434765906,0.5402530026290167,0.32309980908566327,0.8111111111110958,1
0.82806172778845,0.4028363100431396,0.5106999433163922,0.553944923528669,0.32231740586467517,0.8111111111110993,1
0.8294184547150838,0.40334857406585045,0.5053584670648047,0.5090591791600754,0.3210459432920507,0.8111111111110993,1
0.8275533632105634,0.4028343877220524,0.5098524983489976,0.4562247260687367,0.32045917910199007,0.7944444444444301,1
0.8282454577512777,0.4033496834787888,0.5073458804529465,0.5153123084747275,0.3201657587812795,0.7944444444444301,1
0.828165640742051,0.40283386406820526,0.5122461772078675,0.49282457126720297,0.31977455717078584,0.7944444444444336,1
0.8282060281975379,0.4033498123929205,0.5127859720957713,0.5313012909432172,0.32133936361276083,0.7944444444444336,1
0.8280660557833947,0.40283396368015983,0.5124118589415871,0.5322526017047294,0.3205569603917735,0.8111111111111136,1
0.8272643426802337,0.40334963520180855,0.5118492858068655,0.4920991848946172,0.3196767758810022,0.8111111111111136,1
0.8285606587744783,0.4028340744310005,0.5128504479253218,0.48819572685496937,0.3191877929807252,0.8111111111111136,1
0.8265960941284873,0.4033497358763736,0.5112541731605704,0.47334683408026246,0.31938335556029207,0.8111111111111136,1
0.826217186011875,0.4028336080978458,0.5144079111484612,0.5504940490408775,0.3191877929807253,0.8111111111111136,1
0.8301582238432484,0.4033507410265256,0.5084567451929167,0.4893584691407378,0.31879659137023164,0.8111111111111136,1
0.8278161433105937,0.40283185959560586,0.5116415262202282,0.5215813231902159,0.3176229865387502,0.8111111111111065,1
0.827130133872499,0.4033534861399146,0.5102405230636221,0.48676364324936383,0.318405389759738,0.8111111111111065,1
0.8291348371832883,0.40282779008360664,0.5137529053931985,0.5103227985585035,0.3177207678285341,0.8111111111110922,1
0.8271544804962068,0.4033593230471029,0.5127875141019032,0.5596654143111444,0.31820975072881075,0.8111111111110922,1
0.8267199020053869,0.40281955963945054,0.5169522214884369,0.4864397032189845,0.3174273475078234,0.8111111111110993,1
0.8308203345706348,0.40337087720644904,0.5112924542226386,0.49877337119412674,0.31762298653875043,0.8111111111110993,1
0.8293675714741977,0.40280321544043696,0.5108783627417758,0.5084397538974939,0.31664494428683576,0.8111111111110922,1
0.8279537425345076,0.40339450488762846,0.5067132035693516,0.46680343459527607,0.3152757768757878,0.8111111111110922,1
0.830096509381253,0.40276759989018074,0.5061913637973615,0.5797078166140743,0.31556919719649845,0.8111111111111029,1
0.8279887214789521,0.4034524766922992,0.5093551314741551,0.5331215126447926,0.31566697848628134,0.8111111111111029,1
0.8286184613686827,0.40265748930269823,0.5092249259694496,0.4660457267391181,0.31488457526529345,0.8111111111111029,1
0.8322055039779306,0.4037703504539486,0.505353480049779,0.5396942527932921,0.31556919719649834,0.8111111111110993,1
0.829314936098883,0.40456661766637336,0.5081736909058142,0.49020100373194403,0.3151779191346441,0.8111111111111065,1
0.8322527494390402,0.4031456119042508,0.5043978594864523,0.46178488912068955,0.3141999533340898,0.8111111111111065,1
0.8281276316355741,0.40283627111214604,0.5074657137650169,0.5382875688258169,0.31414391448701284,0.8111111111110958,1
0.8312478213191263,0.40365338533336226,0.5053637211196271,0.49718058844579893,0.31492639415936086,0.8111111111110958,1
0.831294107175533,0.40460230099792294,0.5067011681626761,0.5239630208333254,0.31375271287651885,0.8111111111110993,1
0.8283679731864142,0.4036162381872362,0.5095393553426332,0.5310400034177447,0.31306816739667476,0.8111111111110993,1
0.8292838340528271,0.4036212961752109,0.5149477088598564,0.4441698257818122,0.3115033609547002,0.8111111111110958,1
0.8294346779548736,0.4028785497220399,0.5115503155296149,0.5308725937778108,0.31385057061766275,0.8111111111110958,1
0.8266504206873106,0.4032224085122226,0.5138996471243316,0.5191861879637374,0.31013411709229166,0.8111111111110993,1
0.8320346656432407,0.40299364677882493,0.5116013759921783,0.5129649344870129,0.3121879828859042,0.8111111111110993,1
0.8275720056585005,0.40318446501960437,0.5154699842377044,0.5573401931585086,0.31160114224448354,0.7944444444444478,1
0.8284694214996442,0.40297060384716793,0.5098700104758793,0.5393832097406129,0.3121879828859042,0.7944444444444478,1
0.8296015718703613,0.4034126038898045,0.5074240439011565,0.4729900201523245,0.31101430160306276,0.7944444444444443,1
0.828278195661837,0.4055530940778358,0.5059626035928956,0.5198446567588852,0.31032975612321845,0.7944444444444443,1
0.8291167531373959,0.40420499207459837,0.5087614024158658,0.5183271959628827,0.3105253187027853,0.8111111111111207,1
0.8290868786082466,0.402926411084465,0.5061700159138279,0.49864846449328815,0.31062309999256876,0.8111111111111207,1
0.8279353347258929,0.40346732450795,0.5118358697081306,0.5486026420029326,0.3087648732298832,0.8111111111111171,1
0.828710062063418,0.40363788979363013,0.5112154639703315,0.5009946344341916,0.30896051226081045,0.8111111111111171,1
0.8307951425059859,0.40291052018978074,0.5091784563348847,0.4619848551275696,0.31003633580250856,0.8111111111110958,1
0.8289501416751717,0.40356115740087956,0.5034398731245969,0.5458700463947705,0.31003633580250833,0.8111111111110958,1
0.8299326178597375,0.4028105709133818,0.507192699483052,0.5034621450337184,0.3072001432392689,0.8111111111110993,1
0.8295678153815234,0.4032767871089806,0.5042313006846751,0.49577822651113523,0.3078846887191127,0.8111111111110993,1
0.8296146413740026,0.40303300787295027,0.5079991057809492,0.5206053366141968,0.3072001432392685,0.8111111111110887,1
0.8317044884964575,0.40412582866886365,0.5096361479417,0.5235656965260251,0.3070045042083416,0.8111111111110887,1
0.825613898372199,0.40283287174269716,0.5139881537094028,0.504105862715112,0.30671108388763135,0.8111111111110922,1
0.8290691486101454,0.4048659703374706,0.502253806418229,0.5007962576838669,0.30612431969757037,0.8111111111110958,1
0.8307933676468218,0.4035103239673533,0.5085895928020983,0.4933551165742436,0.3024078661721996,0.7944444444444336,1
0.8260190705293329,0.40186451211229546,0.5041659480837484,0.5056626183565047,0.2945838339623239,0.7944444444444301,1
0.8296847814111641,0.403540878176697,0.5074840622948181,0.5181888130700356,0.29145422107837393,0.7944444444444407,1
0.8319268388916559,0.40546637523364476,0.5096490967473224,0.517681400042252,0.2903783975366757,0.7944444444444407,1
0.8345367115290196,0.4175459926384513,0.5002541183796164,0.5760938799337725,0.2901828349571094,0.8111111111110993,1
0.8174594082991875,0.4570307667153276,0.292270490920494,0.550290400955891,0.3156109396392046,0.8111111111110993,1
0.7984108317990235,0.4332939375159283,0.3075074033307952,0.5226144801949852,0.31658898189111895,0.8111111111111029,1
0.8307806089938286,0.40615897749878177,0.36762213780206676,0.6764284783428614,0.31365493158673574,0.8111111111111029,1
0.8123932513703302,0.40384160247434087,0.3327764153827949,0.6359295713579887,0.31463297383865085,0.8111111111110922,1
0.8025117795462969,0.40184766953140244,0.2892896180928266,0.3457233223624826,0.31404613319722974,0.8111111111110922,1
0.7960358976439373,0.4037543249428394,0.2809358980133878,0.1198047082466655,0.3142417722281562,0.8111111111110958,1
0.7930106134673988,0.40351497660419233,0.277936379194701,0.39450585542964905,0.31365493158673574,0.8111111111110958,1
0.7722003030340439,0.40668824957907523,0.23719108593925942,0.5135197058683535,0.3138505706176632,0.8111111111110993,1
0.7775234977784791,0.406435220896931,0.24417897344560305,0.5644540930215955,0.3133615112660254,0.8111111111110993,1
0.802472290629581,0.40575597613532066,0.31388234993900677,0.5276946427712603,0.31443733480772307,0.8111111111110958,1
0.802340959466601,0.4019612407398882,0.2982967970055981,0.5827699539603144,0.3135571502969521,0.8111111111110958,1
0.7953252324093051,0.40331429228062704,0.2736778482453299,0.5500258659592392,0.31385057061766275,0.7944444444444478,1
0.7878730938290759,0.4020087151103995,0.26084738884076286,0.520169194599608,0.31424177222815664,0.7944444444444478,1
0.7546539863879208,0.4019839192091409,0.20919217611595847,0.536778856638133,0.31492639415936063,0.7944444444444443,1
0.723589359380729,0.3975193046161716,0.17175516433983495,0.4729571857640594,0.3158065786701313,0.7944444444444443,1
0.7310497838323489,0.4060967027911624,0.18153145589761227,0.5348483847313871,0.31668676318090294,0.7944444444444301,1
0.7149437860589645,0.40679439287205926,0.1578542436265889,0.5748029680842133,0.3185449899435878,0.7944444444444301,1
0.7568835122514377,0.42106233741004057,0.19475299006477487,0.5468746356032783,0.3189361915540819,0.7944444444444372,1
0.7911744670111964,0.4113460123562047,0.28525730005599154,0.6015506543783591,0.32001193864441946,0.7944444444444372,1
0.7955086782158867,0.4143390703280968,0.27989761619946807,0.5077257679358798,0.3099385545127251,0.8111111111110922,1
0.7803690020768373,0.4221008429711037,0.24450972281621552,0.44181294574169416,0.31140550321355664,0.8111111111110922,1
0.7629097477580475,0.4120593290007053,0.21831784619559763,0.514114110227836,0.32216358572781534,0.8111111111111029,1
0.7527146225620402,0.4012578704943253,0.19676167090444496,0.4764686239555984,0.3250975595808384,0.8111111111111029,1
0.7649831883133731,0.4012065069532957,0.24005251526241328,0.48447053953736263,0.324999778291055,0.8111111111110993,1
0.7563635169782068,0.40530703619977876,0.1957868957141608,0.44414442197769377,0.32646680344324674,0.8111111111110958,1
0.7763344578694531,0.4110816391451417,0.24865580853151542,0.5327621408173875,0.32617338312253685,0.8111111111111029,1
0.8153797290333411,0.41474503887371106,0.36745356322327644,0.609213664083176,0.32705364408466797,0.8111111111111029,1
0.8237025990131914,0.42770459281267714,0.33184270652641756,0.5259822482018597,0.32724920666423496,0.8222222222222051,1
0.8255101784004208,0.42740846919793646,0.3101353976402149,0.4942807234149511,0.3276404082747283,0.8222222222222051,1
0.8324302559426866,0.4125233732141344,0.3841945421642855,0.5282020200480168,0.32617338312253663,0.8222222222222122,1
0.8260957236056803,0.404834741749811,0.46673240107418273,0.5200240760902008,0.3265645847330305,0.8222222222222122,1
0.8312788409393118,0.38996737646840385,0.4432008280114187,0.45898733829717153,0.32323940926951367,0.8222222222222122,1
0.831099211581606,0.4050254262389794,0.463674113739231,0.46453427745036824,0.3130681673966752,0.8222222222222122,1
0.8332510292450834,0.41595680790284706,0.4563589931619052,0.5820711674025244,0.3131659486864584,0.8222222222222157,1
0.8327272566339889,0.40645987390233007,0.4191503851849488,0.5382153993413391,0.32275034991787577,0.8222222222222157,1
0.831374534922728,0.38932406756393134,0.431247219474729,0.47651656430542605,0.3245107953907782,0.8222222222222122,1
0.827152152452652,0.39050340390258054,0.4491171432996389,0.4836128677956336,0.3149263941593604,0.8222222222222122,1
0.8311200975239765,0.38786859577035454,0.44582757066413947,0.47219507519378906,0.3115033609547002,0.8222222222222086,1
0.8311538770394156,0.40435788504917014,0.45134240434493417,0.5428130543318801,0.3121879828859041,0.8222222222222086,1
0.8309388201928409,0.41814662237585115,0.42593767817561834,0.5395040893033022,0.3193273931645758,0.8222222222222157,1
0.8313232917068176,0.40223516012231,0.41364643701304504,0.474719918872483,0.33536665919482,0.8222222222222157,1
0.8260965445349018,0.3908408806932936,0.42455776585540567,0.5078148727087469,0.3425060694734917,0.8222222222222122,1
0.8298612112923522,0.38890619461940684,0.4274930233651877,0.48451944804121394,0.33311723082164135,0.8222222222222122,1
0.8270250632030915,0.3936416809517665,0.4334666953503121,0.46032651359569227,0.3294008537476303,0.8333333333333215,1
0.8325566927101076,0.39353794853523033,0.43036766293164064,0.5764449884441021,0.3304766008379677,0.8333333333333215,1
0.8280754509755466,0.3966963027233784,0.4337228002877031,0.5533407360572744,0.3294986350374137,0.8333333333333286,1
0.8281161930961124,0.3917864381266929,0.4297513383226096,0.5145371967193887,0.3279338285954386,0.8333333333333286,1
0.8250811725301928,0.3900000421466002,0.43330216188363513,0.49705749950768136,0.32578218151204297,0.8111111111110993,1
0.8323913409376811,0.38952931701596455,0.43002129346597023,0.49306249023126864,0.3224570060485259,0.8111111111110993,1
0.8244689754869714,0.3964036537115944,0.47088050814391014,0.49309061356326905,0.319914157354636,0.8111111111111136,1
0.8322241108710715,0.40618046394342794,0.47621587523181585,0.537652455534559,0.31345936900716875,0.8111111111111136,1
0.8358427603622496,0.40237700317994585,0.4620505949766201,0.4997839556884854,0.32480421571148865,0.8111111111110922,1
0.837074053661973,0.4102205668756891,0.46036147058452714,0.47968517410542477,0.3287162318164264,0.8111111111110887,1
0.8360511728755013,0.41752435954569433,0.46150401610187647,0.45973808250960113,0.3241195937802843,0.8111111111110993,1
0.8361174192488372,0.414198721527995,0.4646079402930542,0.65452356962635,0.32118561992726125,0.8111111111110993,1
0.8366219269316368,0.4126117971191964,0.4681331762994106,0.7208648557956421,0.3206965605756238,0.8222222222222086,1
0.8351992699208997,0.40963514687980934,0.46693794861212734,0.384295825448927,0.3146329738386501,0.8222222222222086,1
0.8334111715408603,0.4142957772626332,0.45802230631896734,0.14948487045371456,0.31052531870278544,0.8222222222222157,1
0.8371183099726329,0.4155803659043643,0.41421105066310077,0.35187680689936796,0.31414391448701284,0.8222222222222157,1
0.8315510897945761,0.4142981198564646,0.40654576944579424,0.5989569273803261,0.3116989235342671,0.8111111111110958,1
0.82707794064313,0.4178863286892508,0.353509823506956,0.6137206515962421,0.3066133025978477,0.8111111111110958,1
0.8213354126867893,0.41837531337794537,0.3365208989055778,0.6598184271308434,0.3071022854981247,0.8111111111110993,1
0.820883305519092,0.41782689846235965,0.3433156415354465,0.6061698443083522,0.3093517138713041,0.8111111111110993,1
0.8234519641253152,0.41849328530269714,0.3404587151324577,0.4239283894957643,0.29839806877747854,0.8222222222222157,1
0.8232845501783524,0.41766522723736166,0.3544474062009829,0.5112485477777123,0.293410229130843,0.8222222222222157,1
0.8234045728241888,0.4187877112054619,0.35663452085777575,0.5630862475171002,0.29135643978859027,0.8222222222222157,1
0.8254462477970022,0.4161461077014663,0.3607147674509068,0.4874549983797133,0.2936057917104091,0.8222222222222157,1
0.8254946678337374,0.416949428453768,0.36242433215925857,0.5735856090960005,0.29282338848942235,0.8111111111110993,1
0.8260264056561526,0.41349293833820555,0.3607263199140499,0.48389947650381193,0.29301902752034914,0.8111111111111029,1
0.8232672542467068,0.4094976866692117,0.36348197814956695,0.5295400130738592,0.29047617882645915,0.8111111111110993,1
0.8235868145080354,0.41298410995387536,0.3624100054686746,0.5234305263345911,0.2895959943156884,0.8111111111110993,1
0.8247621882247543,0.4119030095043899,0.357721534276841,0.477054424875106,0.2906718178573866,0.8111111111110958,1
0.8213085476526721,0.41003748811573193,0.36733603068136506,0.5280048514502724,0.28988941463639883,0.8111111111110958,1
0.8273854428613688,0.4110927061599653,0.3647452453468851,0.5560479411832903,0.28852024722535097,0.8111111111110993,1
0.8225539358246708,0.4100923521253135,0.36739150480319344,0.44612361314674454,0.28451037337926943,0.8111111111110993,1
0.8232149386631801,0.41128638329933265,0.37511575485440396,0.5111662427684649,0.28118519791575236,0.8222222222221944,1
0.8261291558907918,0.4091492385477387,0.3741316274817719,0.4916690832187461,0.28147854178510245,0.8222222222221944,1
0.8257989887866467,0.4077551772417023,0.3719204080154849,0.492962297299543,0.27991381179448793,0.8222222222222122,1
0.8238836724460543,0.41082140826843694,0.3780254363860338,0.5616810804015298,0.27218756087439533,0.8222222222222122,1
0.826719515125082,0.4088649570705012,0.37327330665686825,0.5155581443103295,0.27379594459172363,0.8222222222222086,1
0.8258342292741466,0.4102147093366212,0.3763555496912381,0.5169731604002021,0.2714487349287613,0.8222222222222051,1
0.8266472035775201,0.41046267154544036,0.3766997952485469,0.5493272992258258,0.27301354137073586,0.8222222222222157,1
0.8255634953947513,0.4076113595374578,0.3715216418919079,0.5208068026933489,0.27144873492876076,0.8222222222222157,1
0.8227253447929879,0.40696505160289687,0.37425633956609816,0.506887307622517,0.27037298783842345,0.8222222222222086,1
