wrist_ACC_1,wrist_ACC_2,wrist_ACC_3,wrist_BVP_1,wrist_EDA_1,wrist_TEMP_1,label
0.4781477819955705,0.48407040558977166,0.9380651893414355,0.3746966708800884,0.002848892260074648,0.5422535211267707,1
0.5708931960146281,0.5162268765897926,0.8770274380924343,0.6906943566742373,0.003255831415830135,0.5352112676056375,1
0.6053991448934496,0.5179316117089865,0.8760408940348454,0.47735994525896613,0.0028488922600747035,0.5352112676056375,1
0.7480604732301048,0.48645954112060746,0.7109832666247176,0.49564065288225545,0.0036627705715858716,0.5352112676056375,1
0.8280746987347967,0.5296660135731385,0.3939573239431747,0.49360804844570255,0.0024419531043192166,0.5352112676056411,1
0.8647770797337841,0.4760473896041588,0.14315974590658342,0.5970646539315531,0.0,0.5422535211267707,1
0.8445990081732411,0.547406568551333,0.4556515626476899,0.5359956720588598,0.000813878311511293,0.542253521126769,1
0.46480748035513364,0.5389116342516389,0.8780778555412598,0.5356695173424341,0.012616704677350613,0.5422535211267654,1
0.4863367500078593,0.4685257684052423,0.933228715022812,0.463935030880378,0.005290845364393684,0.5422535211267707,1
0.5137799168946027,0.49499736507517733,0.9275769661525628,0.3917065661886112,0.005290845364393476,0.542253521126769,1
0.5229904893925246,0.47272704922839126,0.9212977923927343,0.6013382244108212,0.004069709727341414,0.542253521126769,1
0.4842335536157346,0.5136904959723161,0.9439134350979607,0.28344616893714447,0.0036627705715856496,0.542253521126769,1
0.46586713617983383,0.465622185865954,0.9329356750211721,0.49028402640692853,0.07163083650654696,0.5422535211267743,1
0.4875533587548912,0.4876076022577662,0.9300302729838871,0.7332767840795518,0.03093151204463536,0.5492957746478933,1
0.5076790531277731,0.4695343027544397,0.9219267533920156,0.5127477989237444,0.020349503146063055,0.5492957746478915,1
0.4964013443737924,0.4844058571372853,0.925385197794038,0.45699700141601846,0.015465596937425094,0.5492957746478933,1
0.515866357462488,0.47158115142975554,0.9233671991468334,0.6416884616085388,0.014651718625914065,0.5492957746478968,1
0.5016834179685585,0.4826484917139641,0.9228712002267618,0.3498054007759369,0.01261670467735053,0.5563380281690158,1
0.5172835213782018,0.4708622027701197,0.9258164066648668,0.3949249776993265,0.011802826365839611,0.5563380281690158,1
0.5010219944022531,0.4764606472053216,0.9208693585305994,0.43286045787370847,0.010988629884542786,0.5563380281690158,1
0.5181675361318712,0.4627720141502558,0.9232446018601237,0.46828576557438534,0.009767812417275742,0.5563380281690211,1
0.5009584821511475,0.47595501125683953,0.9181357093007848,0.48219691799735803,0.00895393410576499,0.556338028169014,1
0.5223605554047062,0.4626339680216512,0.9262402905130982,0.450707030580389,0.006511981001445913,0.556338028169014,1
0.49368555777649253,0.4761042772246498,0.9097725145981242,0.4807072617598074,0.006918920157201344,0.556338028169014,1
0.5421076812063755,0.45960094199828666,0.9433479929853318,0.5031398684974937,0.006511981001445746,0.556338028169014,1
0.46127653871615215,0.5064420782789502,0.9544200797821598,0.4810801114088631,0.006511981001445746,0.5492957746478844,1
0.40686584959610994,0.506975081870122,0.9120909599733091,0.493987376813538,0.006918920157201608,0.5492957746478844,1
0.4257990455926236,0.4814112666731537,0.9730682159475131,0.5171236252790756,0.004476967052882738,0.5492957746478844,1
0.5258408192025209,0.5177931155587836,0.8849537550826122,0.47359792502954356,0.005290845364393684,0.5492957746478861,1
0.726209019288217,0.5161466101696683,0.7703895499457718,0.4345413698356596,0.004069709727341095,0.5492957746478933,1
0.8433078250052857,0.5229688713876098,0.44502183721622324,0.5761764047389399,0.0028488922600744954,0.5492957746478915,1
0.8323645461425278,0.5254902413900603,0.36407437333794107,0.5144702527340668,0.0012208174672670852,0.5492957746478933,1
0.8727232419809079,0.4943575560059317,0.6507999294349145,0.3988890789104754,0.0008138783115110154,0.5492957746478968,1
0.6595147440246024,0.5533583039422206,0.7925145812258796,0.6793280362646641,0.0028488922600744954,0.5422535211267494,1
0.5492888244503408,0.5336051613990948,0.8621851186402212,0.34061614731216144,0.00976781241727602,0.5422535211267459,1
0.4635887784857664,0.49203831432580564,0.9354285274422492,0.5093941268200056,0.0028488922600746203,0.5422535211267494,1
0.5039495539163772,0.5142593841170862,0.9378740021340043,0.6962326223700817,0.003662770571586038,0.5422535211267512,1
0.5266421700271624,0.4923558841917394,0.9308140404146992,0.3510849579754165,0.004476967052882752,0.5492957746478897,1
0.4364111651767653,0.5161662378700784,0.9136550905479338,0.19154995181133033,0.004883906208638142,0.5492957746478897,1
0.46186339745618216,0.483084432411609,0.9493145324280914,0.4440381657764022,0.004476967052882516,0.5492957746478861,1
0.5333813977560717,0.47832488987615074,0.9141679881276722,0.7485625616485475,0.003662770571585816,0.5492957746478915,1
0.5873332126230548,0.4918103302064081,0.8957146054709956,0.653739109401251,0.0036627705715856634,0.5492957746478915,1
0.6258842121648278,0.5036672135163135,0.8485861306425073,0.33004489189399666,0.005697784520149227,0.5492957746478915,1
0.6097505221195613,0.49488658189724316,0.8657600060283428,0.3792456889247661,0.011802826365839195,0.5492957746478915,1
0.5934483727475335,0.4948026480489645,0.8701352246932075,0.6409054530460376,0.007325859312956817,0.5492957746478968,1
0.6054951496295715,0.49134524842316585,0.8713480280205375,0.6621098711074619,0.006918920157201192,0.5563380281690122,1
0.6025385670362979,0.49368323362203875,0.8665533435330902,0.44265580116967884,0.005697784520149282,0.556338028169014,1
0.6045350905210046,0.49249676777777934,0.8707220363166104,0.4918171611235099,0.004069709727341303,0.556338028169014,1
0.6024551446955834,0.4967989831380361,0.8660229787342024,0.3883865235613456,0.003662770571585816,0.5563380281690158,1
0.6033066616301552,0.49782571679087434,0.8717974493169701,0.40905347662768377,0.0036627705715858716,0.5563380281690193,1
0.6010717565648493,0.49605937549288864,0.8663946136355405,0.5002261306871454,0.003255831415830371,0.5563380281690193,1
0.601116852638102,0.49263031158824133,0.87162823311155,0.47981951845893483,0.0028488922600744954,0.5563380281690193,1
0.5982548949870901,0.49542087022989384,0.8664074985096517,0.4999620894680148,0.0032558314158301904,0.5563380281690247,1
0.5948411883936426,0.49680447843588244,0.8736707110173596,0.5085009165003785,0.002848892260074648,0.5492957746478933,1
0.5914657048038704,0.497039483213853,0.8743049434070236,0.45904092701652693,0.002848892260074648,0.5492957746478933,1
0.5692198738479775,0.4960840649908607,0.890996141565537,0.5120227942031703,0.0016277566230224472,0.5492957746478933,1
0.5626183608220559,0.4927520013796283,0.8913872720955003,0.48717117829967566,0.003255831415829996,0.5492957746478933,1
0.5679567348268838,0.49287478236938187,0.8916323062402159,0.46457179723613146,0.002848892260074759,0.5633802816901419,1
0.5675003606398831,0.4922543091611366,0.8891052694941862,0.5345784196274598,0.002848892260074551,0.5633802816901419,1
0.5692270685732499,0.4937760607838516,0.8930727157983789,0.4929336108397335,0.0024419531043190917,0.5633802816901419,1
0.5681086853004577,0.4910110267866505,0.8873760266291574,0.45612259125745,0.0032558314158301904,0.5633802816901472,1
0.562502995390902,0.4924086090412589,0.8944160307806126,0.511675639515327,0.0024419531043191195,0.5704225352112715,1
0.5639376143303506,0.49213968272292913,0.8934290009356507,0.4660843306375481,0.0032558314158301904,0.5704225352112715,1
0.5667005734238113,0.49261041886499635,0.8921070435855787,0.5101721932620277,0.0032558314158303986,0.5704225352112751,1
0.5664158628658843,0.49224378918772904,0.8884835471633297,0.4964533414125679,0.0024419531043188836,0.5704225352112751,1
0.5686991225666651,0.4922335863851508,0.8907010828340332,0.450764494973081,0.002035013948563244,0.556338028169014,1
0.5791656078237744,0.4950934400989418,0.882618553132238,0.4931089855984669,0.0008138783115113762,0.556338028169014,1
0.5924536930457223,0.5008014872276254,0.8716060726538245,0.5450627544550158,0.00244195310431905,0.556338028169014,1
0.5986553625608273,0.504138992443034,0.8692057900799508,0.45321642502383563,0.0024419531043192166,0.5563380281690193,1
0.6136178510491302,0.5167881301308141,0.8630140011872276,0.5112011647766729,0.003255831415830135,0.5633802816901472,1
0.6187462453820696,0.5110303208061684,0.8526888009138011,0.5000317618909791,0.013023643833105988,0.5633802816901436,1
0.6055284074137826,0.5093278180576642,0.8651439914791024,0.5037349675667787,0.01098862988454273,0.5633802816901419,1
0.6055543671211694,0.5045594419990045,0.8575996169926541,0.5355041917127221,0.00895393410576499,0.5633802816901472,1
0.6054397633196991,0.5021632726132098,0.8641148421118032,0.4287663893400955,0.007732798468712665,0.556338028169014,1
0.6124900363600061,0.49908514113541325,0.8583727981015847,0.5551771135320132,0.007325859312957234,0.556338028169014,1
0.6027830911400669,0.5011886543616482,0.8653285278591256,0.46989782567171967,0.005290845364393684,0.556338028169014,1
0.6133522531465687,0.49929202759458297,0.860468598746275,0.41495193172776085,0.005697784520149227,0.5563380281690158,1
0.5041171428727917,0.5043151514160088,0.9184200348878705,0.43365408013330936,0.0044769670528822525,0.5633802816901401,1
0.4680306347489554,0.5008706845944985,0.9350922036710235,0.5216047696513701,0.04843212293062406,0.5633802816901401,1
0.48173342146380493,0.5067162921929323,0.9335791693146073,0.47404983219271607,0.07732893919648155,0.5633802816901401,1
0.49066963458259427,0.5073249129407683,0.9284156300572513,0.5045859605804194,0.07163083650654674,0.5633802816901419,1
0.5213241107179936,0.5141137381795351,0.9189479864733037,0.38287543845221483,0.06593305198639772,0.5633802816901365,1
0.5174529152975832,0.5080546698732751,0.9146033717995965,0.39863151270399405,0.05697911788063305,0.5633802816901365,1
0.5307935478248963,0.5072299823383158,0.914251090457506,0.645356663164952,0.04965325856767601,0.5633802816901365,1
0.5273444095130371,0.5071230557953855,0.9122521482825172,0.5999512273865573,0.04476935235903816,0.5633802816901401,1
0.5311302017577701,0.5091792793764002,0.9111090600754569,0.5691350946830794,0.04069932446191134,0.5739436619718497,1
0.5278121326183767,0.5051196529634485,0.9086767450784554,0.5383814403680911,0.03622235740902906,0.5739436619718514,1
0.5310121004020769,0.5043807291840275,0.9110298479636016,0.46642123824498477,0.03622235740902925,0.5739436619718497,1
0.5339322507423063,0.5005431424052701,0.9058291826321836,0.43448335564447005,0.03337346514895444,0.5739436619718497,1
0.5349733960128612,0.5006536862532003,0.9089801428962442,0.46542858274225857,0.03337346514895444,0.5704225352112644,1
0.5349503677617993,0.4995470775720692,0.9077274355736739,0.4511610552938448,0.032152647681688004,0.5704225352112644,1
0.5378798374580416,0.5009507695633498,0.9101930725104254,0.4899488021218194,0.03011763373312433,0.5704225352112644,1
0.5297664643549516,0.5005421534186566,0.9071878123212138,0.5019776152271229,0.02930343725182767,0.570422535211268,1
0.5380904734937084,0.5069121148819097,0.9086147463421691,0.46894665118710355,0.028896498096071796,0.5633802816901525,1
0.5321424561447823,0.5076217165966105,0.9090527491780116,0.5065062449302169,0.028082619784560822,0.5633802816901525,1
0.5325231499812679,0.5086190383306256,0.9118351016767974,0.49727381077879246,0.02686148414750876,0.5633802816901543,1
0.5367279012140884,0.5073278422220229,0.9048032316769843,0.47076551757267276,0.026454544991752968,0.5633802816901543,1
0.538504482444667,0.5087569834694133,0.9077881475308428,0.504052049977008,0.02564066668024191,0.5563380281690087,1
0.5367683364850901,0.5072428693292018,0.904065634621719,0.4894072057425753,0.024826470198945447,0.5563380281690087,1
0.5385456452487172,0.5088136679249535,0.9074808737001105,0.4680270717656924,0.023605652731678653,0.5563380281690087,1
0.5367177793288704,0.5072092767389278,0.9042119278776716,0.5082800975362102,0.024012591887434195,0.556338028169014,1
0.5386106526797791,0.5088163556426106,0.9073950373837254,0.4698885063613088,0.023605652731678542,0.5633802816901436,1
0.5366032305013563,0.5072771231894138,0.9042660847353454,0.47446327789442583,0.022791774420167485,0.5633802816901419,1
0.5397268722298016,0.5083569712466366,0.9073604150006308,0.5162383268084827,0.021977577938870854,0.5633802816901401,1
0.536858142275602,0.506451283182734,0.90428729763689,0.47356716266240584,0.022384517094626452,0.5633802816901436,1
0.5385411830355439,0.5075950044986338,0.907349151719858,0.47454905304500683,0.021977577938870715,0.5704225352112715,1
0.5366994447148685,0.5046586958889275,0.9042907562608888,0.5166054114811796,0.02157063878311523,0.5704225352112715,1
0.5386305942491465,0.5090548514897363,0.9073520152832332,0.47614094746137536,0.019535624834551665,0.5704225352112715,1
0.53662171671101,0.5068408940026792,0.904282784154559,0.4911756086303375,0.02116369962735988,0.5704225352112822,1
0.5387115708919155,0.5092450836559465,0.9073638124847215,0.5130814762303783,0.01872174652304044,0.5633802816901401,1
0.5365251152508024,0.5067401185841693,0.9042689669289627,0.4736416215545123,0.019942563990307402,0.5633802816901401,1
0.5388509037834415,0.5093629607890157,0.9073765037354912,0.495047658465125,0.02034950314606289,0.5633802816901419,1
0.5362030417942916,0.5064364063086146,0.9042632892459327,0.49293998665707767,0.019942563990307402,0.5633802816901436,1
0.5377179115954941,0.5058970830968607,0.9085240846264886,0.45950040073839704,0.019942563990307402,0.5633802816901436,1
0.5366216286579012,0.5025919734656872,0.9060039899263026,0.5053715157863281,0.019535624834551943,0.5633802816901436,1
0.5374481411516062,0.5030480111422461,0.9096936611891162,0.48825346653572743,0.019535624834551943,0.5633802816901436,1
0.5368502624604023,0.4986310388367573,0.906419868612331,0.46373540949305736,0.019535624834551582,0.563380281690149,1
0.5378617812454487,0.5019240195018267,0.9107852646020982,0.505508106807307,0.0191286856787964,0.5704225352112644,1
0.5301287070061322,0.499786529902273,0.907410464757883,0.47952145288075726,0.01872174652304061,0.5704225352112644,1
0.5350193008284596,0.5034480649507449,0.9104698803638275,0.48579455356360296,0.018721746523040636,0.5704225352112644,1
0.5369304617670364,0.5025415894098643,0.904709780572952,0.5162009765254885,0.01912868567879604,0.5704225352112644,1
0.5385359453766216,0.5061838594667223,0.9087652118651284,0.4799289334460999,0.017093671730232726,0.5704225352112591,1
0.536694986602361,0.5042698899657094,0.9033197560767436,0.4965348876128707,0.018721746523040803,0.5704225352112591,1
0.5386285075579715,0.5102033588865346,0.9098459708936384,0.5217291672668295,0.01790755004174409,0.5704225352112591,1
0.5362245320472653,0.507721920848844,0.9051344554018884,0.487071488747929,0.018314807367285232,0.5704225352112644,1
0.5384148643432047,0.5129874588154826,0.9114228756535547,0.5068207363519135,0.01872174652304044,0.5633802816901419,1
0.5363555020801907,0.4982805098955334,0.9019350774007246,0.4868901501279112,0.01912868567879618,0.5633802816901401,1
0.53768970816307,0.5031035056026048,0.9099228558313389,0.4811205452525753,0.01587285426296635,0.5633802816901419,1
0.5400953803927557,0.4969380739742928,0.901187809369844,0.6247249332968694,0.01424477947015805,0.5633802816901472,1
0.5419296067873665,0.5038917293946421,0.9113233701377844,0.48143694406072035,0.014244779470158328,0.5704225352112537,1
0.5475011110209707,0.4959159404209446,0.8988282515300811,0.3296480207211072,0.013430582988861642,0.570422535211252,1
0.5376669723394318,0.5048845199454535,0.9154579277439452,0.3984321131620266,0.013430582988861586,0.5704225352112573,1
0.6160209067458973,0.4907962242347625,0.8427929347205453,0.4351451129458356,0.012209765521595209,0.5704225352112591,1
0.8052770110236445,0.49990901811707095,0.6878310065355371,0.5078339770043611,0.013430582988861642,0.5704225352112715,1
0.7636415807420167,0.5150403344488067,0.2827373200406222,0.5658543840884153,0.010174751573031507,0.5704225352112697,1
0.9222944730014271,0.5287390980102497,0.17744347472887478,0.5096298366972077,0.0077327984687126095,0.570422535211268,1
0.704567886778044,0.5737461657210909,0.706151288145721,0.5754480135830013,0.008953934105764977,0.5704225352112751,1
0.4410590338139105,0.4701187254108642,0.9073675845457919,0.5045615298056966,0.0056977845201490185,0.5704225352112644,1
0.4801288139508123,0.5174196823378927,0.9650550210557999,0.4650617894649293,0.007325859312956984,0.5704225352112644,1
0.4564194066866951,0.5073435174555353,0.9631350274168694,0.4037811038269766,0.008139737624467985,0.5704225352112644,1
0.43891577845848295,0.5214049677903277,0.9181462034835534,0.29086257045470676,0.008139737624467971,0.5704225352112715,1
0.42245911305004585,0.5254650764068476,0.9420825766102279,0.3410903577897052,0.00773279846871229,0.5704225352112644,1
0.44344113399078705,0.4949821834170549,0.96992840744496,0.7856628794201321,0.0065119810014459545,0.5704225352112626,1
0.4973530539076546,0.5087459587548055,0.9171854892382916,0.7186529681202485,0.005290845364393573,0.570422535211268,1
0.5951071350698183,0.5220204242294487,0.879919185522432,0.6592928169520691,0.005697784520149116,0.570422535211268,1
0.7516663857032748,0.5477329564216051,0.7449402061547234,0.27552528242386026,0.006104723675904811,0.5704225352112751,1
0.6097790012977892,0.5270078198306493,0.8536252144843148,0.24485113371495387,0.004476967052882572,0.5704225352112751,1
0.5360565852456738,0.5099071391324133,0.8915584588131572,0.6140362987512896,0.004069709727341289,0.5704225352112751,1
0.6561435321031683,0.5296872640505886,0.826325508017678,0.6691366455591075,0.004069709727341303,0.5704225352112804,1
0.7414396800064014,0.5206711365390738,0.7258801915216637,0.4386231548552036,0.003255831415830246,0.5704225352112591,1
0.856915826071867,0.5349888985180289,0.4821715188653945,0.2330432760292674,0.0048839062086381835,0.5704225352112626,1
0.8062305450291989,0.5246197951770811,0.29280849487751537,0.41301060271316076,0.0028488922600747035,0.5704225352112591,1
0.8212283433500025,0.47634693636910597,0.14330716747208166,0.7385249769476281,0.002441953104318939,0.5704225352112591,1
0.8736469706185686,0.48426668391784117,0.19214935481076767,0.6769625209555182,0.0020350139485635077,0.5563380281690158,1
0.7634704841846742,0.5621084005359992,0.592942186158441,0.4012674697107605,0.002035013948563383,0.5563380281690158,1
0.4108625426588963,0.5033846082294101,0.9435445155711921,0.2992992811226767,0.0016277566230222945,0.5563380281690158,1
0.38845851971731077,0.5145816907472318,0.9509880367742506,0.4002901462084542,0.004476967052882461,0.5563380281690193,1
0.4160452583605,0.5138196384792478,0.9705751726283015,0.5730793552971438,0.005697784520149227,0.5633802816901472,1
0.4460826549544338,0.5005887017286271,0.9465196522918946,0.48573382138589805,0.00569778452014906,0.5633802816901472,1
0.4092346768928977,0.5070139940119618,0.9370624504755032,0.23720142108655123,0.005697784520149324,0.563380281690149,1
0.41136065983971737,0.4888319045570271,0.968557862586388,0.7560848787548264,0.005290845364393365,0.5633802816901525,1
0.46566014360885377,0.4848139487468433,0.9430325060469014,0.6930164441932067,0.0056977845201489075,0.5633802816901472,1
0.4811446160966555,0.4921451370372036,0.9383629285196113,0.5602434728055843,0.005290845364393559,0.5633802816901472,1
0.5057773470759201,0.501251382134779,0.9190974560020014,0.4647312591123493,0.006918920157201386,0.5633802816901472,1
0.5270314128014275,0.4991613032499187,0.9137453979579302,0.2711647675329869,0.008139737624468277,0.5633802816901525,1
0.5538071771741757,0.5000479544851701,0.8980947804469239,0.5299631841774995,0.006104723675904547,0.5739436619718372,1
0.5527124076446608,0.5061701043025885,0.9031101832535784,0.6479322018866103,0.005697784520149116,0.5739436619718354,1
0.5295609426424419,0.4947585507718601,0.9062970679284504,0.38415992133359045,0.006511981001445802,0.5739436619718319,1
0.5636672570763306,0.5036689626676717,0.8985714446071138,0.42390531228470746,0.006104723675904866,0.5739436619718372,1
0.5535008653974218,0.4961822871246486,0.8960649335705089,0.49037468768616965,0.005290845364393573,0.5704225352112626,1
0.568430333049164,0.5014763667642445,0.8940381225625045,0.45353400736407395,0.00529084536439374,0.5704225352112644,1
0.5614122939197308,0.49870485802032505,0.895289039364737,0.5107748768047672,0.004476967052882419,0.5704225352112644,1
0.5657853593152058,0.5015982828344087,0.8956547355538353,0.49150433271949256,0.0040697097273414,0.570422535211268,1
0.557433219690815,0.49890666183386495,0.8942284750707694,0.4601558835401047,0.0044769670528822525,0.5739436619718354,1
0.5623434907718616,0.5013919572668084,0.8975936510401108,0.4531114726267568,0.004069709727341414,0.5739436619718354,1
0.5549670874620489,0.49909175707359565,0.895805609690364,0.48182556854533276,0.004069709727341303,0.5739436619718372,1
0.5574269710486284,0.5012287978719957,0.897558313816849,0.5096936605540231,0.0016277566230222945,0.5739436619718372,1
0.5438962744138598,0.4992361107322597,0.9002118423564864,0.49658213955300895,0.004476967052882461,0.5704225352112644,1
0.5521102486985331,0.5010998243513178,0.9024697291139624,0.4819530648276993,0.004476967052882572,0.570422535211268,1
0.5448015109762642,0.49935280701857104,0.9054357697553521,0.5085139524184196,0.004476967052882322,0.5704225352112644,1
0.5494462172134514,0.5009925765131742,0.9062657725669985,0.4601364737466511,0.004476967052882461,0.5704225352112697,1
0.5447439945636923,0.49945345692130166,0.9045477333805905,0.5035712767950713,0.0044769670528822525,0.563380281690149,1
0.549398731500148,0.500895049003598,0.9057061515099368,0.47869381975079517,0.004476967052882488,0.5633802816901525,1
0.544722663303328,0.499553413930253,0.9045969386383195,0.497362971318536,0.004476967052882627,0.563380281690149,1
0.5496908278549202,0.5007804526119907,0.9059354041022014,0.509104097404029,0.0044769670528822525,0.563380281690149,1
0.541449905398584,0.49972257432031963,0.9056937386320213,0.4811529408610017,0.004069709727341178,0.5704225352112591,1
0.5421985122227022,0.5002758250705054,0.9059428831123195,0.5148123899589729,0.004476967052882641,0.5704225352112591,1
0.5423941628396938,0.4940269990408795,0.9057119426954351,0.5017885818717531,0.0020350139485634383,0.5704225352112591,1
0.5451364576787605,0.49833447473360637,0.9058956010356756,0.4855617362744782,0.0040697097273413585,0.5704225352112644,1
0.5453697104362225,0.49595959158789255,0.9058213833721422,0.5057585176774622,0.004476967052882114,0.573943661971839,1
0.5473582762139787,0.5000553210424589,0.9054875333057127,0.4772828827929345,0.0040697097273412475,0.573943661971839,1
0.5459706897624552,0.49983289097144784,0.9047084239584191,0.5125438806806656,0.004069709727341414,0.5739436619718425,1
0.5483137631212156,0.5006125113314295,0.9062779676403963,0.5045770993314054,0.00406970972734115,0.5739436619718443,1
0.5446231086634485,0.4997805832069749,0.9054630948624256,0.48075164619253763,0.004069709727341234,0.570422535211268,1
0.541178943261847,0.5006085230853948,0.9061374740815851,0.5065791663918765,0.0040697097273414,0.570422535211268,1
0.5391994408705216,0.4998005356227369,0.9055219739290293,0.48245495652621473,0.004069709727341442,0.570422535211268,1
0.5391365596358857,0.5005827303593036,0.9061075395815485,0.48263341113286123,0.004476967052882419,0.5704225352112697,1
0.5364290456617349,0.49982860324244865,0.9055376013842077,0.5014482479928231,0.0040697097273413585,0.5704225352112768,1
0.538764432057963,0.5005538776997812,0.9061005007140608,0.4581879321797055,0.0032558314158300933,0.5704225352112751,1
0.5365874611672868,0.49985756052469826,0.9055387168019081,0.5061296694933806,0.004476967052882516,0.5704225352112751,1
0.5386578916656607,0.5005251346833582,0.906103939125324,0.48617697810382116,0.0040697097273414,0.5704225352112768,1
0.5366649872922851,0.499885948267364,0.9055314562424968,0.4788523272515916,0.0040697097273413585,0.5704225352112751,1
0.5386137388765933,0.5004971488548879,0.906114644756382,0.4991937080722163,0.0040697097273413585,0.5704225352112751,1
0.5366359630010658,0.49991353901909563,0.9055174615297227,0.46324758548635625,0.004476967052882308,0.5704225352112751,1
0.5389959720947343,0.5004699139057845,0.9061319282039997,0.49124110798448206,0.004069709727341622,0.5704225352112804,1
0.5393471907007366,0.49994047877674586,0.9054967647257397,0.49465868819792025,0.004069709727341178,0.5633802816901472,1
0.540281541505232,0.5004431931975326,0.9061562775991435,0.47025460350612064,0.004476967052882697,0.5633802816901472,1
0.5390861021924472,0.4999670692583504,0.9054684050288473,0.5152964908755875,0.0040697097273414695,0.5633802816901472,1
0.539606352796456,0.5004166326205178,0.9061891401354009,0.4828709433007122,0.0044769670528825856,0.563380281690149,1
0.5371584817671922,0.49999371138386556,0.9054303821513362,0.49545879298749856,0.0028488922600748146,0.5633802816901401,1
0.5378559400751908,0.5003897867506157,0.906233194128574,0.4951191328648759,0.004476967052882572,0.5633802816901401,1
0.5386960250543237,0.5000208922544629,0.9053791376761144,0.47154004281810524,0.004069709727341567,0.5633802816901401,1
0.5406389679485828,0.5003621361115058,0.9062931961909608,0.5080654768565781,0.0044769670528822525,0.5633802816901436,1
0.5382710778618327,0.5000491356406702,0.9053082070010784,0.4760251475257184,0.0040697097273414695,0.570422535211268,1
0.5382118607387993,0.5003332283853357,0.9063781749787398,0.49150868454483126,0.0040697097273414695,0.570422535211268,1
0.5399360109994172,0.5000786250834287,0.905204445179663,0.5064229296977061,0.0040697097273413585,0.570422535211268,1
0.5396974605899809,0.5003036759258744,0.9065085697525297,0.46694977378671604,0.00406970972734115,0.570422535211268,1
0.5401542994096711,0.5001064252991952,0.9050321533475133,0.5069247835037364,0.004476967052882419,0.5739436619718195,1
0.5390793744278989,0.5002839053355846,0.9067643245991722,0.48170539673245094,0.004476967052882683,0.5739436619718195,1
0.5438369526567999,0.5000910559618776,0.9044156748739788,0.48258709994329485,0.004476967052882683,0.5739436619718195,1
0.5538505119373267,0.5005715991103661,0.8991931612918027,0.5092572399088026,0.001220817467266988,0.573943661971823,1
0.5703986453469194,0.5050877942339651,0.8907087997660827,0.48315745840464897,0.004476967052882308,0.5704225352112697,1
0.5649912209580014,0.510367198770205,0.8927521178529287,0.5050614840174852,0.0044769670528823635,0.570422535211268,1
0.5708635279615859,0.5130499344661468,0.8879046696940045,0.5074998801474901,0.004069709727341567,0.5704225352112697,1
0.5649470589318233,0.5037684200863356,0.8961444779093354,0.4825963991775479,0.003662770571585608,0.5704225352112751,1
0.6004567986859124,0.47417983209747355,0.8709865697649589,0.4970706898991553,0.003255831415830246,0.5633802816901401,1
0.5551322830675145,0.47377749027277793,0.8966054625059526,0.47588188258261627,0.004069709727341414,0.5633802816901365,1
0.5241371480270531,0.46296681817187646,0.915699972819044,0.4876436136499041,0.004476967052882461,0.5633802816901401,1
0.5505986686944386,0.4463055966322072,0.8964512275357261,0.5069401948812121,0.005290845364393948,0.5633802816901419,1
0.5592761844644489,0.45698328249077264,0.8926876262094474,0.44800237664618175,0.005290845364393892,0.5704225352112751,1
0.590595513935057,0.4533502968035844,0.8785643579178323,0.5642154133616457,0.004476967052882627,0.5704225352112715,1
0.6523143338018738,0.4619715128254635,0.82677582617204,0.6046740282181422,0.003255831415830357,0.5704225352112697,1
0.6731376761974313,0.4801664392152937,0.8097410311197054,0.4804828571255514,0.003662770571585927,0.5704225352112751,1
0.5899278739872351,0.5315740581544512,0.8768416731974386,0.30166760885604055,0.0024419531043189946,0.5704225352112715,1
0.5589460340252843,0.5238482725372692,0.8944106861553682,0.3656668227519204,0.0040697097273413585,0.5704225352112715,1
0.5890438400457538,0.49985550152366826,0.8737239120567035,0.6169551236311499,0.004069709727341414,0.5704225352112715,1
0.5909815036900465,0.4869073176976829,0.8716748412315022,0.47712988721099453,0.0032558314158301904,0.5704225352112768,1
0.5973074430418397,0.5014624521139597,0.869765436198432,0.4480423700985363,0.0036627705715854136,0.5633802816901436,1
0.5856130233059482,0.5042334838573557,0.8765909479591546,0.4568368838596019,0.0032558314158303986,0.5633802816901436,1
0.5617625284333185,0.5016716657153274,0.894090158403148,0.4594026408511263,0.002848892260074759,0.5633802816901472,1
0.5452003881893619,0.5019046730646426,0.9010096256222389,0.4688373431131423,0.0036627705715856496,0.5633802816901472,1
0.5330049847662364,0.5028011738206626,0.908519015635729,0.46840704437140074,0.003255831415830357,0.5704225352112697,1
0.5363152761915426,0.5080737612781645,0.909023903574035,0.4386244016613004,0.0032558314158303986,0.5704225352112697,1
0.5291428842555097,0.507969809650626,0.9101869720474293,0.4283760631694335,0.004476967052882308,0.5704225352112697,1
0.49924802694312714,0.5075444128090854,0.9226085294224038,0.5602275818686961,0.004476967052882461,0.5704225352112751,1
0.4808487486963883,0.5033213806571616,0.9284259188652879,0.573335428566737,0.0077327984687127205,0.5633802816901419,1
0.5099206021789113,0.5048037979972932,0.9224607916367992,0.5989644205382633,0.008139737624468305,0.5633802816901436,1
0.504604085127337,0.5039723945738661,0.9237273100515223,0.5130240735599528,0.006918920157201497,0.5633802816901419,1
0.5161638032888186,0.5035328168881352,0.9154442166530128,0.46258766812050967,0.00651198100144583,0.5633802816901419,1
0.5157330785868017,0.504996657501172,0.9157121352369957,0.46230057470405367,0.006511981001445996,0.5704225352112715,1
0.5218556814750039,0.5045765225955705,0.9141297282157482,0.5769984755498481,0.006104723675904811,0.5704225352112715,1
0.519693449120713,0.5036080565641189,0.9161651248529079,0.5445444524900789,0.005697784520149171,0.5704225352112715,1
0.5324663514572565,0.49996444489291825,0.9120899059374697,0.4816519609029293,0.0036627705715858716,0.5704225352112751,1
0.5358379384505774,0.5003801271264109,0.9065228783580196,0.4942081079870048,0.004476967052882627,0.5704225352112751,1
0.5616196260711546,0.5018093769397934,0.8967497371104918,0.4808703746652456,0.005290845364393573,0.5704225352112751,1
0.536018515698854,0.5027348197918163,0.9080594079486345,0.48116984692279735,0.004476967052882738,0.5704225352112768,1
0.5275358090651636,0.5044098922893872,0.9141087251261399,0.5053048147477237,0.004476967052882419,0.5704225352112804,1
0.5307292408246684,0.5045632285749667,0.9114141276637204,0.49813105303194594,0.004476967052882308,0.570422535211268,1
0.5281203593627226,0.5014174387634021,0.9144442382607971,0.5030883869407323,0.005697784520149282,0.570422535211268,1
0.5278089125193153,0.5023116554081171,0.9144579268545191,0.37017072899936576,0.0048839062086381,0.570422535211268,1
0.5288505676204924,0.5030803443827156,0.9131265464601477,0.4879292769241769,0.004883906208638253,0.5704225352112715,1
0.5274303812718637,0.5017730446700358,0.9135370854167203,0.567199421855955,0.005290845364393532,0.5704225352112804,1
0.5290760754921623,0.5016820785287202,0.915331407949065,0.43027932183378226,0.004883906208638045,0.5704225352112804,1
0.5272867483569013,0.5026476035226509,0.9137314966921359,0.4547359940540144,0.0048839062086381,0.5704225352112768,1
0.5291709601686531,0.5044777993139045,0.915007862798833,0.47391295220492774,0.0032558314158303153,0.5704225352112804,1
0.5272229240993305,0.5025783386249332,0.9149289939454256,0.49457680232422074,0.004883906208638253,0.5704225352112697,1
0.5292140420349603,0.505433227197034,0.9151769711003035,0.48118715154226016,0.005290845364393823,0.5704225352112697,1
0.5271941716620148,0.5069907605373933,0.9138508741749539,0.4980241045578335,0.0036627705715858716,0.5704225352112697,1
0.5292326494367121,0.5057212566218444,0.9148968793244967,0.48316049409492173,0.004476967052882572,0.5704225352112751,1
0.5271828689989528,0.5053617163622476,0.9139351341985459,0.4878223904644283,0.004069709727341095,0.5633802816901419,1
0.5292386427996978,0.5040426447500951,0.9142519559092207,0.49629369487669067,0.004883906208638239,0.5633802816901419,1
0.52718073582663,0.5056125211808001,0.9119815728961526,0.4837296683954008,0.004476967052882544,0.5633802816901436,1
0.5292380075953531,0.5041313571182405,0.9138809685493356,0.49632191594886005,0.004883906208638128,0.5633802816901472,1
0.5271832761696387,0.5047199535540066,0.9141415028593044,0.4874121196048126,0.004069709727341303,0.5704225352112697,1
0.5292342954018094,0.5021730935802609,0.9150645480061672,0.4955343837982581,0.004883906208638128,0.5704225352112697,1
0.5271874641119806,0.4997782333105976,0.914047317038126,0.49802260686310057,0.0036627705715857467,0.5704225352112697,1
0.5292304081750645,0.5011525797512757,0.9141011112191878,0.4757607915885987,0.004476967052882572,0.5704225352112751,1
0.5271899898501538,0.5025165646298627,0.9143123087353294,0.4979574291069386,0.004476967052882516,0.5704225352112751,1
0.5292310492468713,0.5028730193314187,0.9156109365966806,0.4683923542429935,0.004476967052882641,0.5704225352112751,1
0.5271823109260025,0.5034465680222227,0.9131600669770807,0.5134759300195278,0.004476967052882752,0.5704225352112751,1
0.5292568790112004,0.5042257702980508,0.9140081068695715,0.4858331126051044,0.004476967052882461,0.5704225352112751,1
0.5270828848798558,0.502973717298423,0.9153425292821892,0.4798478548903763,0.004883906208638017,0.570422535211252,1
0.528014632778991,0.5063648347093493,0.9148391979894733,0.5111154936958444,0.004069709727341622,0.570422535211252,1
0.5273932865438968,0.5024962562496307,0.9151192374214338,0.4854288566245619,0.0048839062086381,0.570422535211252,1
0.5290740601801849,0.5044188350678059,0.914956544277319,0.4917064998858862,0.0040697097273414695,0.5704225352112573,1
0.5273413254831575,0.5053485274825552,0.9150364537191478,0.49362936475757274,0.004476967052882308,0.5739436619718319,1
0.5290594573907251,0.5055550816994665,0.9150304474379833,0.4715524386065799,0.0032558314158301627,0.5739436619718319,1
0.5274308271017755,0.5056140553155164,0.9149501819857705,0.5052282476882596,0.004069709727341345,0.5739436619718354,1
0.5281994606711007,0.506171865268918,0.9151823718645661,0.4794283947386732,0.004476967052882461,0.5739436619718372,1
0.5257837369851254,0.5034818951063613,0.9140116662645781,0.48601974690997146,0.0024419531043192028,0.5739436619718354,1
0.5291184455357498,0.5061817775392224,0.9146437248708614,0.49772098542477944,0.004883906208638197,0.5739436619718354,1
0.5272707178483974,0.49986047302167147,0.9151874075984787,0.47499461073142074,0.004883906208638197,0.5739436619718354,1
0.5291477843491943,0.5006606063022313,0.9148917673977897,0.4956043692391898,0.004476967052882572,0.5739436619718372,1
0.527275856891408,0.4997897838425611,0.9151318513110264,0.5014767614903352,0.004883906208637934,0.5704225352112715,1
0.5291398307819057,0.500547943207935,0.914833246625056,0.4677174819447524,0.0048839062086381,0.5704225352112697,1
0.5272831689129032,0.49991183734961286,0.9139025997358333,0.5039116966664564,0.0044769670528825856,0.570422535211268,1
0.5291338345179719,0.5003942210370992,0.9151403712941623,0.49041810351434684,0.004069709727341442,0.5704225352112715,1
0.5272875713317555,0.5008792534355009,0.9149457759364437,0.4846063777391774,0.0028488922600746064,0.5633802816901436,1
0.5291313388160914,0.502279782095673,0.9150531285590585,0.5063820048278144,0.004476967052882641,0.5633802816901436,1
0.5272876584043695,0.5042630879481278,0.9150377437064791,0.4851795674972417,0.0036627705715856634,0.5633802816901436,1
0.5291345097035816,0.5054871110032492,0.9139921210844534,0.4829726530798719,0.004476967052882738,0.5633802816901543,1
0.5272797397467945,0.504920934154893,0.9147825737410225,0.497262697667184,0.0036627705715855385,0.570422535211268,1
0.529149964319369,0.5054848762046853,0.9149506559809827,0.4750316556027186,0.0040697097273414695,0.570422535211268,1
0.5272509476454252,0.5040837694553776,0.9129754933713531,0.503899878492163,0.0036627705715858716,0.570422535211268,1
0.5292064297903702,0.5006926732622924,0.9150330775103661,0.47225326041795296,0.004069709727341608,0.5704225352112697,1
0.5271183340666256,0.49985865441524446,0.9138426111130845,0.4882502129225704,0.0040697097273414695,0.5739436619718319,1
0.5297965189154912,0.5004888602936259,0.9113109916222547,0.49710856524569463,0.004069709727341567,0.5739436619718319,1
0.5281302963239376,0.4999429277806384,0.9123594705579244,0.472963433285306,0.004476967052882627,0.5739436619718319,1
0.5299637898706164,0.5004197008281375,0.9140340692407292,0.5037190269745839,0.0028488922600746064,0.5739436619718372,1
0.5275406795138622,0.5000216793073932,0.9133064378609583,0.4934423434149042,0.004069709727341664,0.5739436619718372,1
0.5289168233389248,0.5002928589755017,0.9149105480880729,0.4909721987471026,0.004069709727341442,0.5739436619718372,1
0.5274823190207594,0.5004443541585802,0.9139011576442653,0.5049166376121759,0.0036627705715858577,0.5739436619718372,1
0.5289546927226918,0.5048678482256134,0.914639985055786,0.46974774770005745,0.004069709727341289,0.5739436619718372,1
0.5274313296376977,0.5031097941020218,0.9125755475506991,0.5031638921230156,0.0036627705715857606,0.5704225352112591,1
0.5291511252838088,0.5055191702718415,0.911108111106878,0.47487607790346453,0.004069709727341511,0.5704225352112591,1
0.5287569228929645,0.507506300044033,0.9113787145923332,0.4912444763769766,0.0036627705715860798,0.5704225352112591,1
0.5283482427310258,0.5037306182821539,0.9118944149147881,0.4902719343244122,0.003662770571585927,0.5704225352112626,1
0.5290262584224594,0.4993107099619018,0.9101646469750273,0.4805164013683982,0.0036627705715856634,0.5739436619718319,1
0.5312848766916567,0.5008025317634992,0.9107204747281383,0.5049129292818566,0.003662770571585608,0.5739436619718301,1
0.534888570927495,0.49969649259592896,0.906933739938554,0.4736089378984277,0.002848892260074884,0.5739436619718301,1
0.5365242371528713,0.5006513107472133,0.9072645600368414,0.4975421102440112,0.0036627705715856496,0.5739436619718372,1
0.5303324428392849,0.4997711530513277,0.9111192940242657,0.4976856626915418,0.0040697097273413585,0.573943661971823,1
0.5301965769943158,0.5006153567151944,0.9137391213033041,0.47679702005000985,0.004069709727341414,0.573943661971823,1
0.5270140088892815,0.49977772667772996,0.9146360752029206,0.5111067154880689,0.003662770571585816,0.573943661971823,1
0.5293138342441233,0.500646234348887,0.9152612095445343,0.47492838247631475,0.004069709727341678,0.5739436619718266,1
0.527146363867949,0.4996575614701753,0.9148076144440713,0.5024224682566646,0.0036627705715859826,0.5739436619718319,1
0.5292501367996476,0.5013987450313079,0.9150948013414908,0.4813097417222307,0.004476967052882544,0.5739436619718301,1
0.5271836798976355,0.5031948443335662,0.9125436289472885,0.4798036132033168,0.0040697097273414695,0.5739436619718301,1
0.5292273233659924,0.506509930538444,0.9153964030976166,0.5064854819989562,0.004069709727341511,0.5739436619718354,1
0.5271970864469464,0.5054475103989308,0.9146212540530518,0.48309418151821115,0.0040697097273413585,0.5704225352112768,1
0.5292206770668968,0.5035967184486954,0.9142687169129098,0.507167235505674,0.0028488922600746203,0.5704225352112768,1
0.5271984920272417,0.4997010019418003,0.9146005934588413,0.4871264705952768,0.003662770571585719,0.5704225352112768,1
0.5292235926902549,0.50061519037873,0.9154361220929227,0.47961169420342664,0.0036627705715857467,0.5704225352112822,1
0.5271918215484932,0.49980465540523167,0.914617001507729,0.5036606172685851,0.004883906208637823,0.5704225352112697,1
0.5292336765836809,0.5005899132872055,0.9144657266381109,0.46680862056606565,0.004069709727341622,0.5704225352112697,1
0.5271785121486093,0.4997985734549543,0.9141897888484596,0.5146592250889429,0.004476967052882572,0.5704225352112715,1
0.5292501356867669,0.5006149616190005,0.914316996589048,0.48053518729700406,0.004069709727341303,0.5704225352112751,1
0.5271588914634564,0.49976033305562356,0.9119370556699476,0.5074858032580324,0.004069709727341442,0.5739436619718372,1
0.5292730034321615,0.500640564258874,0.9139770956802786,0.5056935257875046,0.00529084536439374,0.5739436619718372,1
0.5271326249202324,0.5003877214218364,0.9123061960592105,0.46811671154898477,0.0040697097273412475,0.5739436619718372,1
0.5293028841865586,0.5060824000573861,0.91345274406778,0.4973726479730277,0.004883906208638017,0.573943661971839,1
0.5270988497760325,0.5052843034065084,0.9139252136312813,0.4835989445227086,0.0028488922600748146,0.5704225352112644,1
0.5293409028872,0.5033468691944087,0.9154870578449695,0.4829746506793105,0.004883906208638045,0.570422535211268,1
0.5270561621963402,0.5053171232199214,0.914578191321117,0.5013581321351966,0.004069709727341511,0.5704225352112644,1
0.5293887709969604,0.5024721899033364,0.9144932305876214,0.46386782989003283,0.0040697097273412475,0.5704225352112644,1
0.5270025021554444,0.5017579818192979,0.9142423506327334,0.5030331805434112,0.004476967052882488,0.5739436619718319,1
0.5294489511782858,0.5001854539413632,0.9155224077899243,0.4732505228495055,0.004069709727341289,0.5739436619718319,1
0.5269349356249868,0.5001474563806173,0.9124038813386651,0.48391773958973316,0.0024419531043191472,0.5739436619718319,1
0.5295249342035739,0.5003240025763437,0.9146739359804913,0.4887805694144,0.0040697097273414695,0.5739436619718372,1
0.5268493103464742,0.49996713390091335,0.9131411050394352,0.488690927247846,0.004069709727341497,0.5704225352112751,1
0.5296216634408615,0.5007656898654802,0.9154876596914884,0.49863437466497346,0.004069709727341345,0.5704225352112751,1
0.5267397178560688,0.5027904200716368,0.9124523625871985,0.48973499136048887,0.004069709727341622,0.5704225352112768,1
0.529746321008616,0.5038457611274351,0.9110838986318535,0.48074349601330385,0.003662770571585719,0.5704225352112804,1
0.5265967872278307,0.503725945233906,0.9111625526228336,0.5117704457499749,0.00406970972734115,0.5739436619718354,1
0.52991489859804,0.5025634196297478,0.914706162114624,0.47307577936599926,0.0048839062086381,0.5739436619718354,1
0.5263648737608995,0.5034354524405997,0.9127651976553866,0.5038406925513487,0.0040697097273414695,0.5739436619718354,1
0.5308517140291464,0.5034740754789647,0.9116875413363142,0.47602446692972705,0.004476967052882516,0.5739436619718372,1
0.5444595537776938,0.5094269158376656,0.8990764018601823,0.48757431004990776,0.0040697097273413585,0.5739436619718372,1
0.5609945373031624,0.5170185793981378,0.8981773910746094,0.49222908886611355,0.004476967052882516,0.5739436619718354,1
0.557692986414378,0.5172710472685957,0.8890725111095825,0.4781529910906656,0.004476967052882516,0.5739436619718319,1
0.583731418944827,0.5323662139162005,0.8830002722346162,0.498267238617946,0.004883906208638017,0.5739436619718372,1
0.5806785848229923,0.5320157985595273,0.8734091241860131,0.5028968353822384,0.010174751573031673,0.5704225352112591,1
0.5885253779653739,0.5313678409170016,0.8829708348639873,0.5172736996989247,0.011802826365839444,0.5704225352112591,1
0.5804608258641946,0.5313254921176289,0.8724663814458347,0.5540669160939689,0.009767812417275881,0.5704225352112591,1
0.5898267590434328,0.5276639728267221,0.8862200453009592,0.636193518461139,0.009360873261520589,0.5704225352112644,1
0.5789242823869456,0.5248463995815782,0.8621407083916386,0.4829940554321284,0.0093608732615202,0.5704225352112697,1
0.7764476195864409,0.5164361057452725,0.743881721784442,0.270465733395493,0.009360873261520533,0.5704225352112697,1
0.7836713067301673,0.5011195801998432,0.37429264132136236,0.44281041922049563,0.006918920157201552,0.5704225352112715,1
0.8818274271819677,0.512115343844786,0.08870167091142878,0.46320735998619716,0.004476967052882544,0.5704225352112751,1
0.7839327052169158,0.5878269852723117,0.5282534304622333,0.5944673388444163,0.008953934105764824,0.5633802816901401,1
0.4230519205989324,0.4816801435747592,0.9035179501500646,0.4993362687434204,0.0028488922600748146,0.5633802816901401,1
0.5091828545137567,0.5118918907430399,0.9772124575325274,0.43273901414789806,0.005697784520149088,0.5633802816901401,1
0.484061934152215,0.5077352289939389,0.9159866650958994,0.4097179750228339,0.006511981001445913,0.5633802816901419,1
0.44185763019017565,0.5185605704761728,0.9202169518981728,0.3710289277277681,0.004883906208638045,0.5704225352112804,1
0.4721575570366341,0.4880247916749571,0.9510876185134709,0.1982946966750606,0.00529084536439367,0.5704225352112822,1
0.5822051623523485,0.5051502601834944,0.9003346848832348,0.9619752864219628,0.005697784520149435,0.5704225352112804,1
0.5796009056769496,0.5129939910529845,0.8707960613860681,0.8063614966221824,0.0044769670528823635,0.5704225352112804,1
0.6315804118458646,0.5147708664116553,0.8508073848002717,0.12461431365189712,0.0056977845201492405,0.5704225352112537,1
0.6889892289857581,0.5195035177710574,0.7908677074075898,0.26742696595269044,0.006511981001446218,0.5704225352112537,1
0.7197366938139556,0.5133729803029948,0.7864612765977089,0.7269319415713508,0.005697784520149227,0.5704225352112537,1
0.5433225052344459,0.5122469839530153,0.8855046330384362,0.5546349309801034,0.0040697097273414695,0.5704225352112591,1
0.49845358162468834,0.5043153494758523,0.9241358770716329,0.5136703623491683,0.004069709727341095,0.5704225352112697,1
0.5480931727453753,0.5085596128891573,0.8998466879326376,0.6481730640345017,0.0048839062086381,0.5704225352112697,1
0.5300252812987132,0.5009985533898627,0.9105187499122168,0.2934390314864051,0.0036627705715858716,0.5704225352112715,1
0.5536490191180548,0.5007610542747508,0.8997393802627807,0.2595461468816441,0.0040697097273412475,0.5704225352112751,1
0.5514654824946145,0.49783892135661656,0.8986295448756343,0.5758039781404445,0.0024419531043190917,0.5704225352112751,1
0.5583307908165083,0.49893485486817074,0.8966371859452376,0.6613481473361169,0.004069709727341442,0.5704225352112715,1
0.5521003042823165,0.5005986789147076,0.9011947958490812,0.43973943823565875,0.003662770571585816,0.5704225352112751,1
0.5572543028655892,0.49998657523310264,0.8947288630478252,0.4246899045886855,0.004069709727341497,0.5704225352112751,1
0.5534302432342735,0.5003322257444852,0.8983921185099759,0.45367805265930405,0.0020350139485635216,0.5704225352112715,1
0.5563760410842282,0.5001054809520586,0.8949177632367752,0.5372402660122846,0.004476967052882572,0.5704225352112697,1
0.5523350597353673,0.5002675384488989,0.8987840912415902,0.45999650584648083,0.004069709727341414,0.570422535211268,1
0.5562668539532591,0.5001447284760301,0.896648636216949,0.5280192518988109,0.0040697097273413585,0.5704225352112715,1
0.5537262360855804,0.500241941532854,0.8983025726065486,0.47150826822948433,0.004069709727341345,0.5739436619718372,1
0.5577410637464013,0.5001623322961761,0.8952657329823954,0.5116448952159318,0.0040697097273413585,0.5739436619718372,1
0.554477820896148,0.5002293213944441,0.897882936751346,0.4917168175079994,0.004476967052882308,0.5739436619718372,1
0.5570839469142241,0.500171691301707,0.8954339900224917,0.4850797323204169,0.0032558314158304263,0.5739436619718372,1
0.5557968521396226,0.500222181371585,0.8977621685238721,0.5062963750783972,0.0040697097273412475,0.5739436619718372,1
0.5572471257478795,0.5001772710525964,0.8955341039377093,0.49117074582510317,0.004476967052882683,0.5739436619718372,1
0.555798195852417,0.5002177304084949,0.8976747016389289,0.4911499609794724,0.004476967052882461,0.5739436619718372,1
0.5572160657240925,0.5001808844386231,0.8956124322207321,0.5088853659560624,0.004476967052882544,0.573943661971839,1
0.5558363174113954,0.5002147529888201,0.8976035647965344,0.4685917524698506,0.0040697097273414695,0.5739436619718354,1
0.5571774520643822,0.5001833685804824,0.8956776354885758,0.5146682693447916,0.004883906208638197,0.5739436619718354,1
0.5558731717040242,0.500212659177602,0.8975433991528152,0.4761398625155147,0.0024419531043192444,0.5739436619718354,1
0.557143106046029,0.5001851475956626,0.89573344344652,0.49571357728551474,0.004883906208637823,0.573943661971839,1
0.5559048565789712,0.500211138719407,0.8974914106363646,0.4935867159027778,0.004476967052882683,0.5704225352112626,1
0.5571139846298003,0.5001864518977638,0.8957820511823451,0.4774492399471821,0.004476967052882461,0.5704225352112626,1
0.5559316171317911,0.5002100182733179,0.897445818624768,0.496097700865664,0.003662770571585719,0.5704225352112626,1
0.5570893421279246,0.5001874132880195,0.8958249360651409,0.4773008512035883,0.0044769670528823635,0.5704225352112626,1
0.55595439590867,0.5002091968033637,0.8974053768082437,0.4893516247607072,0.004883906208637989,0.5704225352112591,1
0.5570681726555637,0.5001881096185251,0.8958631629960496,0.49308714091508143,0.004476967052882572,0.5704225352112591,1
0.5559742082279315,0.5002086142428681,0.897369165981631,0.4712747745200639,0.004476967052882738,0.5704225352112591,1
0.557049464498983,0.5001885870498362,0.8958975320854291,0.5100018051343924,0.004476967052882683,0.5704225352112644,1
0.555992073408837,0.5002082355341245,0.897336484762548,0.46470825969334684,0.004476967052882308,0.5704225352112751,1
0.5570321609880997,0.5001888715637662,0.8959286619268579,0.5089521557541711,0.004883906208637989,0.5704225352112715,1
0.5560091349699878,0.500208042315921,0.8973067846488105,0.4801449139655112,0.004883906208638253,0.5704225352112751,1
0.5570149546008857,0.5001889749249195,0.895957041194936,0.49587403445990014,0.004476967052882266,0.5704225352112768,1
0.5560269869448096,0.5002080287316604,0.89727962839469,0.5016689732796272,0.0044769670528823635,0.5739436619718301,1
0.5569957608121172,0.500188897499381,0.895983062650911,0.48613275017651153,0.0040697097273414695,0.5739436619718266,1
0.5560485656822878,0.5002081997184387,0.8972546619297187,0.5081796116467248,0.004476967052882377,0.5739436619718301,1
0.5569701014460681,0.5001886290268023,0.8960070465463091,0.47811415230392323,0.004883906208638197,0.5739436619718319,1
0.5560813388267308,0.5002085710798047,0.8972315946960163,0.4990762341476517,0.004476967052882572,0.5704225352112715,1
0.5569240742200843,0.5001881477341033,0.8960292572603754,0.4808483519866733,0.0040697097273413585,0.5704225352112697,1
0.5561555164307683,0.500209171211961,0.8972101854810113,0.4884224314777446,0.004476967052882572,0.570422535211268,1
0.5567721329371444,0.5001874176839527,0.8960499154332385,0.4978601369452559,0.0040697097273413585,0.5704225352112751,1
0.5567695142980769,0.5002100448329952,0.8971902319719938,0.4722130895253934,0.004883906208637934,0.5704225352112697,1
0.5577445746649714,0.5001863837327509,0.8960692070015319,0.5112424387133011,0.004883906208637934,0.5704225352112697,1
0.5558979833451672,0.5002112596814922,0.8971715629053965,0.4682244786964562,0.0032558314158301904,0.5704225352112697,1
0.5592988742365463,0.500184962681958,0.8960872900477195,0.5089780355369433,0.0040697097273413585,0.5704225352112751,1
0.5560430801903007,0.5002129182217825,0.8971540320680901,0.48703466032390136,0.0036627705715855524,0.5739436619718266,1
0.5570729731315573,0.500183027698076,0.8961043000728585,0.4871917398553111,0.004883906208638197,0.5739436619718266,1
0.5559567145157529,0.5002151785841225,0.8971375136468279,0.49711416214197873,0.0040697097273414,0.5739436619718301,1
0.5570716565517877,0.5001803798097008,0.8961203541117394,0.47335466415295946,0.004476967052882461,0.5739436619718301,1
0.5559660994167701,0.5002182939616457,0.8971218985755396,0.5064100575276176,0.004476967052882572,0.5633802816901472,1
0.5570622939841884,0.5001766924608775,0.8961355539848153,0.4826401001811139,0.004883906208638197,0.5633802816901472,1
0.5559741430061887,0.5002226923013251,0.8971070916318435,0.4878373200828444,0.0044769670528822525,0.5633802816901472,1
0.5570556640555678,0.5001713941444247,0.896149988897865,0.4919994399294694,0.004883906208637989,0.563380281690149,1
0.5559795061224708,0.5002291541624992,0.8970930091030214,0.46709362112635433,0.004883906208638142,0.5704225352112697,1
0.5570513919595338,0.5001633896264464,0.8961637375431976,0.508051693437334,0.004476967052882488,0.5704225352112715,1
0.5559828429599493,0.5002392677403976,0.8970795768893236,0.4616771941418076,0.004883906208638197,0.5704225352112697,1
0.5570488624696284,0.5001502793346855,0.8961768698163478,0.5024225705871926,0.0036627705715856634,0.5704225352112697,1
0.5559846677618969,0.5002568552651114,0.8970667289459652,0.4870687043275564,0.0048839062086380725,0.5704225352112715,1
0.5570476603474727,0.500125525441875,0.8961894482339806,0.48665493881685956,0.004883906208638045,0.5704225352112715,1
0.5559853128729646,0.500294315487719,0.8970544059890437,0.5128724994477118,0.004883906208638045,0.5704225352112715,1
0.5570475193954111,0.5000612447595596,0.8962015291184733,0.4800637283042738,0.004883906208638045,0.5704225352112751,1
0.5559849924478384,0.5004434438885335,0.8970425544078033,0.5113036956358848,0.004476967052882461,0.5704225352112715,1
0.5570482663793406,0.5009594433884675,0.8962131636000205,0.4840111667158963,0.004476967052882433,0.5704225352112715,1
0.5559838473713363,0.500698458666027,0.8970311253381564,0.49336504765418354,0.004476967052882572,0.5704225352112751,1
0.5570497861982352,0.5008935116433291,0.8962243984764655,0.4953655498606211,0.004883906208637878,0.5704225352112751,1
0.5559819719982891,0.49993574251456485,0.8970200738613978,0.4734916224930199,0.002441953104318828,0.5633802816901365,1
0.557052001357036,0.50036950419997,0.8962352769634048,0.5077428774282821,0.004883906208638045,0.5633802816901365,1
0.555979429984347,0.5000682093966653,0.8970093582985345,0.4679545341798672,0.003662770571585816,0.5633802816901365,1
0.557054859672766,0.5003057009897611,0.8962458393616692,0.5008161502802644,0.004476967052882641,0.5633802816901401,1
0.5559762639105574,0.5001061092616141,0.8969989395751415,0.48235165089467624,0.004883906208637934,0.5704225352112751,1
0.5570583266743465,0.5002806037025985,0.8962561236656656,0.48323620620633356,0.004476967052882488,0.5704225352112715,1
0.5559725013388415,0.5001238794899255,0.8969887806345171,0.5017603685329806,0.005290845364393615,0.5704225352112697,1
0.5570623807333428,0.5002674403977617,0.8962661661339137,0.47576944764796947,0.0048839062086381,0.5704225352112751,1
0.5559681587648542,0.5001339480537312,0.8969788458783075,0.5044637747738474,0.004883906208638239,0.570422535211268,1
0.5570670098225863,0.5002595559716078,0.8962760018424343,0.4799461904351474,0.0048839062086381,0.570422535211268,1
0.5559632443051381,0.5001402306788038,0.8969691006137835,0.48934303911997806,0.004883906208637975,0.570422535211268,1
0.557072209261076,0.5002544847485964,0.8962856652423874,0.4872532234636848,0.004883906208638197,0.5704225352112715,1
0.5559577596164511,0.5001443624309981,0.8969595104853577,0.47330888329386517,0.004476967052882197,0.570422535211268,1
0.5570779800532253,0.5002510969057437,0.8962951907458192,0.5026540358211009,0.0040697097273414695,0.570422535211268,1
0.5559517013611448,0.5001471509182842,0.8969500408644913,0.4662871729386782,0.0048839062086380725,0.5704225352112697,1
0.5570843275657562,0.5002487982912602,0.8963046133680168,0.5056938522871317,0.005290845364393573,0.5704225352112715,1
0.5559450624340179,0.5001490444573021,0.8969406561661264,0.47929927768219793,0.0048839062086380725,0.570422535211268,1
0.5570912603557525,0.5002472427229843,0.8963139694625559,0.4875434834706628,0.004883906208638142,0.570422535211268,1
0.5559378331180687,0.5001503163226919,0.896931319050237,0.5016609123337163,0.004883906208637934,0.570422535211268,1
0.5570987889932564,0.500246209650926,0.896323297597112,0.47235553943592395,0.004476967052882419,0.5704225352112715,1
0.5559300023221373,0.5001511487319273,0.8969219894521654,0.5105085700025117,0.004883906208638142,0.5633802816901525,1
0.5571069247224595,0.5002455445595888,0.8963326396366396,0.47731688939825556,0.005290845364393615,0.5633802816901543,1
0.55592155906577,0.5001516766895551,0.8969126233622917,0.5005202195474715,0.004883906208638239,0.5633802816901525,1
0.5571156777802058,0.5002451252932284,0.8963420421294697,0.49661000224392327,0.004883906208638045,0.5633802816901525,1
0.5559124944155627,0.5001520153154756,0.8969031712392666,0.48627548849509006,0.0040697097273413585,0.570422535211268,1
0.5571250551367719,0.5002448382326321,0.8963515581376236,0.5023705193007614,0.004883906208638336,0.570422535211268,1
0.5559028041475587,0.5001522825484825,0.896893575883094,0.4690020026851446,0.004883906208637989,0.570422535211268,1
0.5571350573349332,0.5002445543547843,0.8963612497264795,0.5059271908133914,0.005290845364393684,0.5704225352112697,1
0.5558924925201787,0.5001526271022483,0.896883769499631,0.4740618373862034,0.0044769670528822525,0.5704225352112751,1
0.5571456739703553,0.5002440934415271,0.8963711914512864,0.4995703951413195,0.005290845364393476,0.5704225352112751,1
0.5558815776991795,0.5001532779716393,0.8968736695288158,0.4898164731113842,0.004476967052882572,0.5704225352112768,1
0.5571568771771377,0.5002431510372407,0.8963814753870216,0.4811037205299068,0.005290845364393365,0.5704225352112804,1
0.5558700995696044,0.5001546585349381,0.8968631725321616,0.5038610586390171,0.005290845364393559,0.5633802816901472,1
0.5571686122948825,0.5002411099820839,0.8963922186181936,0.47183700104348647,0.0048839062086381835,0.5633802816901472,1
0.5558581308065127,0.5001577172252428,0.8968521449349875,0.5066957587838039,0.00529084536439374,0.5633802816901472,1
0.5571807848996797,0.5002364173147028,0.8964035747884294,0.48106415704678246,0.004069709727341442,0.5633802816901525,1
0.5558457917423208,0.5001652134686391,0.8968404084739814,0.49039028767330434,0.004883906208637989,0.570422535211268,1
0.5571932444113936,0.5002235757745795,0.8964157526336782,0.4907135400156652,0.0048839062086381,0.5704225352112644,1
0.5558332671076522,0.5001902560363334,0.8968277163187973,0.47742036647574315,0.004883906208638045,0.5704225352112626,1
0.5572057698682497,0.5001580623252466,0.8964290471396217,0.5014602097077844,0.004883906208638045,0.570422535211268,1
0.5558208113527345,0.5010843163009555,0.896813711847243,0.46636320767985184,0.004883906208638045,0.5633802816901472,1
0.5572180873698618,0.5004023113997439,0.8964438949316356,0.5069088957579653,0.005290845364393726,0.5633802816901472,1
0.555808678288453,0.5000660111879806,0.8967978529400846,0.47435207908820043,0.004883906208637823,0.5633802816901472,1
0.5572300605715759,0.5003101146886956,0.8964609797447771,0.49056558942250766,0.004883906208638364,0.563380281690149,1
0.5557966537175638,0.5000964090015406,0.8967792618395545,0.49352538432024884,0.0048839062086377255,0.5633802816901472,1
0.5572428263174769,0.5002951838234886,0.8964814514630994,0.47401391957782646,0.00529084536439374,0.5633802816901472,1
0.5557811700753348,0.500105805884167,0.8967563964792329,0.511116540760986,0.0036627705715856634,0.5633802816901472,1
0.5572669186968533,0.5002856430297482,0.8965074356415074,0.4718726798330931,0.004883906208638253,0.563380281690149,1
0.5557272891029235,0.500134995050357,0.8967262297602491,0.5140478425119608,0.005290845364393684,0.5704225352112751,1
0.5574821606991209,0.501788236395781,0.8965434172760535,0.4856407283185215,0.00529084536439374,0.5704225352112751,1
0.5570057319484001,0.502289013467634,0.8966817832507332,0.4962100143616075,0.00529084536439374,0.5704225352112751,1
0.5568153550229112,0.5049853719983078,0.896600951699903,0.4931914242579067,0.004883906208637753,0.5704225352112804,1
0.5562219309886652,0.503360550927363,0.8966022873775521,0.4786348731209029,0.00529084536439374,0.5633802816901419,1
0.5566760033247703,0.5047658041948486,0.8967218669000023,0.5014606521271996,0.005290845364393532,0.5633802816901419,1
0.5566730125546472,0.5053263233996418,0.8963878503629001,0.4701827593979596,0.005697784520149171,0.5633802816901419,1
0.5555398128894091,0.5059652817527466,0.8972243824412368,0.5054779399793086,0.00488390620863792,0.5633802816901419,1
0.5682860962216123,0.5097600987096067,0.8897668300396527,0.4746759597777226,0.005290845364393365,0.5704225352112591,1
0.5889070684208638,0.5113778512977246,0.8766436455341181,0.49413242308119765,0.004476967052882572,0.5704225352112591,1
0.5946744407269238,0.5062968348613676,0.8698497796057582,0.5082420939013217,0.004069709727341553,0.5704225352112591,1
0.6061889239597107,0.5084207866886481,0.8649232899089593,0.5223599637893165,0.004883906208638045,0.5704225352112626,1
0.6021609915889159,0.5029364472329033,0.8669308143486967,0.6528235645970039,0.004476967052882308,0.556338028169014,1
0.5885287248381993,0.5060572850102979,0.8762539607524338,0.470213235091008,0.004883906208637823,0.556338028169014,1
0.5776090394504161,0.5065886213758142,0.8808692099114193,0.2902390740875838,0.004476967052882572,0.5563380281690158,1
0.581676325550123,0.505077169835094,0.8861064581686399,0.3953306811505632,0.004883906208637823,0.5563380281690193,1
0.5762048231849297,0.5049458331210458,0.8841261711563179,0.47122444427450544,0.004883906208637934,0.5633802816901365,1
0.5805391496568386,0.5036168929469054,0.885784256335854,0.5265811991884085,0.004883906208638045,0.5633802816901348,1
0.5779115108288011,0.5022123187888075,0.8820494506198885,0.5081554807161143,0.004476967052882433,0.5633802816901365,1
0.5851409053246693,0.5025732438954559,0.8821661337263127,0.522753047003964,0.004476967052882572,0.5633802816901401,1
0.5805841425727607,0.501854841643138,0.8840417251877868,0.4695998200151589,0.004069709727341511,0.570422535211268,1
0.5848839376873751,0.5009701593648566,0.8811229053966276,0.512050591006872,0.005290845364393629,0.570422535211268,1
0.582091484893111,0.5014180227653708,0.8812921604193962,0.47675529575255204,0.0048839062086381,0.5704225352112644,1
0.585315180635329,0.5010290781419529,0.880452351156463,0.5018711416862196,0.004069709727341303,0.5704225352112697,1
0.5827727950166908,0.4995428059662518,0.880183096821135,0.49709608216301093,0.0040697097273412475,0.5633802816901472,1
0.5863631177312498,0.5011767914421307,0.8786925283316122,0.48554940474994085,0.004476967052882419,0.5633802816901472,1
0.5805879465745514,0.5008540776962261,0.8793296822884319,0.5155617017961043,0.004069709727341303,0.5633802816901472,1
0.588992930169894,0.5068817924527209,0.8774481072917063,0.4685506388754316,0.004883906208637934,0.5633802816901525,1
0.5814945771262737,0.5051672484485514,0.8789680432514255,0.5146366639130768,0.004883906208637781,0.5633802816901401,1
0.5885104802143449,0.505116641576889,0.8775003128242145,0.4735033685700784,0.0048839062086381835,0.5633802816901401,1
0.5807038920179189,0.5062289275101803,0.8790045063542381,0.5039542617498017,0.0048839062086381,0.5633802816901419,1
0.5894803834585713,0.5075248595678559,0.8773987041190041,0.48655068727267164,0.003255831415830135,0.5633802816901436,1
0.5794720817279371,0.5063410258438608,0.8791777901020443,0.4894080121415087,0.004883906208638045,0.5633802816901472,1
0.5911004007138231,0.5045579074081435,0.8771298035000037,0.500211113114318,0.004476967052882516,0.5633802816901472,1
0.5772508089487549,0.5027905824790941,0.8795875366138429,0.46673684884744593,0.004883906208637864,0.5633802816901472,1
0.5942990894784823,0.5011284915539197,0.8765104327557749,0.500308396503553,0.004476967052882461,0.5633802816901525,1
0.5729851013564257,0.5008973381839794,0.8800142938004902,0.4693283462040463,0.004476967052882516,0.5633802816901419,1
0.6108953407978199,0.5080923389616779,0.8710387838007567,0.5024924051575961,0.004883906208638045,0.5633802816901436,1
0.5472071784087917,0.5138167899991336,0.888606737695324,0.4848071332579133,0.005290845364393629,0.5633802816901419,1
0.7334536165172947,0.5092743754561184,0.7716143953380217,0.4899640999100384,0.005697784520149032,0.5633802816901419,1
0.8428443352776425,0.5286140197853355,0.4666549303388028,0.5215783723457473,0.005697784520149116,0.5704225352112715,1
0.7926167940534012,0.5276331827159921,0.2719498467282274,0.4835543737857638,0.004476967052882488,0.5704225352112715,1
0.956963851200453,0.5214710355286217,0.31900369261161077,0.5340678820699424,0.004476967052882461,0.5704225352112715,1
0.7275978352007935,0.5896664433567033,0.6222187282646892,0.4350912336788971,0.00651198100144583,0.5704225352112751,1
0.6360563843367151,0.5014017813561823,0.798877178690532,0.5316450542266816,0.002848892260074759,0.5704225352112715,1
0.6499292497754912,0.5267078136186235,0.8705950885306643,0.4327913417035175,0.004883906208637989,0.5704225352112715,1
0.6500809948819315,0.5130212780382084,0.851614106298862,0.42524596526504266,0.005697784520149185,0.5704225352112751,1
0.5531453157129378,0.5262919325921134,0.8386404416766635,0.33296862798385873,0.0056977845201490185,0.5704225352112751,1
0.5184327280405073,0.5210666664089487,0.9337735232165819,0.5724710922452068,0.005697784520148852,0.5633802816901365,1
0.6011145124180106,0.4906993791427154,0.8815472511419187,0.6835484953000784,0.005290845364393532,0.5633802816901365,1
0.6230525075330564,0.4968486126801409,0.858801835287794,0.6444775959035789,0.0040697097273413585,0.5633802816901365,1
0.6145623352846935,0.4945718101207895,0.8549696045256638,0.26142799616432105,0.0036627705715857606,0.5633802816901401,1
0.6213013480142469,0.4997643653242667,0.8572249054222136,0.27004453812829404,0.002848892260074412,0.5563380281690193,1
0.6214300325403274,0.498547443782491,0.8501424219216335,0.7602428518881412,0.002035013948563466,0.5563380281690193,1
0.6238995067859145,0.5015337579283449,0.8521222564832505,0.5586697626795742,0.002848892260074551,0.5563380281690158,1
0.6212068078487791,0.4990410896306136,0.8492621099506954,0.45535927780904695,0.0036627705715857606,0.5563380281690193,1
0.6239016756869045,0.5012223210967489,0.8519237436380518,0.45843392946218564,0.0032558314158303153,0.5704225352112626,1
0.6212654762619843,0.49928570830393654,0.8494790350985743,0.4920165844487395,0.003662770571585816,0.5704225352112626,1
0.6238222989942519,0.501005133957811,0.8528826508173147,0.4715199191698742,0.0016277566230222806,0.5704225352112626,1
0.6213514439641494,0.4995428820362391,0.8496415816121833,0.48893043036343803,0.003662770571585927,0.570422535211268,1
0.6237356388751578,0.4985543575779106,0.8515946817159827,0.4903549123746494,0.003662770571585594,0.5704225352112591,1
0.6214361107229173,0.497194601179113,0.8497604392697073,0.4830372525007824,0.003662770571585927,0.5704225352112591,1
0.6236542121387898,0.5004908596620955,0.8514919868944615,0.5039920164052356,0.0036627705715857606,0.5704225352112591,1
0.6215137556170474,0.4996759547466954,0.8498498532508391,0.4732736981956956,0.0036627705715857606,0.5704225352112626,1
0.6235805258221461,0.5007380585304199,0.8514135601878097,0.4998837614950747,0.0028488922600748146,0.570422535211268,1
0.621583501194491,0.49966948319791543,0.8499191186213597,0.4804871398114129,0.0020350139485636187,0.570422535211268,1
0.6235145993524231,0.5007105707712505,0.8513519947895248,0.4911952268651005,0.0036627705715856496,0.570422535211268,1
0.6216457835888987,0.4997049705317442,0.8499741620643256,0.4930405941409324,0.003255831415830135,0.5704225352112697,1
0.6234557613447299,0.5006727598044658,0.8513025162556132,0.47890360664387405,0.0028488922600745648,0.5704225352112804,1
0.6217013849312367,0.49974531964046165,0.850018859333029,0.5001098034360663,0.0032558314158303153,0.5704225352112839,1
0.62340319052019,0.500623589080706,0.8512619536923782,0.46755202742907365,0.003255831415830454,0.5704225352112804,1
0.6217511243675167,0.49983389482611396,0.8500558245316263,0.5047463475856611,0.0040697097273413585,0.5704225352112822,1
0.623356093294927,0.5000938899186641,0.8512281362150244,0.47554851460425185,0.003662770571585816,0.570422535211268,1
0.6217957571990161,0.49831138584138057,0.8500868729781744,0.4904814203326244,0.004069709727341567,0.570422535211268,1
0.6233137588790822,0.4995309895273114,0.8511995359351079,0.4958446997614369,0.0036627705715857606,0.570422535211268,1
0.621835947417837,0.49992828736855205,0.8501132984974316,0.4748714731892688,0.0024419531043191472,0.5704225352112715,1
0.6232755699908599,0.49954851203574435,0.8511750509795966,0.5017012889065326,0.004069709727341039,0.5633802816901472,1
0.6218722670790516,0.4998564079707705,0.8501360444864885,0.47789114794410986,0.003662770571585608,0.5633802816901472,1
0.6232409975361086,0.5005445469373406,0.851153869628164,0.4896550256502467,0.0036627705715857606,0.563380281690149,1
0.6219052049776136,0.49985230059297203,0.8501558125880818,0.4951820284130116,0.0032558314158301904,0.5633802816901525,1
0.6232095902034194,0.5005433132455175,0.8511353827960014,0.4736676890995426,0.004069709727341303,0.5633802816901419,1
0.6219351777613538,0.4998556369143007,0.8501731336255476,0.5028280069616935,0.0032558314158303014,0.5633802816901419,1
0.6231809632743933,0.5005391683743695,0.8511191261889759,0.4659444756329273,0.0032558314158304263,0.5633802816901419,1
0.6219625408158356,0.49986019599841813,0.8501884150425221,0.5020614616008351,0.004069709727341414,0.5633802816901472,1
0.6231547882642445,0.500533837404851,0.8511047411905925,0.4794891574249872,0.003255831415830107,0.5704225352112804,1
0.6219875979814196,0.4998679812506647,0.8502019733088395,0.4803811377366193,0.0040697097273412475,0.5704225352112768,1
0.6231307838975908,0.5005180588649873,0.8510919478934946,0.5045374420008836,0.0024419531043190223,0.5704225352112751,1
0.6220106098759735,0.49991399310318846,0.8502140564528449,0.4693812311792695,0.0032558314158302043,0.5704225352112804,1
0.6231087084700933,0.500263670380798,0.8510805262097667,0.5105310834182546,0.0032558314158302043,0.5704225352112697,1
0.6220318008812371,0.4987074024152827,0.8502248599403164,0.48661673179771653,0.0036627705715858716,0.5704225352112697,1
0.6230883534734708,0.4990521840975582,0.8510703024979047,0.4932850486565351,0.0020350139485633134,0.5704225352112715,1
0.6220513649508054,0.499463971395557,0.8502345379460071,0.5075363243775622,0.0032558314158305235,0.5704225352112804,1
0.6230695383092568,0.4997556944216691,0.8510611400686261,0.4764659519381366,0.003662770571585594,0.5704225352112768,1
0.6220694704189766,0.5000641714440412,0.8502432113297793,0.513476502095377,0.003662770571585927,0.5704225352112768,1
0.6230521059150156,0.5004370266057788,0.8510529325205549,0.4720697398617317,0.004069709727341303,0.5704225352112804,1
0.6220862639791873,0.4999054043600651,0.8502509731511618,0.5021227998822578,0.0032558314158303014,0.5704225352112804,1
0.6230359191444339,0.5005358369436237,0.8510455992509706,0.4771385928647173,0.0036627705715858577,0.570422535211268,1
0.6221018739792363,0.4998135408544649,0.8502578922248472,0.4902606185571808,0.0024419531043193138,0.570422535211268,1
0.6230208577658741,0.500646174554951,0.8510390827722787,0.489189183810396,0.003662770571585927,0.570422535211268,1
0.6221164131570486,0.4996513789045829,0.8502640149660039,0.47621829524915316,0.0032558314158300933,0.5704225352112715,1
0.6230068159668367,0.5009519691388234,0.8510333476986811,0.5059328499024688,0.0036627705715858716,0.5704225352112751,1
0.6221299809189957,0.4984805668568228,0.8502693655498583,0.4722313011212259,0.003662770571585816,0.5704225352112751,1
0.622993700272102,0.49727147573849356,0.851028381491296,0.5070038684327495,0.0036627705715857606,0.5704225352112751,1
0.6221426652440056,0.4950209391136694,0.8502739441804936,0.47785550723596526,0.0016277566230221835,0.5704225352112751,1
0.6229814278005184,0.4949800787639831,0.8510241972870036,0.4952505627700776,0.003662770571585691,0.5704225352112626,1
0.6221545442810319,0.4987654847788461,0.8502777230277336,0.49612582310053155,0.004069709727341442,0.5704225352112626,1
0.6229699247996177,0.4993811989024848,0.8510208393399183,0.47909077677519263,0.0036627705715859132,0.5704225352112626,1
0.6221656876946526,0.5005778816587324,0.8502806393029205,0.5129720707984265,0.0032558314158303014,0.570422535211268,1
0.6229591254087472,0.4999320556215893,0.8510183913774623,0.47339864351755884,0.0024419531043187864,0.5633802816901472,1
0.6221761578031747,0.5004108736453802,0.8502825859522569,0.5072915046919318,0.004069709727341303,0.5633802816901472,1
0.6229489706107374,0.5000126893844175,0.8510169852908767,0.4763851687238648,0.003662770571585927,0.5633802816901472,1
0.6221860105452925,0.5003779959195064,0.850283407829512,0.4880711537436162,0.003662770571585608,0.5633802816901525,1
0.622939407339603,0.5000005415230382,0.8510167891291602,0.4940347640025899,0.0036627705715857606,0.5704225352112644,1
0.6221952963046369,0.5004731535644964,0.850282958100756,0.47466971887734166,0.003662770571585802,0.5704225352112591,1
0.622930387717776,0.49937237748581065,0.8510178284080572,0.5103725509595264,0.0036627705715857606,0.5704225352112626,1
0.6222040606161674,0.4997997587001149,0.850281630043082,0.473634256820167,0.0036627705715859826,0.570422535211268,1
0.6229218684011861,0.5002823560122823,0.851018320192389,0.5005956022103503,0.0036627705715858716,0.5704225352112804,1
0.6222123447740506,0.49794283857739025,0.8502864411802491,0.4957913010579177,0.0036627705715858716,0.5704225352112768,1
0.6229138100143949,0.4980537753663339,0.8509830992802172,0.47451166196205924,0.003662770571585927,0.5704225352112751,1
0.6222201863571881,0.4996375685015288,0.8524040727051194,0.5108323805366751,0.00244195310431905,0.5704225352112804,1
0.6229061766610786,0.5002941669487684,0.8515286528402255,0.47125979435701965,0.0036627705715858577,0.5704225352112715,1
0.6222276196857546,0.5001699856173841,0.8512276746640829,0.4964650972244052,0.00406970972734115,0.5704225352112715,1
0.6228989354976875,0.5001904211434102,0.850887855474596,0.4935271033292859,0.003662770571585719,0.5704225352112715,1
0.6222346762198679,0.5002394522908331,0.8503107758009405,0.4724652942619498,0.0036627705715856634,0.5704225352112768,1
0.6228920563601364,0.5001192049646271,0.8510581142770226,0.5019632527888784,0.0036627705715855385,0.5633802816901401,1
0.6222413849096706,0.5003309739810454,0.8501315122032408,0.4674763797486323,0.003662770571585816,0.5633802816901401,1
0.6228855114349993,0.49997769861346464,0.8516637958267365,0.49635660754890504,0.0036627705715857606,0.5633802816901419,1
0.622247772504649,0.5006175366968312,0.8510951005608753,0.48822221767043306,0.0040697097273413585,0.5633802816901436,1
0.6228792749680228,0.4984641809012781,0.8506960103159555,0.47034372273267955,0.0032558314158301904,0.5633802816901472,1
0.6222538638288128,0.49965506209044286,0.8505044001022466,0.5103395787916218,0.003662770571585816,0.5633802816901472,1
0.6228733230038366,0.49920026209622304,0.8508386116026568,0.4665518392327652,0.0028488922600743843,0.5633802816901472,1
0.6222596820274178,0.496987228341499,0.850439737120438,0.5071681478500384,0.003662770571585719,0.563380281690149,1
0.6228676331515718,0.5007525316279459,0.8508633792173523,0.4881941745530462,0.002441953104319078,0.5633802816901401,1
0.6222652487901421,0.4998301992493639,0.8505261070251469,0.4857316689104923,0.0032558314158301904,0.5633802816901401,1
0.6228621843718185,0.5004817453399839,0.852648897814668,0.5088544831081514,0.0040697097273414,0.5633802816901401,1
0.6222705845550194,0.49996884458438773,0.8509370300011238,0.4726688910764192,0.003662770571585816,0.5633802816901401,1
0.6228569567808372,0.5003876682942405,0.8507631310797896,0.5070834611216786,0.0040697097273413585,0.5704225352112697,1
0.622275708696987,0.5000446287302928,0.8504715236717706,0.46930375435342053,0.003662770571585719,0.5704225352112697,1
0.6228519314683786,0.5003167215675562,0.8508543239093611,0.4946551489957868,0.0040697097273412475,0.5704225352112697,1
0.622280639704541,0.5001235702033429,0.850432043100855,0.48337881710442343,0.004069709727341414,0.5704225352112751,1
0.622847090325743,0.49921905137866784,0.8508767397398729,0.4825557331194386,0.003662770571585816,0.5633802816901472,1
0.6222853953477614,0.4973909215459988,0.850417413895904,0.509607224239164,0.003255831415830357,0.5633802816901472,1
0.6228424158808845,0.49867907344970536,0.8508871241419369,0.4704826971364162,0.004476967052882683,0.5633802816901472,1
0.6222899928408439,0.49950280756605964,0.8504096182104608,0.5224796930037143,0.004069709727341303,0.563380281690149,1
0.6228378911374762,0.5004385407929466,0.8508932166859762,0.47660490728175964,0.0036627705715854553,0.5704225352112626,1
0.6222944490022241,0.5001326696740426,0.8504047075290604,0.5065504778317783,0.0044769670528823635,0.5704225352112626,1
0.6228334994148055,0.4998041378882844,0.8520466480626214,0.48233462290336954,0.003662770571585816,0.5704225352112626,1
0.6222987804154605,0.4993797402323972,0.8504012802087457,0.48237231485630866,0.004069709727341511,0.570422535211268,1
0.6228292241852802,0.5005762641150103,0.8509002258729632,0.49481920992967066,0.004069709727341206,0.5739436619718443,1
0.6223030035942105,0.49992816739906254,0.8503986941399837,0.4757891329353271,0.004476967052882419,0.573943661971839,1
0.6228250489060603,0.500417287742816,0.8509025315913545,0.5023409111201138,0.004476967052882433,0.573943661971839,1
0.6223071351549498,0.4998099291862127,0.8503966040220684,0.4671386215067101,0.004476967052882461,0.5739436619718443,1
0.6240003974309586,0.49567468137012316,0.8509044571131174,0.5141398313767502,0.003255831415830246,0.5633802816901365,1
0.6223111920015126,0.4945117060963108,0.8503948020736087,0.4759017619519144,0.0040697097273412475,0.5633802816901365,1
0.622816930868339,0.49864009899276535,0.8509061691170108,0.5093157723690195,0.004476967052882461,0.5633802816901365,1
0.6223151915261818,0.4993320678023426,0.8503931519539221,0.4857650512422267,0.003662770571585927,0.5633802816901401,1
0.6228129532695728,0.50058227695266,0.8509077811632118,0.48854658732847334,0.004069709727341095,0.5739436619718354,1
0.6223191518328952,0.49988778871674633,0.8503915574472869,0.5049855883850578,0.004476967052882572,0.5739436619718354,1
0.6228090054925066,0.5004748933686656,0.8509093761191135,0.4779070526720479,0.004069709727341414,0.5739436619718372,1
0.6223230919892604,0.4999438885680338,0.8503899460379415,0.5058906387642886,0.004476967052882627,0.5739436619718372,1
0.622805067881995,0.50043837365756,0.8509110184381901,0.4685704084293519,0.0040697097273414695,0.5704225352112591,1
0.622327032315581,0.49996506100617705,0.8503882595545067,0.5047932258051518,0.004476967052882488,0.5704225352112591,1
0.6228011193687261,0.5004507051646656,0.850912761418134,0.46703116236018527,0.004069709727341234,0.5704225352112591,1
0.6223309947210494,0.4996757019956042,0.850386448439275,0.5010756282024542,0.0032558314158301904,0.5704225352112644,1
0.6227971371048404,0.4979077656654448,0.850914651805539,0.47953932846700914,0.0040697097273414695,0.5704225352112804,1
0.6223350030998946,0.4966974372685553,0.8503844679815382,0.4912456022077228,0.004883906208638239,0.5704225352112804,1
0.6227930960319834,0.49354803247923623,0.8509167329349774,0.49608080779170954,0.004476967052882766,0.5704225352112804,1
0.6223390838036997,0.4961909137306079,0.8503822756496164,0.47576804903407727,0.004476967052882461,0.5704225352112804,1
0.6227889683634273,0.49964052001447107,0.8509190470443841,0.5067618754847482,0.004476967052882516,0.570422535211268,1
0.6223432662107411,0.4998321515443754,0.850379829036563,0.4702081591746989,0.004476967052882738,0.5704225352112644,1
0.6227847229565457,0.5005212966425314,0.8509216371404072,0.5043196166443726,0.0028488922600746064,0.5704225352112644,1
0.6223475834193788,0.49990291460162384,0.8503770841254998,0.47583326403442655,0.004069709727341567,0.570422535211268,1
0.6227803245447622,0.5004756101053103,0.850924548650736,0.4958744025885432,0.004069709727341206,0.563380281690149,1
0.6223520731008862,0.4999348307956985,0.8503739936782304,0.4841493771028249,0.004069709727341178,0.563380281690149,1
0.6227757327882949,0.500451809452787,0.850927831031231,0.48455468993572487,0.0032558314158303014,0.5633802816901525,1
0.6223567785585506,0.4999534705762449,0.8503705055986152,0.49715706606753945,0.0024419531043188974,0.5633802816901543,1
0.6227709010896855,0.5004366586605032,0.8509315394643442,0.473457139226434,0.004476967052882461,0.5739436619718372,1
0.6223617500555424,0.4999661462613025,0.8503665611402438,0.5086429024563444,0.0040697097273414695,0.5739436619718372,1
0.6227657751015783,0.5004258072447542,0.850935736778404,0.4698515785365018,0.004476967052882738,0.5739436619718372,1
0.6223670464958886,0.49997561122725126,0.8503620928250903,0.5106435356028061,0.004476967052882738,0.573943661971839,1
0.6227602908284807,0.5004174224736715,0.8509404957293281,0.47768561424765765,0.004069709727341234,0.5704225352112751,1
0.6223727375733854,0.49998313723272336,0.8503570219187316,0.49855430471156703,0.004476967052882308,0.5704225352112751,1
0.6227543721879558,0.5004105905273633,0.8509459018168916,0.49392632145760995,0.004883906208638142,0.5704225352112715,1
0.62237890654645,0.49998940068441056,0.8503512552669004,0.47736332864796427,0.0048839062086380725,0.5704225352112751,1
0.6227479278453018,0.500404797773843,0.8509520568601174,0.5060239980994431,0.0024419531043189946,0.5704225352112751,1
0.6223856538582382,0.49999480033451926,0.8503446812321938,0.47400929281219034,0.0036627705715858716,0.5704225352112751,1
0.622740847062473,0.5003997286895194,0.8509590836381784,0.5014761961795834,0.004069709727341178,0.5704225352112751,1
0.6223931019089821,0.4999995898802906,0.8503371643690094,0.47719607007786036,0.004069709727341664,0.5704225352112804,1
0.6227329941973305,0.5003951767178347,0.8509671320267458,0.48693514461371046,0.0044769670528823635,0.5739436619718319,1
0.6224014014123047,0.5000039388284266,0.8503285383237489,0.4936649178479908,0.004069709727341497,0.5739436619718319,1
0.6227242013410392,0.5003910026365948,0.8509763872437862,0.46929434549215887,0.004476967052882433,0.5739436619718354,1
0.6224107399422714,0.5000079602700923,0.8503185962237618,0.5067499396090618,0.004069709727341511,0.5739436619718372,1
0.6227142583771412,0.5003871176408056,0.850987081089025,0.4653550676739757,0.004476967052882419,0.5704225352112751,1
0.622421353512017,0.5000117181955087,0.8503070774946362,0.501405466950296,0.0032558314158303986,0.5704225352112751,1
0.6227028994859811,0.5003834859411889,0.8509995074441055,0.4860198534284658,0.004476967052882572,0.5704225352112751,1
0.6224335422970948,0.5000152128756045,0.8502936496033602,0.4831399262496411,0.0044769670528823635,0.5704225352112804,1
0.622689784865182,0.5003801560632297,0.8510140437901299,0.506534560568075,0.003255831415830371,0.5739436619718319,1
0.6224476917827293,0.5000183240270197,0.8502778827253692,0.46981337894331765,0.004476967052882433,0.5739436619718319,1
0.6226744764946428,0.5003773596122723,0.8510311809170895,0.5129262131162127,0.0040697097273413585,0.5739436619718319,1
0.6224643000611207,0.5000206392493896,0.8502592151989405,0.4743637909308739,0.004476967052882308,0.5739436619718319,1
0.6226564083590389,0.5003758160320981,0.851051562424556,0.4946509751714738,0.0044769670528822525,0.5633802816901419,1
0.6224840083221492,0.5000208912510425,0.8502369098056641,0.4894657957342663,0.0048839062086381,0.5633802816901419,1
0.6226348594783659,0.5003778305880542,0.8510760299714065,0.477367070801257,0.004476967052882738,0.5633802816901419,1
0.6225076149243415,0.5000146475990561,0.8502100139959352,0.5025889000536752,0.004069709727341414,0.5633802816901472,1
0.6226089730116184,0.5003927032935115,0.8511056410374319,0.46788544939078924,0.004883906208637781,0.5704225352112715,1
0.6225359790391529,0.49997939713891565,0.8501774021305455,0.5133834325575956,0.004476967052882488,0.5704225352112715,1
0.6225780282181566,0.500492049290806,0.8511414786450134,0.47103882468060915,0.004476967052882627,0.5704225352112751,1
0.6225693435268858,0.49936480747571826,0.8501383249158152,0.507120157741454,0.0028488922600746203,0.5704225352112751,1
0.622543094948686,0.4997830438868722,0.8511832059345443,0.48991556757631916,0.004883906208638128,0.5633802816901401,1
0.6226031382682071,0.5003629069565182,0.8500962403528515,0.49225154262213594,0.004476967052882516,0.5633802816901365,1
0.6225186599084058,0.5000532289462398,0.8512181512197576,0.5061102680406037,0.0044769670528825856,0.5633802816901401,1
0.6225902098057841,0.5003964967990171,0.8500948873092797,0.4790603073651049,0.002848892260074884,0.5633802816901419,1
0.6227000151862855,0.49982601238282154,0.8510608628625036,0.5141285548278388,0.004476967052882683,0.5633802816901472,1
0.6199851759410784,0.4998674065207814,0.8520901052453027,0.4715984301015402,0.004883906208637989,0.5633802816901436,1
0.6125445588126225,0.5035969285039343,0.8601374420268014,0.5057908232698006,0.004883906208638045,0.5633802816901419,1
0.6197311738327691,0.5024866750350949,0.8518899445867396,0.4717164724816496,0.004883906208638128,0.5633802816901472,1
0.6181681039937981,0.5024181329172241,0.8564432282867736,0.4919946923833577,0.004476967052882544,0.5633802816901472,1
0.6162880310906984,0.4993718228086217,0.8590989425440403,0.4660148479871784,0.004883906208637934,0.5633802816901472,1
0.6174326573619768,0.5008389224620909,0.858438719555368,0.47437748479418057,0.0036627705715856634,0.5633802816901472,1
0.6213697153897906,0.49962881258124525,0.8516002867784607,0.5684738327821574,0.004883906208637934,0.5633802816901543,1
0.6197990847620376,0.5005583933634501,0.8531334711085953,0.44356098453104864,0.0032558314158299823,0.570422535211268,1
0.6254287590547465,0.5052609974249594,0.8486510618872438,0.4675564375566609,0.00529084536439374,0.570422535211268,1
0.6056486928490521,0.511533094021819,0.8667361204394991,0.4999108135486594,0.005290845364393573,0.5704225352112697,1
0.6131275825771481,0.5263679415038144,0.8567822482552756,0.5232068776473592,0.011395887210083736,0.5704225352112715,1
0.6249831338604028,0.5158512132359659,0.8534055707774046,0.5052550282978127,0.016686732574477378,0.5704225352112751,1
0.6420171564659769,0.4875428966543061,0.8359630534964688,0.5360464132348516,0.015872854262966377,0.5704225352112751,1
0.636311011862483,0.4796002005151573,0.8391503869842337,0.5608895530378084,0.007732798468712401,0.5704225352112751,1
0.618307025851454,0.49061332619380293,0.8510052417720602,0.47740599464576366,0.0044769670528823635,0.5704225352112768,1
0.6469986413318446,0.48952929262452016,0.8380072423453713,0.4365550355264015,0.0044769670528825856,0.5704225352112697,1
0.6368770816592897,0.49102166134501934,0.8413847269148419,0.2888654452364136,0.0032558314158303014,0.5704225352112715,1
0.6272377314688002,0.48975866030798154,0.8478128574564182,0.4600619451874245,0.004476967052882544,0.5704225352112697,1
0.6198169064086434,0.4964601475346379,0.8545000020112542,0.5396732832652249,0.004476967052882461,0.5704225352112697,1
0.6226162008909206,0.49776971042435675,0.8537603646239851,0.5179367669956708,0.004069709727341303,0.5704225352112715,1
0.6198021673752605,0.4975689804469813,0.8538154700875895,0.4985214215099465,0.005290845364393559,0.5704225352112715,1
0.6232210183138225,0.5007231177569751,0.8535853971826285,0.5140219377823168,0.0048839062086381,0.5704225352112715,1
0.6199610726357161,0.49939678726995773,0.85321517134632,0.5170404596369884,0.004883906208637989,0.5704225352112751,1
0.6239260239121336,0.49959688409459,0.8496486901730236,0.49061984805756104,0.0048839062086381,0.5704225352112768,1
0.6199999361146344,0.5022327618132073,0.8525669685425696,0.4953938130996109,0.005697784520149116,0.5704225352112768,1
0.6181677614219812,0.5092108428866362,0.8564265261220447,0.46017536578911017,0.004883906208638142,0.5704225352112768,1
0.6190537373969538,0.5080516753174513,0.8570176508463712,0.5170237174582613,0.004883906208637934,0.5704225352112804,1
0.6189893011890808,0.5085337226092109,0.85481534196691,0.4518945479402421,0.0036627705715854553,0.5633802816901436,1
0.6193809443945977,0.5071947056678967,0.8587413204937082,0.5212874791591356,0.004476967052882461,0.5633802816901436,1
0.6232389190441197,0.5016322007520407,0.85122403372236,0.46622661484901334,0.004883906208638045,0.5633802816901436,1
0.6179417825570135,0.49680554785170505,0.8559362841947646,0.516267750687848,0.004883906208638142,0.5633802816901472,1
0.6172584573627471,0.4973748659313482,0.8565319704099584,0.46176372026801044,0.005290845364393476,0.5704225352112751,1
0.6124905603847257,0.4999927312598282,0.8581308106302814,0.5165113834769541,0.004883906208637934,0.5704225352112715,1
0.615007193316577,0.5005372434581927,0.8586643644739709,0.4922961885458542,0.00488390620863792,0.5704225352112697,1
0.6114630029407991,0.49971736452274784,0.8605344419556069,0.4699222225482473,0.0048839062086381,0.5704225352112751,1
0.6147966952177697,0.5011310765926396,0.8592374893712367,0.5356354615617703,0.0048839062086380725,0.5704225352112626,1
0.611388450040443,0.5004839404757607,0.860480999936535,0.46461050195927356,0.005290845364393532,0.5704225352112626,1
0.61446101853445,0.5003485510627682,0.8590355133648593,0.49691329519190236,0.0036627705715856496,0.5704225352112626,1
0.6076393497928627,0.49995087139535577,0.8617869665975864,0.5197037750975074,0.0040697097273414695,0.570422535211268,1
0.6112815895103696,0.5004714105237886,0.8608057946554498,0.45783879200796995,0.004883906208637781,0.570422535211268,1
0.6092579216942331,0.5004582580320499,0.8597236996851234,0.501928930731909,0.005290845364393684,0.570422535211268,1
0.6111191409016083,0.5032877645497129,0.8597481387277995,0.5024885945048004,0.00529084536439374,0.5704225352112697,1
0.6104532215103693,0.5017182624819249,0.8600982093117584,0.44026923475141216,0.004883906208638142,0.5704225352112715,1
0.6162593789898786,0.5014874208833309,0.8594095422826169,0.4922768026371047,0.004883906208638142,0.5739436619718319,1
0.6067584964833501,0.4992952350666306,0.8601877446270418,0.5030088257296845,0.004883906208638142,0.5739436619718319,1
0.6444068447942317,0.5016506661609147,0.8377080222639021,0.46844638699451113,0.005290845364393532,0.5739436619718319,1
0.6463955495435205,0.49981514931586124,0.8294299274106791,0.5111994053869443,0.003662770571585816,0.5739436619718372,1
0.6116513253782627,0.5174501903411506,0.86657649890525,0.4968898330269712,0.004883906208637989,0.5704225352112768,1
0.6071384710460813,0.5169505472967973,0.8641239725836563,0.4626436901351496,0.008546676780223791,0.5704225352112804,1
0.5832178080006536,0.5125369531446675,0.87625250160858,0.4695837750641418,0.01465171862591412,0.5704225352112768,1
0.615483601945149,0.5172179980988139,0.8579273220392064,0.45637946258004874,0.013837840314402702,0.5704225352112768,1
0.6075333524358987,0.5137985598723098,0.8600448050728189,0.5583822861904192,0.009360873261520367,0.570422535211268,1
0.6018622817992505,0.5142272635613855,0.8669642392105466,0.4984695259500616,0.010174751573031895,0.570422535211268,1
0.6032345075574845,0.5130512853644076,0.8652654146084446,0.5047574412697524,0.008546676780223653,0.570422535211268,1
0.6049566310419414,0.5095335629340977,0.861695393655204,0.5579635328347639,0.008546676780223847,0.5704225352112697,1
0.6065284455255056,0.5081641403176927,0.8617484228764791,0.3567454155026213,0.007732798468712235,0.573943661971839,1
0.6024892476827006,0.5078803566813063,0.8613044830448284,0.46913415278307813,0.00732585931295672,0.573943661971839,1
0.6065704946270667,0.5081866394838079,0.8606096269738979,0.5384460585997247,0.007325859312957095,0.5739436619718425,1
0.6076992391188322,0.5077663532257308,0.8634980739842884,0.481156470896846,0.006918920157201386,0.5739436619718443,1
0.6036341687036264,0.5086579164287451,0.8594504452284288,0.4891428397320688,0.007325859312956928,0.5739436619718372,1
0.6058280003356461,0.5088914962276565,0.8614100135983169,0.46796223785479835,0.006104723675904783,0.5739436619718372,1
0.603520666849152,0.5100279283398456,0.8596403716814418,0.5045722403870239,0.006918920157201705,0.5739436619718372,1
0.604254577230803,0.5146464669782745,0.8607750762746318,0.4791044741211751,0.005290845364393795,0.573943661971839,1
0.6046088840977066,0.5163302072345288,0.8613737173924101,0.5011362145082836,0.006918920157201552,0.5704225352112751,1
0.6056030120554439,0.5104287195789662,0.8598316767922853,0.48852712602840737,0.006918920157201358,0.5704225352112715,1
0.6068758277881969,0.5077444557897903,0.8605082984771459,0.4751561751257357,0.006918920157201511,0.5704225352112697,1
0.6063824140731993,0.5081056897529185,0.8606703118136257,0.49372667418195315,0.006511981001445913,0.5704225352112751,1
0.6079416989371613,0.5080024838533312,0.8592183201888821,0.46369810752376284,0.006104723675904811,0.5739436619718443,1
0.6028552933854826,0.5079889807742358,0.8618074227418353,0.5312729650848834,0.007732798468712554,0.5739436619718443,1
0.6071001850905211,0.5080733609853918,0.862400074623443,0.48797838728139564,0.006511981001445802,0.5739436619718443,1
0.6059696623753537,0.5079431654098902,0.8602013879344015,0.5159966707079909,0.00651198100144601,0.5739436619718372,1
0.6046957914645045,0.508077386029297,0.8601152975400365,0.47476439710223867,0.005697784520149116,0.5739436619718301,1
0.6030490979135761,0.508378376344554,0.8606165583053229,0.4963870955017867,0.0065119810014459545,0.5739436619718301,1
0.6043175947389292,0.5120520859516117,0.8613545814573911,0.4833585607637237,0.00651198100144583,0.5739436619718319,1
0.6030543020884321,0.5116218941159718,0.8622615025208833,0.4969728338181625,0.006104723675904866,0.5739436619718354,1
0.6043612248655056,0.5141364803295814,0.8608504784990192,0.4974550907166855,0.006511981001445802,0.5704225352112715,1
0.6029948845429222,0.5158496692583875,0.8617731642502926,0.47530260748179454,0.006104723675904866,0.5704225352112715,1
0.6044236321753758,0.5159272279184646,0.8616958613958658,0.5032885477721253,0.00651198100144601,0.5704225352112715,1
0.6029500483733392,0.5150712104293883,0.8625745744342661,0.461864346903731,0.00651198100144583,0.5704225352112768,1
0.604368572630138,0.5119280420346634,0.8604974489931758,0.5133309382600814,0.006918920157201677,0.5739436619718372,1
0.6047946498388476,0.5081839323778117,0.8617964189314997,0.47770855105592175,0.006511981001445857,0.5739436619718372,1
0.6065817579066467,0.5081288512707492,0.8607194667336211,0.4972297324542434,0.00651198100144583,0.5739436619718372,1
0.6026857664612232,0.5078019101469848,0.8602117445613708,0.5174786914731936,0.005290845364393532,0.5739436619718372,1
0.6065051558379084,0.5083694468883709,0.8601753837730888,0.4845855236016202,0.0061047236759044915,0.5739436619718248,1
0.6005358917354693,0.5073490583018002,0.8613746151718451,0.46284905077357075,0.006511981001445913,0.5739436619718248,1
0.6086066228836902,0.51091749659568,0.8621554624814285,0.5148944247639805,0.006104723675904922,0.5739436619718248,1
0.5962199703386696,0.5111475310977417,0.8704917644380874,0.4892385243339192,0.006104723675904811,0.5739436619718301,1
0.5913302546085049,0.5077075960371882,0.8727576714615344,0.4744242247980267,0.00406970972734115,0.5739436619718301,1
0.5989140830363161,0.5106564365905202,0.8701018116179646,0.48922404236117184,0.006918920157201358,0.5739436619718266,1
0.6079812510469041,0.5143531925418987,0.861143564896407,0.4971868174362851,0.00651198100144601,0.5739436619718301,1
0.6050676247496187,0.5153631607079376,0.8610941418154537,0.41000158267292924,0.006918920157201386,0.5739436619718319,1
0.6071553908396767,0.5115550240156113,0.8634154546697388,0.5121832050379278,0.006918920157201358,0.5739436619718266,1
0.5799980487467893,0.5103370280488411,0.8795380888315544,0.5793202567724383,0.006918920157201469,0.5739436619718248,1
0.512145558186381,0.5099072714807851,0.9141173379534724,0.46893908228344966,0.007325859312956928,0.5739436619718266,1
0.5731976942612489,0.513187753733132,0.8892545296694824,0.4759926477604981,0.013023643833106183,0.5739436619718301,1
0.6002531737807071,0.515791501985391,0.8677947666350139,0.4475290272924997,0.010174751573031701,0.5704225352112715,1
0.5995807227893977,0.519772952958018,0.8687320565947738,0.3370064202310695,0.00813973762446804,0.5704225352112697,1
0.5995089678860634,0.5250630990713708,0.8679887357743198,0.4417113791881632,0.007732798468712665,0.570422535211268,1
0.6037700763142866,0.5253370797125178,0.8646088260832405,0.8025542740515357,0.008546676780223764,0.5704225352112751,1
0.603652322869878,0.5246106467187543,0.8664116023266673,0.5331014407991853,0.0077327984687126095,0.5845070422535219,1
0.6020117227712778,0.5241501435337641,0.8670009564245182,0.3983263481328628,0.008546676780223639,0.5845070422535219,1
0.5913728205860114,0.5237786898241776,0.8702039588157908,0.44207791518042205,0.008139737624468096,0.5845070422535219,1
0.5832583097554691,0.5234967936735584,0.8777438352144094,0.5004613088305475,0.008546676780223583,0.5845070422535272,1
0.5852099569463245,0.5238109094821605,0.8784588073579169,0.52241592232173,0.009360873261520145,0.5845070422535201,1
0.5858727330894433,0.5234977572871208,0.8780902025747537,0.45181004121747625,0.008139737624468249,0.5845070422535201,1
0.5847613387777828,0.5238302304001127,0.8760719455260928,0.4631686078942473,0.008546676780223653,0.5845070422535219,1
0.5848252228515405,0.5200692128815642,0.8781356473208755,0.4995314055263632,0.008546676780223708,0.5845070422535255,1
0.5848603216140005,0.5168969951177983,0.8783022639164528,0.5144522837673416,0.008546676780223764,0.5845070422535272,1
0.5847399607747479,0.5217778277600977,0.8781729795561032,0.511267641375712,0.008139737624468207,0.5845070422535272,1
0.5849699104813686,0.5242867369403513,0.8783000953049777,0.46792513639802713,0.008953934105764658,0.5845070422535272,1
0.5845687172655986,0.5232246867725528,0.8781580124931713,0.4819060898384923,0.00854667678022368,0.5845070422535308,1
0.5853262963357763,0.5240051850592135,0.8783418306276258,0.4843934030817467,0.008953934105764824,0.5845070422535255,1
0.582584227108916,0.5233420329591435,0.8780470397715414,0.49419903113487507,0.009360873261520422,0.5845070422535272,1
0.5812634622541801,0.5239423711015422,0.8811120059829799,0.4973918066752912,0.008139737624468152,0.5845070422535255,1
0.5770563637520443,0.5233807767154286,0.8853107406656564,0.47613616143230786,0.008546676780223583,0.5845070422535255,1
0.5748509155341328,0.5239134103433566,0.8872500551587523,0.49558131428357743,0.007325859312957039,0.5845070422535272,1
0.5757215333839696,0.5234215325222438,0.8863208671693052,0.48505135529658294,0.009360873261520256,0.5845070422535272,1
0.5751439824195711,0.5226889109468243,0.88755074639263,0.4897430009475425,0.006104723675904658,0.5845070422535272,1
0.5755772039652014,0.517436458911469,0.8873597522452068,0.4964008315022909,0.008546676780223791,0.5845070422535308,1
0.575233912202015,0.5158133426275321,0.887488274293232,0.472510038001806,0.008546676780223847,0.5845070422535272,1
0.5755149886649222,0.5158026449993584,0.8873712661733555,0.5018185960317085,0.009360873261520422,0.5845070422535272,1
0.5752786118416173,0.5157696614682961,0.8874979979938376,0.47395826645585465,0.008546676780223902,0.5845070422535308,1
0.5754838808208125,0.5171820267656391,0.8873396370933595,0.510613834271822,0.008139737624467985,0.5845070422535326,1
0.5752963709989323,0.5229270285777952,0.8875824397793592,0.48766182190698454,0.00854667678022332,0.5845070422535148,1
0.5754830646575513,0.523489738250559,0.8862767245488937,0.49772168832547586,0.008546676780223597,0.5845070422535148,1
0.5752700468955607,0.5238971953622044,0.8873074275372556,0.4997084665576077,0.00854667678022368,0.5845070422535183,1
0.5755595299983564,0.5233774446395849,0.8874785360618156,0.4696794847913413,0.007732798468712665,0.5845070422535201,1
0.5751918899726461,0.5239604913428194,0.8848735256354043,0.48678418791518613,0.008546676780223583,0.5845070422535219,1
0.5873789878224778,0.5233035321512813,0.8747392583836109,0.4828952458748548,0.008546676780223639,0.5845070422535201,1
0.5963467027668101,0.5240952062336668,0.869780524034403,0.48484427426488097,0.008546676780223583,0.5845070422535201,1
0.5911406739019984,0.5227884571195032,0.8708316661086504,0.4998039786218425,0.008139737624468082,0.5845070422535219,1
0.5830159829859058,0.5232862309783916,0.8766719139166982,0.4867610335460066,0.007732798468712554,0.5845070422535201,1
0.5884691160036735,0.5235920274210775,0.8744295672860338,0.5315503608662016,0.008953934105764727,0.5845070422535201,1
0.5946931692528349,0.5238185116304286,0.8684857714291506,0.45809724891818715,0.008139737624468027,0.5845070422535201,1
0.5939165121206988,0.5234246472828781,0.8694696612839323,0.44202338894080606,0.008139737624468207,0.5845070422535255,1
0.5946305410420687,0.523950395856706,0.8686209093650594,0.47388533019983775,0.0077327984687124846,0.5845070422535148,1
0.5937874604895224,0.5232419952584544,0.8695274014451098,0.5095253547782445,0.008546676780223847,0.5845070422535148,1
0.5949614385869835,0.524814606593572,0.8683157831509014,0.5329039634778407,0.006918920157201663,0.5845070422535183,1
0.5925588085892954,0.5236013571450654,0.8712411340188653,0.4732713055100952,0.008139737624468249,0.5845070422535201,1
0.5901612625219864,0.5239872242917052,0.8736065495604745,0.48146688234973317,0.008139737624468096,0.5845070422535201,1
0.5889266296600378,0.5230102965374261,0.8736190323423384,0.4950388840780411,0.008139737624468152,0.5845070422535201,1
0.5840485097545931,0.5291525942513481,0.8768018709796566,0.4457896908260826,0.008546676780223583,0.5845070422535201,1
0.5852590735933867,0.5318193397916721,0.8793383393396843,0.4930086864573385,0.009360873261520422,0.5845070422535219,1
0.5845309761736026,0.531619189728395,0.8786945930854033,0.4609070169703702,0.01058169072878705,0.5739436619718425,1
0.5850328676930912,0.528868540619353,0.878071212130952,0.4810100563356596,0.010581690728787133,0.5739436619718425,1
0.5846674208226392,0.5256612133203312,0.8783355787739233,0.4807190510993808,0.011395887210084069,0.573943661971839,1
0.5849388556061257,0.5283106650443653,0.8781612031935914,0.535904923024968,0.010988629884542564,0.5739436619718425,1
0.5847381511339881,0.5293640966260977,0.8782945796013839,0.566329046517763,0.01058169072878716,0.584507042253513,1
0.5848819315698748,0.5301812236046295,0.8781836079009679,0.49324103442291467,0.009767812417276298,0.584507042253513,1
0.5847867251603076,0.5316275656323991,0.8782819550587064,0.49111525749402274,0.010581690728786994,0.584507042253513,1
0.58483804451962,0.5314368431884964,0.8781898298190713,0.4884665801696984,0.010581690728787188,0.5845070422535183,1
0.584828923973758,0.5314578991455734,0.8782807991902906,0.46729263099833945,0.01017475157303134,0.573943661971839,1
0.5847943220133947,0.5315306688544088,0.878186133300328,0.4933421610472257,0.010988629884542592,0.573943661971839,1
0.5848789137045716,0.5313431998486227,0.8782901803963359,0.48049671410591294,0.010174751573031451,0.5739436619718425,1
0.5847280639846062,0.531789519820047,0.8781684885679335,0.4843690612676012,0.010581690728787022,0.5739436619718443,1
0.5849967427089898,0.5286419582914748,0.8783233537775945,0.4951918965968366,0.010581690728786994,0.5845070422535201,1
0.5836150138597707,0.5265113326922255,0.8780918605990845,0.4736949793387647,0.01098862988454262,0.5845070422535201,1
0.5845571578028285,0.5273777190724724,0.8787309143640534,0.49990218497499417,0.010581690728787438,0.5845070422535201,1
0.5776274124616236,0.5272151554575973,0.880598239631853,0.4874439547191501,0.010174751573031618,0.5845070422535255,1
0.5749493369652261,0.5249274380138479,0.885053531387592,0.4826949844538956,0.009360873261520311,0.5985915492957812,1
0.5756335225305176,0.5264938426655675,0.8877003600832779,0.5014678035410919,0.011395887210083708,0.5985915492957812,1
0.5752115408887862,0.5268535347991415,0.8872888583531287,0.4838650558466574,0.01098862988454273,0.5985915492957776,1
0.5755307382938217,0.5314468337335475,0.8875233895940868,0.5063663250336878,0.01098862988454273,0.5985915492957812,1
0.5752578263271902,0.5303141814590157,0.8873615693517398,0.48959505064078074,0.010988629884542675,0.5915492957746533,1
0.5755184475618773,0.5303475303697112,0.8874827025850105,0.47868283462732913,0.01098862988454273,0.5915492957746533,1
0.5752347287258885,0.5316553513085209,0.8873883448535553,0.5027105549529746,0.010174751573031396,0.5915492957746533,1
0.5756096562815618,0.5315420983048315,0.8874634178070459,0.48353547905557653,0.010988629884542842,0.5915492957746586,1
0.5748334931086967,0.5275146323190807,0.887402534143737,0.488909995581857,0.011395887210083569,0.5915492957746533,1
0.5744531916089739,0.5239217631453342,0.887454307085292,0.4931859026958236,0.011395887210083902,0.5915492957746533,1
0.5756561892858736,0.5239654344032686,0.8874031504345518,0.45741943018986686,0.010988629884542675,0.5915492957746551,1
0.5752186185675283,0.523416944691224,0.8874769874767447,0.49643705998566096,0.009360873261520589,0.5915492957746586,1
0.5755185455403329,0.5238051631259504,0.8872559829168551,0.50754107806108,0.010581690728786966,0.5915492957746533,1
0.5752748923753833,0.5246785919775117,0.8852371708827036,0.4832197378271977,0.010174751573031812,0.5915492957746533,1
0.5766690706030225,0.5269472039622465,0.8865814456012657,0.48925991481520853,0.010581690728787133,0.5915492957746533,1
0.5752914745104377,0.5251795117903788,0.8831412885388056,0.4844423709804241,0.010174751573031396,0.5915492957746604,1
0.5754794698488139,0.5289709742479652,0.8866989367633535,0.4946270561401338,0.010581690728787244,0.5985915492957723,1
0.5752980307152328,0.5301023824038963,0.8876662374201914,0.4895094710244483,0.010581690728787077,0.5985915492957723,1
0.575474986050152,0.5322657384377779,0.8873010100093066,0.47671866723856976,0.010581690728787077,0.5985915492957723,1
0.5753013675885059,0.5299244454897972,0.8875253562820768,0.4983261613748747,0.010581690728787077,0.5985915492957723,1
0.5754721774350429,0.5319787507520101,0.8872918658866435,0.4688452448094363,0.01017475157303134,0.5845070422535148,1
0.575304109079021,0.5286681901563404,0.886249095459293,0.4998878318906264,0.010581690728787133,0.5845070422535148,1
0.575469114887236,0.5237473073030847,0.8876587114088683,0.482073025364051,0.008953934105765102,0.5845070422535148,1
0.5753078642207348,0.5235701971464987,0.887200736002195,0.48577355592997645,0.010174751573031646,0.5845070422535201,1
0.5754642657586607,0.5236876552003764,0.8877477672014185,0.5003297485700348,0.010581690728786938,0.5915492957746533,1
0.5753142876140379,0.524309378541511,0.8866423963040269,0.47772517414119375,0.010581690728786966,0.5915492957746498,1
0.5754556451145971,0.5251598872913018,0.8866138244749855,0.5002934052350758,0.010581690728787244,0.5915492957746533,1
0.5753259674833806,0.525079586647711,0.8862873569121051,0.48820192316486477,0.010581690728787022,0.5915492957746551,1
0.575439644468121,0.5272560096930731,0.8880131485293556,0.48752790153413816,0.010581690728787022,0.5915492957746373,1
0.5753482403062218,0.525432372285514,0.8863686750486208,0.49897019712439167,0.01017475157303159,0.5915492957746373,1
0.575407889861569,0.5312874163377889,0.885992726827498,0.4887471725467059,0.010581690728787105,0.5915492957746373,1
0.5753951658057943,0.5292264775812175,0.8855352384652425,0.49843925573460546,0.00976781241727602,0.5915492957746427,1
0.5753346740474508,0.5288806859032938,0.8843087016898648,0.48656460373777827,0.010174751573031535,0.5915492957746498,1
0.575519484847987,0.5301416627886145,0.8815257048031218,0.49440646182505144,0.008953934105764783,0.591549295774648,1
0.5750969362398948,0.5272895382174215,0.8808171838595691,0.5009958496585158,0.009767812417276076,0.5915492957746462,1
0.5782146588324524,0.522995315914174,0.8832405657392777,0.46839710919166355,0.01017475157303159,0.5915492957746533,1
0.5779961510976442,0.5242153457370333,0.8808438267770452,0.49017700746896,0.009767812417275964,0.5915492957746533,1
0.5808051039180704,0.5230170651074674,0.8798944850896555,0.47551767914141563,0.009767812417275964,0.5915492957746533,1
0.5809595882460293,0.524882931651452,0.8775980663085107,0.47220631554537107,0.007732798468712401,0.5915492957746533,1
0.5786040107128965,0.5235517753324822,0.8804114808174575,0.5078331695054428,0.009767812417275964,0.5915492957746586,1
0.578073959932045,0.5244366730804978,0.8790894909887566,0.4690280163216524,0.0073258593129567895,0.5915492957746462,1
0.5753448238096794,0.5270289535417503,0.8810698875063852,0.5049409924857662,0.010174751573031646,0.5915492957746462,1
0.5805687202438454,0.5288600719103649,0.8804812932402472,0.49363798976151746,0.009767812417275909,0.5915492957746462,1
0.5804298708969766,0.5312136939773839,0.8793096913885305,0.47897055323052173,0.009360873261520339,0.591549295774648,1
0.5797851514609333,0.5307074322557123,0.8785226730397224,0.5185395485192917,0.00813973762446804,0.5915492957746586,1
0.5800038217625676,0.5312214942693765,0.8778363811605129,0.47155287833943454,0.009360873261520478,0.5915492957746586,1
0.5768182950775027,0.5287106662718649,0.8803677435107682,0.49871196104999493,0.009767812417275687,0.5915492957746586,1
0.5791209215744428,0.5252304930595427,0.881004193577627,0.4898612337814942,0.009360873261520422,0.5915492957746604,1
0.5802883201304552,0.5238583975601201,0.8798726986107053,0.46838852455472085,0.00936087326152045,0.5985915492957758,1
0.5758873466359806,0.5235394460234349,0.8805991316248998,0.5199967011071177,0.009360873261520339,0.5985915492957776,1
0.5789699889925739,0.5237442402470291,0.878329012726028,0.46496491480917845,0.009360873261520422,0.5985915492957758,1
0.5799849047359973,0.5235932897515956,0.8802925309197422,0.5015536221345457,0.0093608732615202,0.5985915492957758,1
0.5800059098113495,0.5236424093239372,0.8784709149022684,0.48166337419843325,0.009767812417275964,0.5915492957746498,1
0.5803200198936054,0.5239746728222623,0.8810097810219396,0.4755062406786689,0.009767812417275964,0.5915492957746498,1
0.5806808756750212,0.5244380654562456,0.8814309714199762,0.5207129117174064,0.007732798468712401,0.5915492957746498,1
0.5764676231923074,0.5248095230632118,0.8792376998440795,0.47348363525561266,0.008546676780223583,0.5915492957746533,1
0.5791016562005651,0.5281790121943196,0.8806923849013193,0.5109086714907223,0.009767812417276076,0.591549295774648,1
0.5769942046247901,0.5282555902379762,0.8812760114232102,0.4812706710016935,0.009360873261520394,0.591549295774648,1
0.5758420168597818,0.5308177727129201,0.8823218490014226,0.48624351597119314,0.009360873261520533,0.5915492957746498,1
0.5770585809274204,0.5281743402119495,0.881088824835573,0.4974170639565059,0.0093608732615202,0.5915492957746533,1
0.5803317277114677,0.525805634364977,0.8825994073810214,0.4583825991404003,0.009360873261520117,0.5915492957746462,1
0.576848759280415,0.5248699178023993,0.8801666153329081,0.5221030323376812,0.009360873261520339,0.5915492957746462,1
0.5811641203781457,0.5236696038252258,0.8807653536148925,0.4684782414506752,0.009360873261520478,0.5915492957746462,1
0.5810242918711679,0.5235508107984662,0.8794640681284982,0.5085129676056495,0.009767812417276159,0.591549295774648,1
0.5828648690873675,0.5238078286082782,0.8778016540001012,0.4992285607800413,0.009360873261520256,0.5915492957746533,1
0.5838748559490821,0.5234597021957355,0.8785454320459861,0.4760650796918149,0.009360873261520367,0.5915492957746533,1
0.5852971078949583,0.5248869242375765,0.8779571551711912,0.5153237322947325,0.00813973762446793,0.5915492957746498,1
0.5826638962264257,0.5246181587375593,0.8785254930626853,0.4822795723617996,0.009360873261520367,0.5915492957746533,1
0.5823983855297186,0.5247559716608454,0.8778580883601506,0.5001699954546598,0.009360873261520478,0.5985915492957687,1
0.5793972287972324,0.5231056113446435,0.8792625164591186,0.4972291819280189,0.009767812417275964,0.5985915492957687,1
0.576973055429838,0.5255749399022281,0.8786172100015407,0.4710590966272195,0.009360873261520422,0.5985915492957687,1
0.5773827095959995,0.5249285640367102,0.8800302533381656,0.5121546956919184,0.009360873261520422,0.5985915492957723,1
0.5777504766145443,0.526577189787337,0.8802789403463345,0.46978844143008697,0.009360873261520256,0.5915492957746498,1
0.5784698518482762,0.5244815708755347,0.8801057077256369,0.4864586935128149,0.00895393410576488,0.5915492957746498,1
0.5787016457428655,0.5265543835174564,0.8798520288334174,0.4926025995613666,0.00936087326152045,0.5915492957746533,1
0.5812410409966133,0.5265758794324091,0.8797262918154262,0.46109529661301407,0.008546676780223791,0.5915492957746533,1
0.5795664515613381,0.5260321887301782,0.8805008051854156,0.5140962057660036,0.00895393410576488,0.5915492957746533,1
0.5779058042679,0.5231232520481857,0.8799454675727771,0.4804320530114977,0.008139737624468277,0.5915492957746533,1
0.5837320263836904,0.5244774430050795,0.8786744260760696,0.4777244533680475,0.008953934105764602,0.5915492957746533,1
0.5833138018301955,0.5208018308359191,0.8812251066549105,0.5093455828847029,0.008953934105764824,0.5915492957746551,1
0.5761809995618505,0.5194358627032527,0.8844659045873164,0.4802534575400624,0.00895393410576488,0.5915492957746551,1
0.5869051687996221,0.511310981959391,0.8765605255205058,0.5078658982379493,0.00895393410576488,0.5915492957746586,1
0.5855520348472848,0.5150397569402918,0.8765144507879912,0.4997382146610115,0.008546676780223916,0.5915492957746551,1
0.591396894358826,0.521511990498807,0.8738578147529068,0.4735375791850417,0.008953934105764672,0.5915492957746551,1
0.5929511663953633,0.5243580072636774,0.8742635399984602,0.5226644195429873,0.008546676780223902,0.5915492957746409,1
0.5953524987444654,0.5197415232537588,0.8716376107110775,0.46508638885779857,0.009767812417276214,0.5915492957746409,1
0.5876036156123086,0.5269565379836241,0.8791434529685122,0.48977418909408293,0.0065119810014459545,0.5915492957746409,1
0.5810294572401866,0.5245831821508862,0.8743135521834673,0.48664301093354306,0.008953934105764935,0.5915492957746462,1
0.5919990553102106,0.5260961147830923,0.8738016624470815,0.4620386878208276,0.007732798468712401,0.5985915492957883,1
0.5861741643153859,0.527600405486969,0.8776040115260537,0.46494098940083345,0.008139737624467971,0.5985915492957883,1
0.5865293443333214,0.528650201163058,0.8754704424970909,0.5523356167051731,0.00936087326152045,0.5985915492957883,1
0.5845821951769611,0.5291405921724749,0.8794685236893452,0.5458733316421316,0.008139737624467985,0.5985915492957901,1
0.579375602392369,0.5192626039648176,0.8802370541064345,0.30464047221562884,0.008546676780223639,0.5985915492957723,1
0.5900549082757083,0.5242586060301734,0.8760718916776458,0.5291186661593418,0.00854667678022368,0.5985915492957723,1
0.5872299137129151,0.5190832738171767,0.8772908279520053,0.4750636344596572,0.008139737624468152,0.5985915492957723,1
0.5878526834494879,0.5178146249205043,0.8755020424533806,0.5090702553689334,0.005697784520149227,0.5985915492957776,1
0.5872161141499499,0.5156139172447478,0.8782741576689856,0.5359569227603789,0.007325859312956928,0.5915492957746586,1
0.584420304174935,0.516409109348469,0.8784224105664924,0.49230968804592656,0.007325859312956984,0.5915492957746551,1
0.5850653536007044,0.5158451968124975,0.8779452604032478,0.47474112536285873,0.007325859312957039,0.5915492957746533,1
0.5846442197409745,0.5195694588703947,0.8785966780680101,0.46065644567734787,0.006104723675904866,0.5915492957746586,1
0.5846275823633766,0.5171551510648004,0.8777966380070806,0.4751286170056851,0.0065119810014459545,0.6056338028169126,1
0.5832403608812957,0.5180487347355518,0.8787994988126061,0.522410784553927,0.007325859312956984,0.6056338028169126,1
0.5866702935467825,0.5164433129170922,0.8773349585633305,0.4716656713326338,0.006918920157201386,0.6056338028169126,1
0.5783376502841625,0.5167820706422118,0.882278322836541,0.5255080068370929,0.007325859312957234,0.6056338028169108,1
0.569541391147562,0.5152655728066501,0.8883838193240645,0.48014601856619193,0.006918920157201344,0.5985915492957812,1
0.5757368960658908,0.516330209644706,0.8853791543284284,0.48757201332836136,0.0077327984687127205,0.5985915492957812,1
0.5730858920034936,0.515375691446697,0.8855642402095751,0.5214896422569278,0.007325859312957039,0.5985915492957812,1
0.5809939042003007,0.5162738841545396,0.8804160079714216,0.4436140279002853,0.007325859312957095,0.598591549295783,1
0.5838625060566771,0.5154106170831846,0.8776318350927044,0.4687383071414717,0.006918920157201386,0.5915492957746498,1
0.5853161124416479,0.5162520433872181,0.878596094145504,0.5506767132735589,0.006918920157201761,0.5915492957746498,1
0.5837922495409784,0.5154212115018132,0.8780078829984864,0.5067118636387391,0.006104723675904922,0.5915492957746498,1
0.5830209350915865,0.5162550659293015,0.8782969448768538,0.5324467782792675,0.006918920157201386,0.5915492957746551,1
0.5842376646263872,0.5153939225610318,0.8788894627953743,0.48573734574449945,0.006918920157201663,0.5915492957746533,1
0.5812153269756171,0.5163589810518031,0.8789361093701751,0.4640795433766507,0.006918920157201497,0.5915492957746533,1
0.5845732834322108,0.5163585995292754,0.8780869706149148,0.47429270174414967,0.006918920157201608,0.5915492957746533,1
0.5838643451709455,0.5164809791321768,0.880500404346016,0.4576514834347255,0.005290845364393573,0.5915492957746533,1
0.5834305345323622,0.5169455025467473,0.8797598453682017,0.503535730870092,0.007325859312956873,0.5915492957746498,1
0.5844456185009419,0.5163811822783255,0.880039131546098,0.49309718212560255,0.007325859312957095,0.5915492957746498,1
0.583179821973927,0.5154829090274489,0.8792103876421564,0.4821802684685957,0.005290845364393795,0.5915492957746498,1
0.5823852943818175,0.5161596283027496,0.8813750614575309,0.4965356916361904,0.006918920157201566,0.5915492957746533,1
0.5832670466584209,0.5155195560032328,0.8780046661859526,0.4551472224195736,0.006918920157201192,0.5985915492957758,1
0.5835127532141815,0.5161477885937553,0.8803939935115832,0.5042941805695578,0.00569778452014906,0.5985915492957723,1
0.5850809268319244,0.5155250195288701,0.8786892938390691,0.4768132421724265,0.0065119810014459545,0.5985915492957758,1
0.5846305465336418,0.5161437064371482,0.8795562852441571,0.4844410958069453,0.006918920157201344,0.5985915492957812,1
0.5841059358869527,0.5155304693424426,0.878789775110854,0.49841777300807305,0.006918920157201414,0.5915492957746462,1
0.5837119018456209,0.5161333127040408,0.8796887134492632,0.4739471018509356,0.007325859312957039,0.5915492957746427,1
0.5820314327917484,0.5155544858766312,0.8801343532080688,0.5071441120242386,0.0048839062086381,0.5915492957746462,1
0.5841241875083127,0.5160603739565839,0.8795102134198374,0.48763809785616274,0.007325859312957178,0.591549295774648,1
0.5841894743776579,0.5162596491149296,0.8785698458217677,0.4961478174854359,0.006918920157201386,0.5915492957746604,1
0.584681939780741,0.5174362780030611,0.8791881728754225,0.49417419388574324,0.007325859312957039,0.5915492957746604,1
0.5828980307895213,0.5154846009346675,0.8775174608557244,0.47718622122727045,0.006918920157201441,0.5915492957746551,1
0.5846622059783652,0.5162195448569962,0.8790254596585488,0.503312471046354,0.006918920157201497,0.5915492957746604,1
0.583385402212102,0.5154433908283831,0.8803462215029472,0.46662211533103937,0.0065119810014460655,0.5985915492957812,1
0.5837387880477062,0.5162334637209449,0.880405709341396,0.5080135195703407,0.006918920157201552,0.5985915492957812,1
0.5827554997430663,0.515430664985083,0.8792501431475586,0.4706837405008759,0.007325859312956998,0.5985915492957812,1
0.5848215985546482,0.5162477638042653,0.8797894450112137,0.5000116775308526,0.006511981001445802,0.5985915492957865,1
0.584528995145402,0.5154143090333564,0.8785886025535493,0.48471899633414695,0.007325859312956873,0.5915492957746498,1
0.5837996110767047,0.5162663291083626,0.8804417714325419,0.4890850823226812,0.006918920157201552,0.5915492957746498,1
0.5816754933954708,0.5153933748649195,0.8775561799727922,0.5030902661341766,0.0065119810014457324,0.5915492957746533,1
0.5820699607062262,0.5162898899003867,0.884679345757607,0.4777583032890349,0.006918920157201303,0.5915492957746551,1
0.5792128537047261,0.5153667667809481,0.8801976720057852,0.5065113816296022,0.006918920157201497,0.5915492957746551,1
0.5807127177995326,0.5163202296979427,0.881420257009059,0.4884990422466446,0.007325859312957095,0.5915492957746533,1
0.5830617472932377,0.515331545352635,0.8786712505847505,0.4916978629181209,0.006511981001445635,0.5915492957746533,1
0.5830642503028265,0.5163623997400568,0.8810874658734412,0.49813564684963435,0.0056977845201491295,0.5915492957746604,1
0.5790479050602599,0.5152782887128631,0.8811978876648259,0.47411547526816766,0.006511981001445885,0.5845070422535219,1
0.5791051947284542,0.51643654816522,0.8798670948798594,0.5092132392049208,0.007325859312957039,0.5845070422535255,1
0.5831718386556057,0.5151520780913402,0.8792763872962348,0.47619500295477435,0.0048839062086381,0.5845070422535219,1
