wrist_ACC_1,wrist_ACC_2,wrist_ACC_3,wrist_BVP_1,wrist_EDA_1,wrist_TEMP_1,label
0.26749504039672334,0.2853114895882738,0.4201734896998055,0.46730354049878875,0.7760747114238598,0.9047619047618873,1
0.27602208444327464,0.2824869954618927,0.4159857093123462,0.484839604358731,0.7677193097030157,0.9047619047618909,1
0.2682255253215477,0.28629820083637564,0.4199203897827009,0.4448960970735162,0.7735682215219839,0.9047619047618909,1
0.2762671404947696,0.2834339769864817,0.4152539084070455,0.41534564514514816,0.7718970105634377,0.9047619047618909,1
0.2650279598174895,0.28663605139227977,0.42484182274103605,0.4610858752185094,0.7677193097030155,0.9206349206348925,1
0.26973514490767303,0.28074220501189917,0.4338340326507444,0.48238258258812966,0.771061078548221,0.9206349206348996,1
0.2658227338166398,0.2840893951301921,0.44181302787961024,0.43540812398415,0.7677193097030155,0.9206349206348925,1
0.26918914957767,0.27928097813361774,0.4437223951079863,0.46407317265708947,0.7735682215219841,0.9206349206349032,1
0.26695017599794174,0.28327910365678555,0.45192631634543023,0.44424941185963407,0.7710610785482215,0.9047619047618873,1
0.2670643804039369,0.2830284081300991,0.4398008974740024,0.43492184749900725,0.774403500465314,0.9047619047618909,1
0.2636083496921829,0.28493170794674116,0.4520648581486915,0.4782939349082981,0.7760747114238602,0.9047619047618909,1
0.264891608350069,0.28164859629601136,0.4516452082567762,0.4651708764278398,0.7760747114238602,0.9047619047618909,1
0.2666804269325195,0.2832226514711602,0.4593707508831301,0.42775051708081757,0.7769099903671894,0.9047619047618909,1
0.2627477865959858,0.2823967099549928,0.45165744823423903,0.4739194908658984,0.7735682215219841,0.904761904761898,1
0.2696829882689773,0.2844099457349983,0.46656855186275736,0.46288570507747884,0.7752387794086435,0.904761904761898,1
0.25430064819920783,0.2834075703999543,0.4567956104301988,0.4443043291036316,0.7652121667292524,0.9047619047618909,1
0.2772494487534296,0.2869077468954754,0.5186552203998814,0.4882523388658337,0.772732289506767,0.9206349206349103,1
0.20343244116259285,0.2943326570255385,0.4492200327049134,0.4699160601794485,0.774403500465314,0.9206349206349032,1
0.398131838093115,0.30897321247125686,0.7403269698581585,0.43919885860204494,0.7693898675896751,0.9206349206349032,1
0.4702076537695702,0.3600311196657756,0.9609589101768601,0.5261672929259532,0.7710610785482215,0.9206349206349032,1
0.3496517349291462,0.27191094644827385,0.7253997706133212,0.4583521934014452,0.8237006318470508,0.9047619047618873,1
0.3114012770299551,0.22746836447726743,0.582518659467474,0.43619497876070606,0.8287136116508027,0.9047619047618909,1
0.4445263797498661,0.15155744291905698,0.6635416617769754,0.5150362542035039,0.7685545886463461,0.9047619047618873,1
0.4031278741103743,0.17474947743358937,0.7039603127264492,0.46978788873338273,0.7685545886463447,0.904761904761898,1
0.3621548871789267,0.17487395444431958,0.5044578250719036,0.5002776879266045,0.7710610785482215,0.9206349206348925,1
0.32350356478908443,0.18861844567158587,0.4719455202617275,0.3591713051891394,0.7576926970236244,0.9206349206348996,1
0.2791451659569921,0.19797303865175608,0.44841229370907026,0.44910374525507213,0.7643768877859232,0.9206349206348925,1
0.35033817031281145,0.18217452428090802,0.49271995293326415,0.48564579626418347,0.9440186778559649,0.9206349206348996,1
0.37173263883969476,0.15259388321302914,0.5110011916343472,0.5384413964873527,0.8178517200280822,0.9047619047618873,1
0.40791430085556657,0.12442700433133508,0.5162253583880587,0.1444715882056452,0.841246714232069,0.9047619047618802,1
0.3615401648327974,0.14879948353994915,0.4828790072626704,0.5510203613439357,0.8145092981109898,0.9047619047618802,1
0.36719619959866673,0.15066740430607745,0.4902409291657341,0.5666511309525281,0.7677193097030155,0.9047619047618909,1
0.34097255290149364,0.16420918260035905,0.48570127199429597,0.45940108367243254,0.7610344658688304,0.8888888888888786,1
0.38828241273928626,0.1484830268803924,0.5482290094883422,0.4867729935680358,0.7894430929484557,0.8888888888888857,1
0.40878760095413363,0.18640924272471648,0.38025424334085584,0.4204103671180547,0.8011409165863932,0.8888888888888857,1
0.4596681272299212,0.271750446086281,0.11369750783970117,0.5132584390747955,0.7802524122842818,0.8888888888888857,1
0.43304078635380117,0.32271912711325274,0.13478196285364102,0.32394012351057466,0.9690848830184982,0.8888888888888857,1
0.41176830774373774,0.5574370052376929,0.13520929744889837,0.6401672271043104,0.8554510277718812,0.8888888888888964,1
0.3788971430546969,0.6507979118279058,0.14543321037371143,0.4892031988300593,0.7744035004653134,0.8888888888888857,1
0.3507090855232083,0.4699990387626368,0.17538129542425157,0.3952841789759391,0.7409818935819363,0.8888888888888964,1
0.3642545167657383,0.3221637523742854,0.25523836134169847,0.3911833779466712,0.7284487910006696,0.9047619047618802,1
0.3130160719912337,0.33701633009415066,0.29010012968321897,0.384941576517992,0.730955280902545,0.9047619047618802,1
0.2771812297546497,0.5151743232989353,0.19530758312859264,0.5208499251224133,0.7192574572646084,0.9047619047618731,1
0.2711041052032209,0.4652786559970568,0.2948300731004681,0.5724723854063909,0.7242710901402469,0.9047619047618802,1
0.2892573954537397,0.3827509570209932,0.3613311862871031,0.3923449015246786,0.7242710901402474,0.9047619047618731,1
0.2379245513013658,0.3671702851563724,0.40241253633668217,0.4304278173997051,0.7259416480269061,0.9047619047618802,1
0.1857053110477851,0.40919308225530904,0.4587990879207783,0.4789056613163515,0.7292840699439993,0.9047619047618802,1
0.22772577581778297,0.47471537654026147,0.5670567983876186,0.3648611487237102,0.7342970497477506,0.9047619047618802,1
0.1962311810933599,0.4426814951219675,0.5853195338036108,0.5957697708664451,0.7459948733856872,0.9047619047619015,1
0.23174559486822965,0.44343406861732054,0.6113852728656476,0.5837850309052941,0.7618703978840469,0.9047619047619015,1
0.1952943955273504,0.41452720074766153,0.6256814291214166,0.48101552919971946,0.7660480987444693,0.904761904761898,1
0.20809988143090574,0.38897316960200734,0.5413748875728555,0.41316427505945896,0.7677193097030155,0.9047619047619015,1
0.2882422797686408,0.29556669028969873,0.4264980291340944,0.33900819439074165,0.7585279759669545,0.888888888888868,1
0.31742389904985335,0.21188527111854272,0.4380862543736688,0.4852357654188264,0.7443236624271414,0.8888888888888751,1
0.32720666406988097,0.1675986896585226,0.4435458233753788,0.45070269721247747,0.7334617708044213,0.888888888888868,1
0.36898714736630617,0.161198584179784,0.4510699697196988,0.5065691779315676,0.7718970105634377,0.8888888888888786,1
0.42666333134844786,0.12477191217089251,0.4792965981872259,0.5064431660517605,0.7451595944423584,0.8730158730158486,1
0.47842106202584894,0.08532934257398644,0.4551094364137804,0.36525838416176837,0.7309552809025452,0.8730158730158557,1
0.40504582336583395,0.14231156937962852,0.4163829440566987,0.38220625912347284,0.726777580042123,0.8730158730158486,1
0.3202357159100669,0.18699833361924822,0.3462102169358936,0.5248816858256832,0.719257457264608,0.8730158730158557,1
0.3640605470752845,0.19483919765011726,0.34731536238277405,0.47543288045258575,0.7351329817629675,0.8888888888888751,1
0.39038016575731216,0.17178982788862873,0.35119625820975453,0.49923927371837107,0.7518437852046564,0.888888888888868,1
0.36975352125444677,0.17479980336198908,0.35514480638962376,0.4351194701082514,0.7409818935819361,0.888888888888868,1
0.3434381872670223,0.1867839854445959,0.38186176429422053,0.4470136588355265,0.7401459615667192,0.8888888888888751,1
0.3836409953179214,0.16538325963685413,0.3881376072542674,0.5292329082403194,0.735132981762967,0.8888888888888751,1
0.3494761326787526,0.17741730087944957,0.36624806228803863,0.3541357416039517,0.720928668223155,0.8888888888888857,1
0.3509766444716882,0.17084259878958974,0.392049986877996,0.38190625956535945,0.7117373344870936,0.8888888888888751,1
0.36703740509413124,0.17390775612055653,0.3768296554582956,0.43220127424826854,0.751008506261327,0.8888888888888857,1
0.35601582126032166,0.17577665346651467,0.3885700322810614,0.5980351889965001,0.7418171725252656,0.9047619047618909,1
0.3498234821076507,0.18713081796662373,0.3744533925985983,0.5512965881413775,0.8303848226093486,0.904761904761898,1
0.3577054507709912,0.1818986721282585,0.36796094680124025,0.3835878941262735,0.9874668974187331,0.9047619047618909,1
0.3820285484611906,0.17362210735613964,0.3574101382179675,0.4223866545863981,1.0,0.9047619047619015,1
0.35897038957759725,0.18185266203542855,0.36301703713167877,0.41316241387114294,0.9632359711995293,0.8888888888888857,1
0.37191968301130846,0.18064982943321167,0.3569773845704547,0.49935328437688187,0.9381697660369968,0.8888888888888893,1
0.3620322012919082,0.18244698599709602,0.3630103259271692,0.34459259370153217,0.9289790853728221,0.8888888888888893,1
0.3730914589052231,0.18315402673365644,0.35712286985470143,0.47070876517568955,0.918952472693431,0.8888888888888893,1
0.36219870567598217,0.1828272256015674,0.3608499295687442,0.551172037089164,0.9156100507763392,0.9047619047618873,1
0.37581513075996403,0.1832240975116476,0.356631994769603,0.4424318100178967,0.903076948195072,0.9047619047618909,1
0.3600393352138977,0.1812045422106543,0.3601156083322337,0.48241173774058826,0.8988992473346507,0.9047619047618909,1
0.36662743170704815,0.18248603517139905,0.3601150343198639,0.5348212177994397,0.8880373557119299,0.9047619047618909,1
0.3610480370160859,0.18324637981430036,0.36312577197215745,0.452606726597776,0.8521092589266763,0.8888888888888609,1
0.39016151391051146,0.18225241970369088,0.35084042425406575,0.4297533347000106,0.832056033567895,0.888888888888868,1
0.3958053190139792,0.21566318695722475,0.2785579884397039,0.5055602810459265,0.82453591079038,0.8888888888888609,1
0.3884305848800103,0.23819123808277887,0.21294604291940333,0.49623809790518325,0.8671488514098189,0.888888888888868,1
0.41413683149155983,0.22466371749960595,0.25870169795142894,0.4398232075850294,0.9156100507763387,0.9047619047618909,1
0.5308680702536065,0.23880616605064875,0.18829341838889108,0.5080686739261938,0.9139388398177926,0.904761904761898,1
0.4691985155165354,0.2956536430174705,0.10460797905569769,0.5435704075432026,0.8729977632287877,0.9047619047618909,1
0.5021653591627829,0.295316708449217,0.13113428522647058,0.391692305647289,0.7969632157259707,0.9047619047619015,1
0.5516781066682466,0.28292698875256606,0.11637678036310783,0.40141076251116076,0.7493372953027808,0.9047619047618802,1
0.5419329850459738,0.2734930200459952,0.1328828778622243,0.567135469799432,0.7485013632875637,0.9047619047618873,1
0.523054313611995,0.2867842388401073,0.11828124034809478,0.5837562830305052,0.7334617708044215,0.9047619047618802,1
0.5396158886958708,0.28941545282770986,0.11463314928267604,0.259662105374986,0.7242710901402476,0.9047619047618873,1
0.5470155135749468,0.2914062597487153,0.11622818791800033,0.34330259111412187,0.7184221783212787,0.9047619047618873,1
0.5591673066586371,0.29262980339650513,0.11115397152183515,0.45623740276176084,0.7159150353475154,0.9047619047618802,1
0.5655429997796426,0.29576617642620096,0.10050178133243964,0.4452915390150441,0.7142444774608567,0.9047619047618802,1
0.5779182549908518,0.2900457360990553,0.10730160183253279,0.5007004272073805,0.7092308445852178,0.9047619047618909,1
0.5703861342590563,0.2959996984763006,0.10135605225102662,0.42714868699892755,0.7109020555437644,0.9206349206349103,1
0.5682560336785006,0.2991623895511485,0.10448914376057167,0.41393510799268834,0.7100667766004343,0.9206349206349209,1
0.5697029676749743,0.2998619337002434,0.10062764184960393,0.507783704383868,0.7067243546833417,0.9206349206349138,1
0.5754320253195557,0.2988328640227688,0.10286774063598697,0.4511771937196221,0.7042178647814663,0.9206349206349209,1
0.5743205308559882,0.29996815031334484,0.09775831289521025,0.449321640124893,0.7025466538229193,0.9047619047618802,1
0.5788734918218016,0.29878461742542095,0.0997958232951861,0.5059297325466712,0.7008754428643729,0.9047619047618802,1
0.57580384411145,0.300000766433123,0.09615453210397323,0.4771378555279206,0.6975336740191678,0.9047619047618802,1
0.5785832407020373,0.2988189278151929,0.0978443882889159,0.42214233824456515,0.6908488301849829,0.9047619047618873,1
0.576740393558079,0.30357367949894154,0.09467856428199523,0.47830424833449453,0.7012156933174416,0.9047619047618802,1
0.5736893917124793,0.3064266115460811,0.09640135763099761,0.446531313182014,0.6987085503436787,0.9047619047618802,1
0.5714994416403053,0.30633030882384493,0.09524396846247157,0.44178145103475763,0.69703799245702,0.9047619047618731,1
0.5737621700115689,0.30397255513341603,0.09863495239482517,0.5265100147702826,0.6970379924570196,0.9047619047618802,1
0.5731526172486868,0.3077176053579246,0.09788610837232165,0.5011851147277777,0.6903531486228349,0.9047619047618873,1
0.5809116520417827,0.3065870088735416,0.09631924068780756,0.43971246775782324,0.6978732714003493,0.9047619047618909,1
0.5777993305512592,0.3076920697794675,0.09539564645017318,0.45956434293088894,0.6945308494832578,0.9047619047618909,1
0.5834047631849446,0.3066073860304007,0.09577249245307257,0.4848458684833958,0.6928596385247108,0.9047619047618909,1
0.5775358857006606,0.30767884349609037,0.0956450994037612,0.41764783997499383,0.6895178696795043,0.8888888888888857,1
0.5800787833190004,0.30661573298624617,0.09554424788903443,0.45593531851343266,0.6845042368038661,0.8888888888888857,1
0.5759757097541497,0.30767502427193016,0.09588174055710669,0.4804736171587506,0.6803265359434443,0.8888888888888857,1
0.5759553835249839,0.3066131688911885,0.095288055037831,0.4396292824618708,0.6811624679586605,0.8888888888888857,1
0.5711626882937777,0.3076912108786447,0.0961673550719474,0.4591911659382237,0.6803265359434438,0.9047619047618802,1
0.5747185708185222,0.30655086486887695,0.09495812397591574,0.5017016073176305,0.6786559780567847,0.9047619047618873,1
0.5705825209864572,0.30820918933603186,0.09657664129252252,0.47753731061946775,0.6794912570001144,0.9047619047618802,1
0.5742694240565163,0.30771325884769574,0.09407932748658088,0.43580843065739583,0.6769847670982387,0.9047619047618909,1
0.5621285471142327,0.30809235932913026,0.09861292046012471,0.4198079539474565,0.6753135561396924,0.9047619047618873,1
0.5691548290519308,0.3065457465935211,0.09695966989673327,0.49888569851778414,0.6786559780567842,0.9047619047618909,1
0.565117932560141,0.30769143618148637,0.09683605309003201,0.48205575241282583,0.6652869434603015,0.9047619047618873,1
0.5674811720694332,0.3066207208874737,0.09510178782941137,0.4578933333666651,0.6744782771963627,0.9047619047618909,1
0.5631152115274942,0.30765850984191967,0.1020494708899004,0.42418016658024693,0.6719711342226,0.9047619047618731,1
0.5694236704922785,0.30664388793195196,0.0934209999170848,0.4850949264439029,0.6719711342225991,0.9047619047618696,1
0.5630225408023971,0.3076338404442909,0.09895148106952967,0.47499495078420867,0.6719711342225991,0.9047619047618696,1
0.5682767478350202,0.306672197215627,0.09447649133644592,0.42366685472442217,0.6719711342226,0.9047619047618802,1
0.5613266807327464,0.30787919172973177,0.10271929170143362,0.4473468144286709,0.6711358552792699,0.9047619047618909,1
0.5697255523176513,0.3112913699141334,0.0903230070910615,0.4797214272818339,0.672807066237816,0.9047619047618909,1
0.559101665886896,0.3144835111340075,0.10312138567277518,0.41612886977657865,0.67030057633594,0.9047619047618909,1
0.57489112435554,0.309843105098998,0.08504159240329934,0.44958399590337284,0.6694646443207233,0.9047619047618909,1
0.5380617936133775,0.30968084610799435,0.11977631235168795,0.471928503413769,0.6686293653773938,0.8888888888888751,1
0.5118695014025703,0.29666705669442855,0.11649861281803414,0.42489401184969006,0.6694646443207237,0.8888888888888857,1
0.3760622966568072,0.30311054492617007,0.1757014889490458,0.47629618618021163,0.6686293653773936,0.8888888888888751,1
0.4104978035514282,0.26098489877234143,0.22481352333440863,0.48941238147542604,0.6661222224036316,0.8888888888888857,1
0.5609239333559347,0.14962005937897532,0.2209136859461287,0.41908431268415325,0.666122222403631,0.888888888888868,1
0.48472539476065646,0.1434508057274354,0.314365094013348,0.4534269302253268,0.6711358552792699,0.8888888888888786,1
0.5107312607311054,0.15458725542635499,0.2043653533172769,0.5105330741123946,0.674478277196362,0.8888888888888751,1
0.5426293916886287,0.1561837095338695,0.22982588266930926,0.4301129042105274,0.6703005763359402,0.8888888888888751,1
0.5318772329075878,0.16735460579805467,0.19661927233414456,0.4992804354377136,0.6669581544188479,0.904761904761898,1
0.5296405352657829,0.1689775582069098,0.2141056691234115,0.5194773002555774,0.6703005763359395,0.9047619047619015,1
0.5273688710136062,0.1707110426610991,0.19277583882550559,0.5738963385694041,0.6719711342225996,0.9047619047619015,1
0.5529337056155368,0.16681499210274642,0.21407151527403262,0.41407959458215476,0.6744782771963631,0.904761904761898,1
0.5554283337064251,0.16707819821961956,0.18446047279883454,0.33045312538110494,0.672807066237816,0.9047619047619015,1
0.5524593293332885,0.16640490632698507,0.2117345258392751,0.44593856600782655,0.6744782771963627,0.9047619047619015,1
0.5678520097409345,0.17056476966275524,0.1792282133574904,0.4982580549027573,0.6652869434603017,0.9047619047618909,1
0.5558411015447443,0.1733164275660905,0.1982818966041503,0.4844890867337549,0.666122222403631,0.904761904761898,1
0.553677189386723,0.17585254928811878,0.18618063929272427,0.42020007418281574,0.6677934333621773,0.9047619047618909,1
0.5743903020739175,0.17566306205675564,0.18340509440716574,0.46812140508206224,0.6669581544188479,0.904761904761898,1
0.5732537430224789,0.17569580330591084,0.1794470031967948,0.4822471665902609,0.6686293653773938,0.9047619047618909,1
0.5788947992811239,0.17475773800907546,0.1851205146412228,0.4768355669438709,0.6669581544188476,0.9047619047619015,1
0.5750602288461206,0.1756590796668201,0.17631247967944735,0.4070819854950012,0.6694646443207237,0.9206349206349032,1
0.578336509249977,0.17478223742717935,0.18717670666308706,0.43986652983942665,0.67030057633594,0.9206349206349103,1
0.5771307861185633,0.1756410402676173,0.17336400223909226,0.47265219217116267,0.6686293653773943,0.9206349206349032,1
0.5826814384525758,0.17479642460715716,0.1849667913536876,0.42996964944078486,0.67030057633594,0.9206349206349103,1
0.5792645285891418,0.1756293474836102,0.17856739457328225,0.4596926945651697,0.6661222224036312,0.9047619047619015,1
0.581645485126709,0.17480640390816787,0.18565055859561286,0.47302775537246716,0.6669581544188479,0.904761904761898,1
0.5785312963040585,0.1756205981014739,0.17518616761484557,0.42401489650355406,0.6627804535584254,0.904761904761898,1
0.5775734040607301,0.1748142403107752,0.1834744669536355,0.48523802005186983,0.6669581544188474,0.9047619047619015,1
0.5788301189273211,0.17561345741917578,0.1769989438656963,0.47217083736582577,0.6636157325017549,0.904761904761898,1
0.5801958514694239,0.17482083969916368,0.1836992054773845,0.43345809536657565,0.6686293653773938,0.9047619047619015,1
0.5780040079255337,0.1756072862255169,0.17632564847873838,0.4841010237048596,0.6644516645169716,0.904761904761898,1
0.5809377465152565,0.17482666764508986,0.18377783307845702,0.4961963021143481,0.6661222224036301,0.9047619047619015,1
0.5792729938896573,0.17560173632597398,0.1745918153746573,0.418461143307023,0.6652869434603017,0.9047619047618909,1
0.5810757581166186,0.17483199050646736,0.18440050623553228,0.46597858379676504,0.6619445215432085,0.9047619047619015,1
0.5792909557197609,0.17559659990966164,0.17710704315900427,0.5041986545013146,0.6636157325017553,0.9047619047618909,1
0.5819817202591795,0.17483697329362557,0.18563223416330948,0.48164314183875856,0.6627804535584252,0.9047619047619158,1
0.5795866592730536,0.17559174382858822,0.173723868625015,0.43194226223921905,0.6627804535584256,0.9206349206349103,1
0.5818560160526178,0.1748417250726516,0.1847581190607981,0.4260759574530497,0.6569315417394574,0.9206349206349103,1
0.5796695134141223,0.17558707744615076,0.1753531215362123,0.5008370870532082,0.6619445215432085,0.9206349206349032,1
0.5817912879128114,0.1748463222367152,0.1830138969736803,0.4857293570280768,0.6569315417394568,0.9206349206349103,1
0.5797239572023433,0.175582535456544,0.17486734695007905,0.4492362934176235,0.6611092425998795,0.9206349206348996,1
0.5817465950421895,0.17485082142506336,0.18434044375402542,0.4194504803010346,0.6602739636565496,0.9206349206349103,1
0.5797481172368724,0.17557806799809184,0.17563385782428137,0.4799711072316515,0.6594380316413331,0.9206349206349103,1
0.5818059466821477,0.1748552672223605,0.18231220994089642,0.4818682944508243,0.6594380316413326,0.9206349206349103,1
0.5785810328184642,0.17557363454783137,0.17573209649737276,0.44025778511015023,0.6569315417394574,0.9206349206348996,1
0.5803182487169019,0.17485969709581123,0.18124467166543778,0.43578787655914525,0.6619445215432085,0.9206349206349103,1
0.576924241794064,0.17556919984053865,0.17782961513952272,0.4852610212426155,0.656931541739457,0.9206349206348996,1
0.579950275728773,0.17486414485468488,0.1852744568442511,0.44964681121544836,0.658602752698003,0.9206349206349032,1
0.5799962273320772,0.17556473084883317,0.175428008222964,0.4320783914084667,0.6544250518375807,0.9206349206348996,1
0.5812584133046166,0.17486864337682223,0.1873333536825546,0.49553030037528656,0.6602739636565493,0.9206349206349103,1
0.5793843622000877,0.17556019422669228,0.1750028719539175,0.45005497490839425,0.6560962627961273,0.9206349206348996,1
0.5802552267520724,0.17487322710548098,0.18631274890178867,0.43425489544848395,0.6560962627961273,0.9206349206349103,1
0.5775985020639489,0.17555555376651283,0.17475063249559003,0.4908552833162356,0.6569315417394566,0.9523809523809419,1
0.5783692592365228,0.17487793474724406,0.18261475884667117,0.4882263727637284,0.6569315417394572,0.9523809523809419,1
0.577066804761268,0.175550767426078,0.17489534872246637,0.4305313399282168,0.6586027526980036,0.9523809523809419,1
0.5772256603378152,0.17488281266104078,0.1850267181944401,0.4440718117990403,0.6535891198223642,0.9523809523809419,1
0.5755176933718354,0.17554578335008053,0.17512521666032232,0.5018068565589201,0.6560962627961275,0.9523809523809277,1
0.5759127667696464,0.1748879196480972,0.18467336351368274,0.48476361968062115,0.6552603307809104,0.9523809523809277,1
0.5739235907800325,0.175540533975798,0.17580183599450305,0.44136895924148656,0.6519185619357055,0.9523809523809277,1
0.5765384380094144,0.17489333434673554,0.1840847340188408,0.4269672750902555,0.6502473509771591,0.9523809523809348,1
0.571246581235431,0.17553492659055153,0.1757109485284271,0.4875251363139051,0.6544250518375816,0.9365079365079261,1
0.5763769017131091,0.17489916749394852,0.18561788511027622,0.4726356003274423,0.6535891198223642,0.9365079365079332,1
0.5745795535520966,0.17552882714255658,0.1755166063428269,0.42866102070260903,0.6510826299204888,0.9365079365079332,1
0.5783556553651923,0.17490558366803344,0.18613431931759594,0.45657193578780414,0.6552603307809106,0.9365079365079332,1
0.5749681977779905,0.17552203050769488,0.1763412930588863,0.4915908779659545,0.6510826299204884,0.9206349206349103,1
0.577087757662968,0.17491284275357472,0.18668809215074678,0.4309491562128491,0.6544250518375812,0.9206349206349138,1
0.5756085330225115,0.17551420139480706,0.1747474334792895,0.45449315804301077,0.6510826299204888,0.9206349206349032,1
0.5758943302819322,0.17492138624899622,0.18754219966204538,0.4901995848411024,0.6510826299204888,0.920634920634928,1
0.5740338181112925,0.1755047447052469,0.1747754970014797,0.444211955024347,0.6502473509771594,0.9365079365079225,1
0.5752970975476471,0.17493203847251015,0.18690425625396273,0.43260025278288683,0.6502473509771587,0.9365079365079332,1
0.5734820473895303,0.17549248090048658,0.17532491222058832,0.4948211697487252,0.6385495273392225,0.9365079365079261,1
0.5750608831062828,0.17494655550263816,0.1883620316258512,0.4844451296946619,0.6469049290600664,0.9365079365079261,1
0.5730476890009503,0.1754746622252848,0.17543268630086678,0.4488070923470934,0.6494114189619424,0.9365079365079154,1
0.5748519509060559,0.17496952378947528,0.1881066816820029,0.41816607692293434,0.6485761400186127,0.9365079365079225,1
0.5761397661660412,0.1754429311612431,0.17185041653076993,0.47463355476143276,0.6477408610752831,0.9365079365079225,1
0.5769703356943413,0.17501822328533434,0.18967730744301392,0.4891663891405583,0.6469049290600664,0.9365079365079261,1
0.574217651958304,0.1753537283822046,0.17617530535429088,0.44744899923010234,0.6443984391581901,0.9365079365079332,1
0.5775865541583584,0.17525029112033785,0.1950267205910916,0.42650548406687777,0.6452337181015204,0.9365079365079332,1
0.5744449384576401,0.17355575042607657,0.16325134070185549,0.4875907965449046,0.6460696501167367,0.9365079365079332,1
0.5672548571454844,0.16107440716475685,0.19756444125695488,0.4828103118453101,0.64523371810152,0.9365079365079332,1
0.534848297763821,0.14404166597446572,0.24242030949517251,0.43090362264664167,0.6435631602148608,0.9523809523809419,1
0.5028002874179653,0.14560358596063128,0.27333381165387416,0.42830723009951055,0.6427272281996446,0.9523809523809454,1
0.48103064766072806,0.16267237300330545,0.24333328120032305,0.4870621128594551,0.6469049290600664,0.9523809523809419,1
0.4995202385292683,0.1766146098103713,0.2228943132004933,0.4522479270344423,0.6477408610752822,0.9523809523809526,1
0.5114069016115977,0.18901118664251365,0.19086552432929943,0.4176590095192903,0.6510826299204884,0.9365079365079261,1
0.5292715185791099,0.19091444883425324,0.189451813698794,0.46787776144885274,0.6560962627961269,0.9365079365079332,1
0.5214659986804253,0.19026178227261892,0.1843783035748099,0.5234433079478731,0.6569315417394568,0.9365079365079261,1
0.5318642803162146,0.18554445631940253,0.19600136522964207,0.5198338266809657,0.6552603307809106,0.9365079365079332,1
0.5234989187474199,0.18342145613116045,0.19104358811155087,0.40914465479705964,0.6594380316413326,0.9365079365079154,1
0.53006194144325,0.18171382991348428,0.20740646986343297,0.43587944170932624,0.6560962627961269,0.9365079365079154,1
0.5023208704212909,0.18317149507171476,0.19930177862915432,0.47628280481870716,0.6569315417394572,0.9365079365079154,1
0.5249293187068071,0.18303801832983368,0.2083743589152912,0.44012504273726166,0.6552603307809106,0.9365079365079225,1
0.5009916201825031,0.17967856173595148,0.19230381591201678,0.4462846952505472,0.649411418961942,0.9365079365079154,1
0.5530511421897374,0.15923130587645923,0.232394750193136,0.5006332597468424,0.6560962627961278,0.9365079365079261,1
0.489413834523086,0.14819047238958916,0.18874231425861354,0.4603212601162863,0.6510826299204888,0.9365079365079225,1
0.42966672917689075,0.13515168770928465,0.5498933958374681,0.43326145972654256,0.6477408610752826,0.9365079365079261,1
0.5040544766199364,0.1055822030098496,0.4359061300390603,0.4782830377706346,0.6418919492563147,0.9523809523809454,1
0.640722728326662,0.10024838876519276,0.2018210340720647,0.4877117259600176,0.6519185619357049,0.9523809523809526,1
0.6635029747033304,0.10806430304589315,0.24283393754598342,0.354648298216147,0.6460696501167364,0.9523809523809454,1
0.6470809521117374,0.11244234515304413,0.22920193435939984,0.37201295550189895,0.6577668206827862,0.9523809523809526,1
0.6414951901825967,0.11578944720021528,0.2314205950773564,0.8639022318608368,0.6594380316413326,0.9365079365079119,1
0.6478558182205367,0.1197672654898953,0.21716515148219884,0.5304798870866625,0.658602752698003,0.9365079365079119,1
0.6375240967749346,0.1204057626942514,0.22716062431321382,0.1926769288018511,0.6611092425998795,0.9365079365079048,1
0.6452351111773968,0.12011392212304062,0.22304562966948865,0.38860643852288956,0.6569315417394566,0.9365079365079154,1
0.6333744519950172,0.1196157768404133,0.22235484078971784,0.4689271382375248,0.6619445215432089,0.9523809523809419,1
0.6476111884381701,0.11920366248344727,0.22687629641457646,0.45766004172420793,0.6602739636565493,0.9523809523809454,1
0.6313188186864217,0.12044423558663242,0.22201673328464433,0.4662977585794645,0.6627804535584259,0.9523809523809454,1
0.6565572857594513,0.11525451481931409,0.2192388451889159,0.48912672536303803,0.661109242599879,0.9523809523809526,1
0.5587259028272983,0.12155767740153689,0.20879530565391585,0.4430270028877628,0.6602739636565491,0.9523809523809526,1
0.4300550273943083,0.1853285615121849,0.6279793210848069,0.44615976432012855,0.6577668206827865,0.9523809523809526,1
0.5060568598335808,0.20792738926113546,0.8829902601881009,0.4546450005243023,0.6477408610752831,0.9523809523809526,1
0.42338681288135915,0.20816433661572176,0.8021038057566547,0.4557484867050089,0.7221041976195532,0.9523809523809561,1
0.3920521407934983,0.1766914018226436,0.6217229837093077,0.24254251046629416,0.7688941860275267,0.9523809523809348,1
0.42075179568201215,0.14074177707082625,0.3897067860407937,0.23107680284274668,0.7037221832193177,0.9523809523809419,1
0.41585237831658434,0.1609902742740691,0.2918845809425822,0.7366597688319954,0.652753840879035,0.9523809523809419,1
0.40713719228431783,0.16842209384719942,0.28722467262583384,0.7211934216226061,0.6427272281996441,0.9523809523809454,1
0.43402392732609985,0.1639983445275699,0.30724882420195376,0.611986826221556,0.6327006155202533,0.9523809523809419,1
0.41921869383236854,0.16613351932773324,0.2950833488708684,0.5384284375766935,0.6352071054221298,0.9523809523809419,1
0.428811589106784,0.16140450348356195,0.2996104427914157,0.47593745214685346,0.6251811458146259,0.9523809523809419,1
0.401611296159821,0.1637286683208436,0.31218021453962197,0.26196089624604135,0.6293588466750477,0.9523809523809419,1
0.3597548899413154,0.1701655707973646,0.4943685172106958,0.3561898687534518,0.6268517037012846,0.9365079365079403,1
0.3941767429437049,0.18341947199927727,0.6701607352003034,0.4407120554134045,0.628522914659831,0.9365079365079332,1
0.37713919162919407,0.2190477617083148,0.7502725097038894,0.41231604784821096,0.6510826299204888,0.9365079365079332,1
0.3278934441578371,0.22075783290286127,0.657952215997355,0.3781628195403286,0.6627804535584259,0.9365079365079403,1
0.3141590553615091,0.2231985542361114,0.6050937080036354,0.39140237576089343,0.6970379924570196,0.9365079365079225,1
0.30628458049567264,0.22299607397935534,0.5979041361206686,0.5988333988674686,0.6769847670982381,0.9365079365079332,1
0.31311895010590834,0.2314179189134788,0.6399543815265972,0.6254731898941577,0.6803265359434443,0.9365079365079261,1
0.3183984217280804,0.21811377469725268,0.41468640214880625,0.5172073536138064,0.6694646443207233,0.9365079365079332,1
0.3660750328613512,0.20264700815941605,0.33932086079330837,0.4197456665938951,0.6569315417394574,0.9523809523809277,1
0.37240363136485743,0.22063703635833465,0.2914927941400487,0.3564330450201375,0.6485761400186125,0.9523809523809419,1
0.4073034893759076,0.2400821660294427,0.22762850280152103,0.43841301388314086,0.6435631602148606,0.9523809523809277,1
0.39267172840137493,0.26560294825019226,0.1962779058202398,0.5563851156273459,0.6410560172410982,0.9523809523809419,1
0.4091529703114866,0.2753024878456676,0.2064263603971564,0.5419940876562105,0.6402207382977678,0.9523809523809526,1
0.40441540348785926,0.27566371235273845,0.2031544994751715,0.3623074994619799,0.6402207382977678,0.9523809523809632,1
0.4012192672231461,0.2773130354389186,0.21477963103376085,0.2705150999433664,0.6368783163806762,0.9523809523809526,1
0.40451222577785345,0.2751373175335886,0.2034105587245899,0.42823328563203994,0.637714248395892,0.9523809523809561,1
0.40220721059728565,0.2769373468259842,0.2128985929944957,0.45558370031014667,0.631865336576924,0.9523809523809454,1
0.40403929506995484,0.27535540935603253,0.2045412812402041,0.5314240747633502,0.6377142483958915,0.9523809523809454,1
0.40247582567707096,0.2767872663534695,0.21209824334518446,0.49008965357926837,0.6327006155202537,0.9523809523809454,1
0.40387332768177964,0.2754737099045807,0.20515776377946943,0.414168914718764,0.6343718264788001,0.9523809523809419,1
0.4025832270666877,0.27570716213794644,0.2115993599858989,0.4834606915248513,0.6335365475354697,0.9523809523809526,1
0.4038022194769103,0.2756112554069089,0.2055725146149806,0.5147304707069995,0.6310294045617071,0.9523809523809454,1
0.40263046452377643,0.27534552281447866,0.21125523111810407,0.4295394075200983,0.6327006155202539,0.9523809523809419,1
0.40377143343701355,0.27461919439405724,0.20581771378734798,0.44816865857714616,0.6318653365769233,0.9523809523809454,1
0.4026494483533001,0.27593925674627817,0.20996514174144437,0.5226700538848204,0.6318653365769238,0.9523809523809419,1
0.403761246223594,0.27552685523869014,0.20637315834381198,0.4847182261381752,0.6293588466750484,0.9523809523809526,1
0.40265280695788275,0.27668311975061594,0.20973182678496072,0.41213525912937615,0.6310294045617071,0.9523809523809419,1
0.4037634474172557,0.2755340837521021,0.20628784026739183,0.46143200131716755,0.6268517037012848,0.9523809523809526,1
0.40264580293921504,0.2766619844075841,0.21054098001817523,0.5150697015199176,0.6301941256183774,0.9365079365079261,1
0.40377491924018233,0.2755538700850091,0.20654273606812085,0.48785505679224406,0.6310294045617073,0.9365079365079332,1
0.402629786639426,0.27664519079894706,0.21035549246595375,0.4272795096258051,0.6201675129389868,0.9365079365079261,1
0.4037960510251373,0.27556763908708215,0.20670104118720217,0.438862020065383,0.6276876357165015,0.9365079365079332,1
0.40260223524636884,0.27663429422272506,0.2102177239857324,0.5060508346822993,0.6251811458146257,0.9523809523809419,1
0.4038326427415967,0.27557573612726016,0.20681610746543566,0.4795800130941692,0.6301941256183772,0.9523809523809419,1
0.40255113634765993,0.27662908119490986,0.2101413864754576,0.4219380835070282,0.6276876357165015,0.9523809523809419,1
0.4039114193044407,0.2755777526205356,0.20674961463879266,0.44489613360054586,0.6285229146598315,0.9523809523809454,1
0.40240162264805746,0.27663093641033254,0.20902713224087494,0.5021980202293567,0.6251811458146252,0.9523809523809454,1
0.40446075135901305,0.2755706836369963,0.20739105073490482,0.47293423263554085,0.6285229146598315,0.9523809523809526,1
0.4032079304943329,0.27664599912297516,0.2092503675495337,0.4127532244448894,0.6218387238975336,0.9523809523809526,1
0.40368347056921866,0.2755410715726243,0.20649358383524308,0.45136267872457053,0.6260164247579549,0.9523809523809561,1
0.40253429192039464,0.2767101499662402,0.210201861549087,0.5073292472970767,0.6218387238975331,0.9365079365079225,1
0.4047160740483662,0.27533019746498644,0.20598828846637823,0.47560721995592,0.6268517037012846,0.9365079365079332,1
0.40515047513212726,0.2757128826216544,0.20752121776427496,0.41048857434329705,0.6268517037012848,0.9365079365079225,1
0.40555734332725885,0.27579309556344866,0.20490632753187554,0.43905107540843324,0.6251811458146257,0.9365079365079403,1
0.40515609321530127,0.2764946163785471,0.20459506571860342,0.5111512728110816,0.6251811458146252,0.9365079365079154,1
0.4072391328630221,0.2756769365874091,0.2051272463884089,0.48014482655532886,0.6251811458146257,0.9365079365079154,1
0.40855775691791113,0.27655352086554374,0.20626415735273418,0.4312127530115656,0.6260164247579558,0.9365079365079154,1
0.4086556668829005,0.2756311261578757,0.20662263324858982,0.42960421746463473,0.6235099348560789,0.9365079365079225,1
0.406299363299151,0.27660216142194316,0.20653690760694454,0.5009661909928088,0.6268517037012848,0.9523809523809277,1
0.40605599133938447,0.27556290444957265,0.2050085513824973,0.47418472799796424,0.6193322339956566,0.9523809523809348,1
0.4086741153232977,0.2767366435387708,0.2052882283037602,0.42958227031199414,0.6235099348560798,0.9523809523809348,1
0.41002469264330227,0.274911287571562,0.20275904623681212,0.42639905606298273,0.6218387238975331,0.9523809523809348,1
0.4105427461069111,0.2760840319311574,0.20617937768477035,0.5061194071836385,0.6226740028408626,0.9365079365079332,1
0.40946374819441467,0.2758352133530544,0.20254577973226978,0.47618162340268194,0.6218387238975327,0.9365079365079332,1
0.40962764801170065,0.27644601723270656,0.20303096844189028,0.4342025364196955,0.6218387238975331,0.9365079365079261,1
0.4096938925032743,0.27572133160623535,0.2037896177575188,0.4187088266694634,0.6218387238975329,0.9365079365079332,1
0.409923161340653,0.2765142481405467,0.2024062734373196,0.5054758991226141,0.6193322339956571,0.9523809523809419,1
0.41221215863670874,0.27566556108969253,0.2000345184444286,0.47811568327181886,0.6251811458146252,0.9523809523809526,1
0.41043752257328486,0.27657176594945676,0.20322179542499474,0.44493965184902434,0.6201675129389863,0.9523809523809419,1
0.41221727067611985,0.2755912271377182,0.2012218309702707,0.41731292046899393,0.6218387238975336,0.9523809523809526,1
0.41035025463019875,0.2767050324946223,0.2011428027554974,0.49164443655923706,0.612647390161472,0.9365079365079225,1
0.412014083086423,0.2748066853282596,0.20036305583377445,0.475679848654028,0.6201675129389863,0.9365079365079261,1
0.41142351892829904,0.2754887988343732,0.20054503773036847,0.4306608215372776,0.6184963019804404,0.9365079365079225,1
0.4122603177374831,0.2750466911716213,0.20050289142783123,0.4390994131108896,0.6193322339956573,0.9365079365079261,1
0.41035311707219985,0.27591321459448015,0.20139314030841704,0.5117154782027555,0.6184963019804404,0.9206349206349103,1
0.4121999612335827,0.2758640761048905,0.2005832596473851,0.47053791534222483,0.6176610230371107,0.9206349206349103,1
0.4103353740149589,0.27645021571310363,0.20131486396509973,0.4575144644847295,0.6184963019804408,0.9206349206349103,1
0.412249894639089,0.27568749262316394,0.20066403617838013,0.3993033435164751,0.6159898120785647,0.9206349206349138,1
0.4102586638403222,0.27658683186272925,0.2012282423259159,0.4797081443080892,0.6176610230371109,0.9365079365079261,1
0.41235788955494257,0.27552986386566913,0.2007598229657952,0.4877148420310888,0.6193322339956571,0.9365079365079332,1
0.4101057871045671,0.27684305164801915,0.2011194238110382,0.481986688545048,0.6176610230371111,0.9365079365079332,1
0.4125885070593637,0.2747305205632068,0.2008863510804425,0.4158409116596201,0.6143186011200179,0.9365079365079332,1
0.4096948122870508,0.27518592875399966,0.2009702518395619,0.4442183684323513,0.6168257440937814,0.9523809523809419,1
0.4140051838806047,0.27532884773906036,0.20105838625272582,0.49406538163505676,0.6159898120785647,0.9523809523809419,1
0.4108386401050964,0.27586363931314023,0.2008178407674326,0.4754798090083257,0.6143186011200188,0.9523809523809348,1
0.4135498903128924,0.2758977944457157,0.20024926767471918,0.4192490535289673,0.6151545331352348,0.9523809523809526,1
0.4108378365015575,0.27537118189585913,0.19878123976978296,0.4542867077551299,0.6126473901614722,0.9365079365079332,1
0.4151100753640327,0.2757830512216214,0.20339039115787572,0.49455514272522927,0.616825744093781,0.9365079365079403,1
0.4117544065051613,0.26814293965102864,0.18141638577950692,0.4754337058100967,0.6143186011200183,0.9365079365079332,1
0.4376662927943615,0.23637838369789327,0.20939150272621282,0.42598075277223985,0.6151545331352346,0.9365079365079332,1
0.47693261816997523,0.2020987617767694,0.23592292457926717,0.4324578519782201,0.6143186011200183,0.9365079365079225,1
0.4705724660231232,0.20127226982803725,0.21238666925083405,0.49823070003348724,0.6134833221766882,0.9365079365079261,1
0.4370243898914062,0.22221499818366985,0.2339438927235909,0.49731601272875486,0.6101409002595961,0.9365079365079261,1
0.41532219604953863,0.24415882666674005,0.2205086453340226,0.49050096573617913,0.6101409002595961,0.9365079365079332,1
0.37787088601059515,0.26958183374627653,0.22468678999905561,0.41908761969493924,0.612647390161472,0.9365079365079332,1
0.3766151292844058,0.2781413345741992,0.22650104420680273,0.42948194994926087,0.6126473901614722,0.9365079365079403,1
0.3813552815046372,0.26913825759516313,0.2302150280490966,0.4386368171890918,0.6134833221766884,0.9365079365079332,1
0.3407016540739487,0.2660289201517878,0.28067271767900503,0.4479638480765121,0.611812111218142,0.9365079365079403,1
0.3401641796451055,0.2643235267865476,0.31298775713464444,0.4757122998631478,0.6143186011200183,0.9523809523809348,1
0.3381229944797776,0.2672118376974948,0.2780046499641641,0.46734220200538756,0.6134833221766882,0.9523809523809419,1
0.3352452779392509,0.274797086276352,0.2891456293294419,0.48244355052604815,0.6101409002595961,0.9523809523809348,1
0.3390699583731227,0.2727437148308326,0.27859477724773307,0.47125852524251655,0.6118121112181425,0.9523809523809526,1
0.35433515566773366,0.27430505584055975,0.264407324826512,0.39148396041419053,0.6101409002595961,0.9523809523809277,1
0.37398619906411884,0.26843200618808505,0.23132355167687374,0.4413585765273871,0.6059631993991736,0.9523809523809277,1
0.3612179092715347,0.2661442857202978,0.2711001590906135,0.5484683319145993,0.6051279204558444,0.9523809523809277,1
0.3712305235069292,0.26119891182485333,0.2567463126949786,0.603595370967979,0.6042919884406273,0.9523809523809277,1
0.38429485470483665,0.26454473865237627,0.22944596423407237,0.5207369783043315,0.5976077976783298,0.9523809523809277,1
0.37864387139204886,0.26711201179155575,0.24063903326513186,0.39121317198357386,0.6059631993991736,0.9523809523809277,1
0.37011091317573236,0.27433839766404944,0.2475884755842126,0.36218205882463056,0.6017854985387519,0.9523809523809277,1
0.38768193964591646,0.2736881207179497,0.21134502449998138,0.39403166966054215,0.6017854985387519,0.9523809523809348,1
0.36676688546974606,0.27885811891492346,0.227767317530163,0.37233195157963106,0.6017854985387519,0.9365079365079261,1
0.37692476684932563,0.25946511320191956,0.21273897831403438,0.4274134906417322,0.6067991314143903,0.9365079365079403,1
0.37616611977302045,0.24641765103917673,0.32792069908772287,0.4670304384292599,0.6176610230371109,0.9365079365079332,1
0.2956134572758922,0.2700802661749421,0.3606070281958332,0.3921876152757514,0.6176610230371107,0.9365079365079403,1
0.34266212122556017,0.27427699007090034,0.24571838553598968,0.4471820037516086,0.6084696893010499,0.9523809523809348,1
0.3558785832506237,0.2855522711523995,0.2520259390164167,0.6980028541227723,0.6101409002595957,0.9523809523809419,1
0.36436420596652647,0.28258327571029007,0.2401545441288524,0.5233255577938296,0.6034567094972978,0.9523809523809348,1
0.36050690596560253,0.2845012156025505,0.255194753193491,0.25021812035363417,0.6059631993991741,0.9523809523809419,1
0.39747086035895546,0.2711840487949513,0.1953286306529579,0.5262792897480361,0.6042919884406273,0.9523809523809419,1
0.4937763410200031,0.22726636599625566,0.15120806735993214,0.48033860285576335,0.6067991314143903,0.9523809523809419,1
0.5895471894200257,0.1728528582375236,0.2396971360668862,0.4336289761299902,0.5959365867197839,0.9523809523809419,1
0.7007232818637565,0.16988329581957767,0.1652504084464959,0.43857915881229953,0.6051279204558442,0.9523809523809454,1
0.7188170707425326,0.18553351059180428,0.12602179654947054,0.6302550105180259,0.6184963019804404,0.9523809523809419,1
0.6967823476203515,0.17094943416218583,0.12363780515706668,0.516663944323291,0.658602752698003,0.9523809523809454,1
0.6021681586623016,0.14431243470812544,0.23935339865399413,0.24924574078483527,0.6535891198223642,0.9523809523809454,1
0.45244317907198345,0.13430668233364795,0.34242905024107984,0.45481756268864587,0.6293588466750479,0.9523809523809526,1
0.4893608263370993,0.1252074088629378,0.2725472236702702,0.577780939873554,0.6143186011200183,0.9523809523809419,1
0.5048630517913385,0.12268261330028374,0.3007511991939288,0.47251744846298804,0.6084696893010499,0.9523809523809419,1
0.49865756193104493,0.1224651020987948,0.2830494676507156,0.33044136340173574,0.6067991314143908,0.9523809523809348,1
0.5116830102340341,0.12041699845402482,0.2914456028892549,0.3163240420583709,0.605127920455844,0.9523809523809419,1
0.5096144993008361,0.12111068566135463,0.27605671379466445,0.5883443996125057,0.6034567094972978,0.9365079365079261,1
0.5165995246832287,0.12079019881945796,0.28415322418262423,0.47747854608037266,0.6051279204558444,0.9365079365079332,1
0.5104025989560068,0.12096295739360374,0.2766815062224493,0.44063357239120066,0.6034567094972978,0.9365079365079261,1
0.5092559344695977,0.12199932243216188,0.2921988086106466,0.5225682155387116,0.6042919884406277,0.9365079365079403,1
0.5061821683694392,0.1204284838948102,0.27688300069515726,0.47929881238092453,0.6009502195954219,0.9365079365079261,1
0.5018655996131798,0.11846998348327192,0.2982096887788668,0.4130706849158869,0.605127920455844,0.9365079365079261,1
0.49884827779130403,0.11392104327955704,0.3031642922445375,0.48064996192430204,0.5976077976783294,0.9365079365079261,1
0.49786263429143945,0.1149411326173187,0.3029059912765865,0.4527211567039075,0.6017854985387519,0.9365079365079332,1
0.49752690358507773,0.11460630867956229,0.2961802672265469,0.433154584585408,0.5992790086368756,0.9523809523809348,1
0.5028623322035733,0.1144891409140893,0.30232097311458084,0.48162633018736634,0.6001142875802055,0.9523809523809277,1
0.4838373513332042,0.1179079319048148,0.29937583770155635,0.5120427778659471,0.5992790086368758,0.9523809523809277,1
0.5117099001811745,0.12105300652189632,0.3101033612795917,0.44501090400446347,0.6001142875802059,0.9523809523809419,1
0.5862305952728648,0.11712293470149826,0.2267292112949431,0.45231639304540905,0.5934300968179071,0.9523809523809277,1
0.5897502108023063,0.12571919824975603,0.26890183288993985,0.4994397603328061,0.595936586719783,0.9523809523809419,1
0.5453615866583854,0.17171389873739928,0.1926564220658989,0.4650839903431517,0.6001142875802055,0.9523809523809348,1
0.3401092912991537,0.23267339522721098,0.2524009916860287,0.47464464182748384,0.5942660288331236,0.9523809523809419,1
0.38156118660346655,0.20507270779941383,0.4050934627756648,0.5836850709892075,0.5984437296935461,0.9682539682539577,1
0.3260347708490466,0.2619849818533516,0.3447488864774301,0.44855445322862,0.5942660288331234,0.9682539682539684,1
0.3113578709110976,0.285260329259018,0.2444415982434433,0.36607404188283815,0.6001142875802055,0.9682539682539577,1
0.31052975933654803,0.24567176815489628,0.3298695960135136,0.42170520064799194,0.6101409002595957,0.9682539682539684,1
0.3617585022853061,0.1772881305789295,0.4322724671147,0.6006135491542183,0.5925948178745781,0.9523809523809348,1
0.47197129097961216,0.09607130198791336,0.48352895072650504,0.3710546908769138,0.5951013077764533,0.9523809523809419,1
0.466131219324445,0.0846445959265617,0.5263110576935991,0.4142601379289606,0.5934300968179076,0.9523809523809419,1
0.4603602851011058,0.08309535240803928,0.516479331791113,0.3239060118004341,0.5967725187349995,0.9523809523809419,1
0.4266265739009238,0.10004236923119925,0.5117807945754462,0.4157738365204581,0.595936586719783,0.9523809523809454,1
0.4173270853518586,0.10417070774477388,0.5141966675853971,0.5166158539909036,0.5942660288331234,0.9523809523809454,1
0.42030211906010906,0.10824421814622293,0.5420088735373381,0.5306159794929188,0.5951013077764533,0.9523809523809526,1
0.43178134862653517,0.10617018320093186,0.5963603741668673,0.46206570183222856,0.5967725187349999,0.9523809523809419,1
0.42439166402315937,0.10255127046320106,0.49206165351250114,0.4566279900918335,0.6042919884406273,0.9523809523809526,1
0.4817252713496532,0.07925795995159401,0.48488614862145685,0.46748147475071283,0.6017854985387519,0.9523809523809454,1
0.4302420464616545,0.09262667599487256,0.472893801950353,0.43607745509311946,0.5967725187349999,0.9523809523809419,1
0.4455345690254818,0.09316956882235994,0.4696177758048511,0.5554137201353129,0.5925948178745775,0.9523809523809454,1
0.4337655146787764,0.09789922835802284,0.4689896361605812,0.5173246805378984,0.5925948178745777,0.9523809523809348,1
0.4352908121981001,0.09665141710678793,0.47312699907184363,0.34252380813335687,0.5951013077764533,0.9523809523809419,1
0.43276096807418046,0.0986635498866199,0.47177592511108235,0.44266484110369225,0.5900883279727014,0.9523809523809348,1
0.4342054650368216,0.09653021195724781,0.4729884482169644,0.4498223171044474,0.5917588858593608,0.9523809523809454,1
0.43103995118958127,0.09869404892639166,0.4718386494527452,0.43943411984658043,0.5917588858593614,0.9523809523809348,1
0.4357420352732125,0.09652728353099405,0.47043750375308374,0.5001752019586302,0.591758885859361,0.9523809523809419,1
0.4316109407239377,0.09868595404410213,0.46652249916265287,0.48542183481490825,0.5884171170141557,0.9523809523809348,1
0.4352432986907262,0.09654477898051533,0.46647859020322213,0.42794017456658023,0.5884171170141554,0.9523809523809419,1
0.4311771230629732,0.09864119108206487,0.46465573256721154,0.4851157428082968,0.587581184998939,0.9523809523809419,1
0.4345674009003842,0.09678428693492341,0.4671675589932579,0.49246928018374203,0.5900883279727014,0.9523809523809348,1
0.42968969106671256,0.09997636630017537,0.46569669366019384,0.433199429877636,0.5875811849989383,0.9523809523809348,1
0.43098538738245046,0.09933825374852162,0.46762399408128413,0.4435036688625648,0.5867459060556091,0.9523809523809419,1
0.4255335702702774,0.10364617959431988,0.4652973521231882,0.5038773437362515,0.5867459060556091,0.9523809523809348,1
0.4307281981364183,0.09953917064544587,0.46676600933551715,0.4533952769799838,0.5875811849989387,0.9523809523809419,1
0.42963691315272434,0.10005548174890017,0.46735498115018637,0.4318290733340969,0.5867459060556095,0.9523809523809419,1
0.4303052130841128,0.09788738630798499,0.46697555475086605,0.4799949245066827,0.5867459060556091,0.9523809523809419,1
0.42765915417516226,0.10217622887763073,0.46434058672123124,0.49018707302759673,0.5867459060556091,0.9523809523809419,1
0.4331029177687652,0.0979654496414416,0.4680869445858181,0.4290622761935946,0.5859106271122796,0.9523809523809526,1
0.4266417886189701,0.10207768478308477,0.46680473308395254,0.4336425363567558,0.5834034841385165,0.9523809523809419,1
0.4286820450614343,0.10344298428804788,0.46765072107687194,0.49487196428376085,0.5850746950970629,0.9523809523809526,1
0.427342450647929,0.10440127540755456,0.4669398170616226,0.48237781762635984,0.5842394161537328,0.9523809523809348,1
0.4307698664750222,0.09754489903584529,0.46658063644921877,0.4337141794510045,0.5875811849989387,0.9523809523809348,1
0.43990428749080124,0.09864100677704257,0.45794203468173345,0.42305522049878247,0.5825682051951873,0.9523809523809277,1
0.4437773953421963,0.09636621828447445,0.4425675799977653,0.4827432956910201,0.5850746950970629,0.9523809523809419,1
0.43884295191525513,0.09899576303706642,0.4319608694222509,0.4833854822841987,0.5825682051951873,0.9682539682539577,1
0.449960953899986,0.09612441928251148,0.43001902486403587,0.43412396672478115,0.5859106271122791,0.9682539682539577,1
0.4471342953540672,0.09692849336836884,0.4240609655359516,0.4319319334214151,0.5850746950970629,0.9682539682539577,1
0.45174220855926717,0.09178827736505318,0.44243138595932496,0.49625592516523603,0.5817329262518571,0.9682539682539648,1
0.4419013751522439,0.09799016932253196,0.4413205680017701,0.47574087226771544,0.5808969942366407,0.9523809523809348,1
0.4361394818568388,0.09636113530141749,0.46263740358353844,0.42812979980865873,0.5767192933762189,0.9523809523809348,1
0.4278833789812022,0.10334749418007994,0.4795094228269456,0.46997133069871205,0.580061715293311,0.9523809523809277,1
0.45409273078308576,0.08753037840110822,0.4678038730967392,0.48888943055992584,0.5775552253914349,0.9523809523809277,1
0.5809144150496682,0.10488861298017532,0.3329350621914512,0.41345326249483194,0.5825682051951873,0.9523809523809277,1
0.47063983631337336,0.16658757756435055,0.17795145470998353,0.4242751691198707,0.579225783278094,0.9523809523809348,1
0.5032557945452005,0.16982436796702705,0.17999040811208095,0.5214269920903617,0.5834034841385165,0.9523809523809277,1
0.5657277728696706,0.1377930776884198,0.2421732368976819,0.5904100620522377,0.5875811849989387,0.9523809523809419,1
0.5496987335061165,0.11718227160332478,0.2516652043168688,0.5292736253162792,0.5834034841385165,0.9761904761904532,1
0.5138426077088267,0.1268149328845775,0.28948578786849866,0.25589853588759637,0.5892523959574847,0.9761904761904603,1
0.4945029936496359,0.12348566489800428,0.2684586742565983,0.36410332754160973,0.575884014432889,0.9761904761904532,1
0.5321466180205005,0.11636722663309251,0.2999539559980693,0.3632326905518453,0.582568205195187,0.9761904761904603,1
0.5302697256760717,0.11112038808707542,0.2603359893105163,0.4980918279035117,0.5767192933762184,0.968253968253947,1
0.6067923277794032,0.11374403043153919,0.2964090479611978,0.5943056707371114,0.5842394161537325,0.96825396825394,1
0.6797943795878555,0.16066954129087613,0.17394506417944122,0.47981818554049865,0.5792257832780945,0.96825396825394,1
0.6089620459411411,0.21140640920200954,0.10149732759551405,0.4443676826433295,0.5850746950970629,0.968253968253947,1
0.5809956629964542,0.20684369462103458,0.20901393084595926,0.503928214028257,0.5951013077764535,0.9682539682539542,1
0.5595832258975312,0.22676976828192663,0.1574809590434777,0.47993966639551355,0.6109768322748124,0.9682539682539577,1
0.45696331181225613,0.29602637460021963,0.11476175409616068,0.46374674653312,0.6293588466750479,0.9682539682539577,1
0.5213247094668915,0.2577548407708166,0.14523230150608957,0.46744911861780286,0.6109768322748121,0.9682539682539577,1
0.4649129542210844,0.24785272487196813,0.20450133262910292,0.6641039770254679,0.6017854985387514,0.968253968253947,1
0.49129892486169857,0.26479336006862364,0.1550932053535164,0.33606742193600647,0.5892523959574847,0.9682539682539542,1
0.4695950718686237,0.28542891638773576,0.13865578603868567,0.39745102365708757,0.5875811849989387,0.968253968253947,1
0.4500236176246414,0.29704977690717566,0.14585540638606537,0.4903996397933774,0.5817329262518576,0.9682539682539542,1
0.4502415414591899,0.2910545113989086,0.16962451410656743,0.43104797012544666,0.5834034841385165,0.9523809523809348,1
0.41522227989261856,0.29254360331707796,0.1993648292364152,0.35172758499652934,0.5850746950970629,0.9523809523809419,1
0.4816154023530148,0.2932994206543601,0.13903618714445876,0.38658740608801695,0.5842394161537332,0.9523809523809419,1
0.48044246434568627,0.29950690662023055,0.13256660442471596,0.483658132719731,0.5808969942366404,0.9523809523809419,1
0.4691489639327735,0.2955682368606923,0.15239866310563321,0.41856343477671343,0.5825682051951864,0.9682539682539542,1
0.4603465406487451,0.29551646530826103,0.14990008282226708,0.5405327236029451,0.5842394161537328,0.9682539682539577,1
0.4581971681045769,0.2943939449973516,0.16195620053603355,0.6702291820673427,0.5792257832780945,0.9682539682539577,1
0.46028366703859563,0.29268235951235,0.15006113940687493,0.3771331476619769,0.5808969942366409,0.9682539682539577,1
0.4581087519200488,0.2935286608847044,0.16092868535601812,0.2989715084519663,0.5742128034743423,0.9682539682539577,1
0.45089949659646456,0.2946146823981933,0.15303934713817002,0.4621190957351238,0.5800617152933107,0.9682539682539648,1
0.4533412034904899,0.2949448630064982,0.1593705610658962,0.5181593111596737,0.5758840144328892,0.9682539682539577,1
0.4523552403726473,0.2972997221211814,0.15362040363002644,0.4935057070861616,0.5783905043347646,0.9682539682539648,1
0.45577452978362143,0.29578711885998665,0.1582869906896952,0.4366836700425696,0.5783905043347648,0.9523809523809277,1
0.45658728383733765,0.2984126527103732,0.15344945160107726,0.4742038583774848,0.5758840144328885,0.9523809523809419,1
0.45329402662393825,0.29705615354240267,0.1581172170218723,0.4831331332892163,0.575884014432889,0.9523809523809277,1
0.4523240032774456,0.2974773228563322,0.15362620210603373,0.4324181919151897,0.575048082417672,0.9523809523809419,1
0.4530142485141081,0.29475176707004197,0.15872957318885106,0.46881624670767974,0.575884014432889,0.9682539682539542,1
0.4516655509630424,0.29547331641324937,0.15567424894118403,0.482502430363743,0.5758840144328887,0.9682539682539577,1
0.45181592131476045,0.29769543970779466,0.1579485213501874,0.44973589484878057,0.5742128034743428,0.9682539682539542,1
0.4514110699742973,0.29744456877698977,0.15403719353938783,0.4680394744205346,0.5758840144328883,0.9682539682539577,1
0.45183800787007494,0.2957515237504481,0.15743077795555438,0.4538978805106066,0.5725415925157962,0.968253968253947,1
0.4514268783394162,0.29779647173448,0.15485527051803327,0.4383941375767248,0.5717063135724665,0.968253968253947,1
0.45181133325944994,0.29832255282454645,0.15792122304777595,0.49076009597636744,0.5725415925157966,0.968253968253947,1
0.45145682133876364,0.29941667455497145,0.154070086648598,0.4749580984358536,0.5733768714591261,0.9682539682539542,1
0.45178090269558074,0.29851924096657995,0.15752997180476258,0.4364526855041512,0.5733768714591261,0.9682539682539577,1
0.4514865906013292,0.29843738486591076,0.15621109739848815,0.447806035519381,0.5758840144328883,0.9682539682539648,1
0.45175228537448037,0.29701528236751923,0.15783459103953001,0.5014856275627054,0.5742128034743423,0.9682539682539577,1
0.4515138608327278,0.2998584349546919,0.15573158996632186,0.47810473206434356,0.5742128034743421,0.9682539682539648,1
0.451726415813487,0.2983681532564743,0.1582206756439683,0.43386810410336374,0.5733768714591261,0.9761904761904638,1
0.4515383461716354,0.2986715103708722,0.15431158123606986,0.4277198198582977,0.572541592515796,0.9761904761904638,1
0.45170326369512515,0.29773570865089116,0.15718556849397292,0.48756813026537715,0.5733768714591261,0.9761904761904638,1
0.4515602322162413,0.2988878309250768,0.1546308691240334,0.4615288562416007,0.5717063135724665,0.976190476190471,1
0.45168257026298475,0.2988988747286405,0.15802340469398712,0.4349664427072577,0.5675286127120442,0.9682539682539577,1
0.4515798074956445,0.2990204791870489,0.15450549493272636,0.4591196315862414,0.5733768714591256,0.9682539682539577,1
0.4516640405325874,0.2976718384290808,0.15707028963564879,0.4871503293598159,0.5708703815572507,0.9682539682539577,1
0.45159736094735187,0.29785323750794657,0.15465086916473242,0.4289972609900435,0.5708703815572498,0.9682539682539648,1
0.45164739811709204,0.2984017556046024,0.15791167940568596,0.4491704705161151,0.5700351026139203,0.9523809523809419,1
0.45161315329494345,0.29958962122803756,0.15473229267403105,0.4862525823173934,0.572541592515796,0.9523809523809419,1
0.4516323991346787,0.2973810873931655,0.15689977033229258,0.47479858074998826,0.5708703815572502,0.9523809523809419,1
0.4516274114995245,0.2979891570560792,0.1547972038323311,0.4269635367794302,0.5708703815572498,0.9523809523809454,1
0.45161883301132383,0.2973555349365947,0.15683988040392943,0.4371375885625828,0.5733768714591256,0.9523809523809454,1
0.4516403306066041,0.29863441156665294,0.1548530599070871,0.49373228728677565,0.5708703815572498,0.9523809523809419,1
0.45160651921739925,0.2993969034909669,0.15678740577745975,0.48104245624215813,0.5708703815572498,0.9523809523809419,1
0.4516520776954046,0.29638596352510416,0.15490261604803368,0.44717988203653497,0.5650214697382814,0.9523809523809454,1
0.45159530306490775,0.2983432897944429,0.15674042146519185,0.42059483973084116,0.5691991705987038,0.9523809523809419,1
0.45166279608211396,0.29844898721716406,0.1549472990510362,0.4835441811364283,0.5666926806968275,0.9523809523809526,1
0.45158505164757334,0.29872098037622624,0.15669782174015956,0.48519070586769014,0.5683638916553742,0.9523809523809419,1
0.4516726091593313,0.2993328456338824,0.15498799577006556,0.45461234612267515,0.5625149798364055,0.9523809523809526,1
0.45157565025821583,0.2992058984403121,0.15665887590329863,0.4221329363902316,0.567528612712044,0.9365079365079154,1
0.4516816237102456,0.2982881059045219,0.15502532122482537,0.4668002308716851,0.567528612712044,0.9365079365079225,1
0.45156699933991234,0.3000598628112938,0.15662305737254273,0.48930870194873655,0.5683638916553742,0.9365079365079154,1
0.4516899327037208,0.29822340921815005,0.15505973256159306,0.4501602346891005,0.567528612712044,0.9365079365079225,1
0.45155901192850845,0.2973921413186818,0.15658996476829357,0.4306971608953794,0.5650214697382814,0.9523809523809419,1
0.45169761763248434,0.2984940574756337,0.15509158549365798,0.47511846375762856,0.5675286127120438,0.9523809523809348,1
0.45155161151478274,0.29619397605692954,0.15655928040263156,0.4875416611768836,0.5616797008930763,0.9523809523809348,1
0.45170475046930914,0.29954595164101794,0.15512116558479527,0.429359493843802,0.5658574017534981,0.9523809523809419,1
0.45154473025197267,0.2993047157338523,0.15653074619441198,0.45926086762316726,0.5633509118516222,0.9523809523809419,1
0.45171139531272053,0.2982988972488219,0.15514870714341855,0.48854557755758976,0.5616797008930761,0.9523809523809526,1
0.4515383074410181,0.2983479386807135,0.1565041486003947,0.4511214436673901,0.5641861907949519,0.9523809523809454,1
0.4517176097854804,0.29972868270225556,0.15517440541625055,0.4359571368282183,0.5641861907949519,0.9523809523809526,1
0.45153228823474933,0.2990928535301194,0.15647930862199244,0.49694502359229,0.5641861907949524,0.9523809523809277,1
0.45172344624033517,0.2997248578609991,0.15519842486937857,0.4831123086400853,0.5616797008930756,0.9523809523809419,1
0.45152662251047865,0.29865155968605606,0.15645607487718538,0.4622322319379733,0.5666926806968275,0.9523809523809277,1
0.45172895282004244,0.29887439371875113,0.15522090503171065,0.40841609782191846,0.5616797008930756,0.9523809523809419,1
0.45152126386703867,0.29948746514254443,0.15643431863852275,0.4804346520675114,0.5616797008930758,0.9523809523809419,1
0.45173417441308694,0.2993670527290466,0.15524196473119772,0.48679770607815587,0.5600084899345295,0.9523809523809454,1
0.4515161687068563,0.2993599910123169,0.15641393020215266,0.4768142443904371,0.5524883671570149,0.9523809523809419,1
0.45173915354304434,0.2994470046038448,0.15526170521463317,0.4258710635012508,0.5600084899345297,0.9523809523809419,1
0.45151129536599577,0.29927511096592596,0.15639481620530937,0.4413541962026732,0.5591732109911998,0.968253968253947,1
0.45174393122837264,0.2986260498630919,0.1552802124510848,0.48886440119637364,0.5608437688778587,0.9682539682539542,1
0.45150660325503905,0.29816295881133037,0.15637689765614204,0.4793799528743033,0.5591732109911998,0.9682539682539542,1
0.45174854785079877,0.29836606227087825,0.1552975588046479,0.43523645636876107,0.5600084899345295,0.9682539682539577,1
0.45150205197083115,0.29963035129766324,0.15636010853075694,0.43711583049051916,0.5541595781155606,0.9523809523809419,1
0.4517530440749491,0.2992423739237976,0.15531380418826918,0.48321179695428407,0.5633509118516222,0.9523809523809348,1
0.45149760033277186,0.29948458966786307,0.15634439485394758,0.46614362842758544,0.5600084899345297,0.9523809523809277,1
0.4517574618703719,0.2993106728551184,0.1553289967575417,0.42673531289217304,0.5591732109912002,0.9523809523809348,1
0.451493205286303,0.2994425537372783,0.1563297142269861,0.453945223539585,0.5575020000326538,0.9365079365079119,1
0.451761845701156,0.2993407638876162,0.1553431731600981,0.4900192645209001,0.5608437688778591,0.9365079365079154,1
0.4514888205985186,0.2994185713358565,0.1563160358075396,0.4710609115618685,0.5616797008930761,0.9365079365079119,1
0.4517662439705523,0.29936162273852085,0.15535635831424421,0.4253879217733454,0.5575020000326543,0.9365079365079225,1
0.4514843952431178,0.29939898222869554,0.15630334079091485,0.4549891731956503,0.5600084899345297,0.9523809523809419,1
0.45177071084255227,0.29938136345611377,0.15536856464216914,0.49086408096996953,0.5583372789759833,0.9523809523809419,1
0.4514798713287982,0.2993777072136263,0.15629162349661607,0.4745708598514753,0.5566660680174367,0.9523809523809419,1
0.45177530861629767,0.2994058781225475,0.15537979061907475,0.43321084472505517,0.5583372789759831,0.9523809523809419,1
0.45147518135756587,0.29934736516424293,0.15628089324075978,0.43942195484814234,0.5591732109912002,0.9523809523809419,1
0.4517801109143466,0.2994467703642877,0.15539001840614086,0.4866108451349184,0.5583372789759833,0.9523809523809348,1
0.4514702444917391,0.29928534863714523,0.15627117729083745,0.4646257093692652,0.554995510130778,0.9523809523809348,1
0.4517852070826935,0.2995621796096688,0.15539921018931568,0.4295340742161075,0.5549955101307777,0.9523809523809419,1
0.4514649613335216,0.2989130194115873,0.15626252538519475,0.47810183755432456,0.5549955101307777,0.9523809523809348,1
0.45179070842527375,0.29866141726068446,0.15540730260652097,0.48255447199249774,0.5583372789759833,0.9523809523809419,1
0.4514592064302123,0.29951839300942507,0.15625501661119634,0.45529857394301654,0.5566660680174376,0.9523809523809419,1
0.451796757274234,0.29942379657701473,0.1554141982360906,0.4199823811100377,0.5558307890741065,0.9523809523809419,1
0.45145281722203073,0.2988963687902202,0.15624876998052134,0.4774534841040807,0.554995510130778,0.9365079365079154,1
0.45180354055190824,0.2986619900590194,0.15541975238808636,0.4907307279043157,0.5533242991722311,0.9365079365079332,1
0.4514455772795996,0.29967837918563395,0.15624396103286342,0.4698007285009587,0.5549955101307775,0.9365079365079154,1
0.4518113106443217,0.29919325980467615,0.15542375207607045,0.42512673885768404,0.5558307890741077,0.9365079365079332,1
0.4514371901109307,0.29951324505136967,0.1562408486971208,0.4593165834084181,0.554995510130778,0.9365079365079225,1
0.4518204185282485,0.29934360178806063,0.15542588137058283,0.49959546431605034,0.5516530882136852,0.9365079365079225,1
0.45142723693225134,0.29903453778434896,0.15623982046905105,0.47470442755766595,0.5533242991722311,0.9365079365079154,1
0.45183136802188684,0.2984188669432766,0.15542566176665568,0.4357936212973627,0.5549955101307775,0.9365079365079261,1
0.45141510647177113,0.2988861537755869,0.1562414722051525,0.43600077798797754,0.5533242991722311,0.9523809523809348,1
0.45184490714539743,0.2990650893504152,0.15542234376486352,0.4873582811586792,0.5566660680174367,0.9523809523809419,1
0.4513998757040402,0.29988211841602497,0.15624675799754162,0.4698222863659928,0.5524883671570153,0.9523809523809419,1
0.45186218337380024,0.2979252468077046,0.1554146956029704,0.4303950785751025,0.554995510130778,0.9523809523809419,1
0.4513801108660128,0.29841678829867757,0.15625729469781002,0.4542693789756163,0.5533242991722316,0.9365079365079154,1
0.45188498716419334,0.298853447948798,0.15540055288980403,0.4898961347430476,0.5541595781155613,0.9365079365079225,1
0.4513536081035138,0.2989359008886274,0.15627604823673336,0.4609470314992387,0.5558307890741074,0.9365079365079154,1
0.45191589145240174,0.2997999487457951,0.15537573490581236,0.42828782007185384,0.5533242991722309,0.9365079365079154,1
0.45131790184826137,0.29845770168803576,0.15630911984331897,0.45633743132463883,0.5524883671570149,0.9206349206349032,1
0.45195495671569247,0.2990831785084901,0.1553309391439731,0.4877508609595842,0.547475387353263,0.9206349206349103,1
0.45128692258117686,0.2994003382091308,0.1563715306460176,0.46933515571996703,0.5524883671570151,0.9206349206349032,1
0.4518790072683962,0.29946044435879254,0.1552398903998699,0.4442035928614223,0.549981877255139,0.9206349206349138,1
0.4500216770059793,0.299231477472628,0.15651539732478204,0.43244380017829054,0.5516530882136852,0.9206349206349103,1
0.4527886141918139,0.2986698055914794,0.15496666801105985,0.4854479468816676,0.5508178092703555,0.9206349206349138,1
0.45392785612748837,0.29748417370431296,0.15488438114977798,0.47189190544745896,0.5508178092703555,0.9206349206349103,1
0.4557966842089987,0.2994883114266007,0.15243200097703968,0.4466736453093527,0.5508178092703555,0.9206349206349138,1
0.4614461985106456,0.3004473190749718,0.15102117647744207,0.43776159051066216,0.5491465983118091,0.9365079365079225,1
0.4520084260417224,0.2987991188071496,0.15638212343071817,0.4834013663667034,0.551653088213685,0.9365079365079154,1
0.4509786742700133,0.29929166507884086,0.1562423348525434,0.45512528150475545,0.5483106662965929,0.9365079365079154,1
0.4467489640348546,0.2977901901130908,0.15941991774062103,0.4354949367322802,0.5491465983118093,0.9365079365079261,1
0.44868329777728616,0.2994540368076618,0.15816420199063402,0.4944026759655328,0.5458041763947166,0.9206349206349103,1
0.4502810455719209,0.29905957251160226,0.15698011562529118,0.47027027840330116,0.5491465983118091,0.9206349206349138,1
0.4533179384170183,0.2986502883529508,0.1544044698425267,0.41554364444727965,0.5474753873532627,0.9206349206349103,1
0.4526873480817796,0.29927402876846343,0.15635192775061912,0.45430004223727605,0.5483106662965922,0.9206349206349138,1
0.4528217576699321,0.29955457922991746,0.15658115418320184,0.4991555975580142,0.5474753873532632,0.9365079365079154,1
0.450483802123961,0.29917594020666105,0.15568989064112565,0.45915274474663875,0.5483106662965924,0.9365079365079261,1
0.45137971511524566,0.2996630809445511,0.15596045542765674,0.43656400880505725,0.5483106662965924,0.9365079365079154,1
0.45164114179275083,0.2988272042839629,0.1555967793753461,0.47649394852534194,0.5466401084099335,0.9365079365079332,1
0.4516437708806778,0.298723882074476,0.1560222438317566,0.46247420589838517,0.5491465983118091,0.9365079365079332,1
0.4516042370079763,0.2994955350725722,0.1557792163032622,0.4555923281844563,0.5474753873532627,0.9365079365079438,1
0.4516465409046243,0.2993595538654562,0.1559014516746729,0.48662456804020693,0.5474753873532632,0.9365079365079403,1
0.45161043556149016,0.2993776628836132,0.1557540964315558,0.467107102482781,0.5441329654361702,0.9365079365079403,1
0.4516378371408591,0.29940946415684866,0.15591948614736928,0.42837559705078043,0.5466401084099333,0.9523809523809419,1
0.4516195187972586,0.29935104779257565,0.15574044923944275,0.44836515776821173,0.5458041763947163,0.9523809523809419,1
0.45162914636823687,0.29942528244980404,0.15593033245198357,0.4883612360876651,0.5449688974513873,0.9523809523809419,1
0.4516275412751557,0.2993410874302376,0.1557315560041006,0.46904627881766164,0.5449688974513869,0.9523809523809454,1
0.4516218692507922,0.29943173595998784,0.15593778172917205,0.43758922405696626,0.5449688974513867,0.9365079365079154,1
0.45163407851838827,0.2993368807057779,0.15572521405987577,0.4744787462774101,0.5466401084099335,0.9365079365079225,1
0.4516160329694062,0.29943442930373443,0.15594325508399243,0.48475692485087046,0.5449688974513871,0.9365079365079154,1
0.45163926440515656,0.299335247157956,0.155720431112439,0.43838441784457416,0.5449688974513871,0.9365079365079225,1
0.45161144507846646,0.2994352969094424,0.1559474857920995,0.44886192381415535,0.5441329654361702,0.9047619047618873,1
0.4516433041819651,0.2993349480563794,0.1557166422405339,0.48495761720267655,0.5424624075495108,0.9047619047618909,1
0.45160790781635607,0.2994351640819302,0.15595092325902482,0.44732043481409306,0.5407911965909649,0.9047619047618873,1
0.4516463797127085,0.29933541609811287,0.1557134804876768,0.4400288187777674,0.5416264755342945,0.904761904761898,1
0.45160525800596707,0.29943443061650044,0.15595387392413212,0.47839759677370597,0.5432976864928407,0.9365079365079332,1
0.4516486353401132,0.2993363638711354,0.15571068465901877,0.47208407013485504,0.5458041763947166,0.9365079365079332,1
0.4516033691047561,0.29943330639644694,0.15595656483885373,0.435509468844415,0.5332710738134498,0.9365079365079332,1
0.4516501812997566,0.2993376362832125,0.15570805344267685,0.4504404041649492,0.541626475534295,0.9365079365079332,1
0.45160214558792283,0.29943190695383826,0.15595917821241378,0.48308655927911653,0.5424624075495108,0.9206349206348996,1
0.4516510999346769,0.2993391469273913,0.15570541823276385,0.4690204763836669,0.5416264755342939,0.9206349206348996,1
0.4516015169075134,0.2994302968583519,0.15596187387448956,0.4342289301057,0.5399552645757482,0.9206349206348996,1
0.45165145121516886,0.2993408478984043,0.15570262343285485,0.44617747372289174,0.5407911965909649,0.9206349206349032,1
0.4516014326257694,0.29942851107166113,0.15596480782412186,0.48804711063559814,0.5391199856324185,0.9206349206348996,1
0.4516512769272557,0.29934271447409944,0.15569950748006217,0.4638147382520225,0.5391199856324185,0.9206349206349103,1
0.45160185887966275,0.2994265660551551,0.15596815344879666,0.4321511451369232,0.5407911965909651,0.9206349206349032,1
0.45165060360068016,0.2993447370020296,0.15569587695043147,0.46262678983916955,0.5399552645757486,0.9206349206349103,1
0.4516027760100491,0.29942446571413056,0.15597213574003904,0.4827378513633983,0.5391199856324187,0.9206349206349103,1
0.45164944436975996,0.2993469165568037,0.15569145809651047,0.43086768423197996,0.5399552645757477,0.9206349206349138,1
0.45160417717077905,0.2994222045337849,0.15597710426882272,0.45098854116042086,0.5399552645757486,0.9206349206349103,1
0.45164779992532106,0.2993492627342006,0.15568578051043092,0.4905904521532273,0.5382840536172022,0.9206349206349138,1
0.4516060677946236,0.29941976904877843,0.15598372966303747,0.4623541455523807,0.5399552645757479,0.9206349206348996,1
0.4516456586415856,0.2993517927833997,0.15567782349802045,0.4217457579709697,0.5391199856324185,0.9206349206348996,1
0.4516084658738177,0.2994171382001306,0.1559936903234277,0.48003153461572334,0.5391199856324189,0.9206349206348996,1
0.45164299587632334,0.2993545317032939,0.1556645454493233,0.49171517254586194,0.5382840536172018,0.9206349206349032,1
0.4516114031038,0.29941428281681415,0.15601328559116734,0.4591354718486364,0.5357775637153259,0.9365079365079154,1
0.4516397723443034,0.29935751317434384,0.15562982526852098,0.4212653733691423,0.5374487746738721,0.9365079365079225,1
0.45161492704814865,0.29941116425868,0.15610731657071064,0.46842277729185705,0.5349422847719967,0.9365079365079225,1
0.45163593133846913,0.29936078137266986,0.15660480877836686,0.4980448194652775,0.5382840536172022,0.9365079365079261,1
0.45161910463120813,0.2994077320923898,0.15587599873108454,0.4506105700719618,0.5357775637153255,0.9206349206349209,1
0.4516313943930745,0.2993643938809447,0.15574306669043853,0.43656639178211876,0.5399552645757482,0.9206349206349138,1
0.45162402748846037,0.2994039204884369,0.1559359837937067,0.4780390212912622,0.5382840536172022,0.9206349206349138,1
0.4516260547003632,0.2993684261238563,0.15573309743636093,0.48090382375591856,0.5357775637153255,0.9206349206349209,1
0.45162982006792424,0.29939964276805137,0.15589603103091498,0.4312768920028297,0.5366134957305426,0.9206349206349032,1
0.4516197671188814,0.2993729780822558,0.15657452360673763,0.4553814327073405,0.5357775637153255,0.9206349206349103,1
0.4516366520012014,0.299394783107354,0.15614814507434793,0.4952481136564527,0.5366134957305428,0.9206349206349032,1
0.4516123327752678,0.29937818459524057,0.15557805514270034,0.46703030198346906,0.5315998628549043,0.9206349206349138,1
0.4516447573949553,0.29938918366277967,0.1560765136361617,0.42325379934791485,0.5366134957305424,0.9047619047618909,1
0.45160347470925943,0.2993842315694095,0.15558921145617283,0.46644869564452934,0.5332710738134501,0.9047619047618909,1
0.45165446584928126,0.2993826239903785,0.1560819281046939,0.4967007128714328,0.5357775637153261,0.9047619047618909,1
0.4515927979762048,0.2993913823580462,0.15557571071675563,0.47054361243482445,0.5357775637153259,0.9047619047618909,1
0.4516662543471548,0.29937478687797225,0.15610089264887267,0.4251942885662029,0.5349422847719962,0.9206349206349032,1
0.45157972132319263,0.2994000225336233,0.1555521482220878,0.45783515973187344,0.5382840536172018,0.9206349206348996,1
0.451680838463647,0.29936519891948876,0.15612892118967608,0.4930613772491236,0.53410635275678,0.9206349206348996,1
0.45156335354549476,0.29941073989021993,0.15551937564531776,0.45686415710484773,0.5374487746738728,0.9206349206349103,1
0.4516993428837969,0.2993531210986049,0.15616702322039433,0.4309851988818852,0.5332710738134501,0.9206349206349103,1
0.45154225373051643,0.2994244767453281,0.15547505955464253,0.4721510562113874,0.5349422847719962,0.9206349206349138,1
0.451723645977236,0.29933733256442197,0.15621878703376196,0.4854772908813785,0.5299286518963577,0.9206349206349103,1
0.4515139235004215,0.2994428438399195,0.15541416039619105,0.4546205092957765,0.5332710738134501,0.9206349206349138,1
0.4517571498920036,0.29931566321438596,0.1562911399117201,0.4284058976256382,0.5315998628549039,0.9047619047618873,1
0.4514735991312949,0.2994688369430871,0.15532711652609937,0.4674863512441102,0.530764583911574,0.9047619047618909,1
0.45180675194256587,0.29928385726640183,0.15639750784453155,0.48485377179491335,0.5315998628549039,0.9047619047618873,1
0.45141087608717023,0.2995087119877084,0.15519457766339112,0.46325870726117224,0.5299286518963577,0.904761904761898,1
0.4518889764979831,0.29923233008654604,0.15656675138021026,0.4264995751674013,0.5324357948701206,0.9206349206348996,1
0.45129769650042734,0.29957791975225223,0.15497159191240234,0.4576560933023539,0.5257509510359353,0.9206349206349103,1
0.452056003791822,0.2991345538601663,0.156872795051545,0.4906770004248215,0.5324357948701208,0.9206349206349103,1
0.45102320814647784,0.2997255540495142,0.15452830025452152,0.4576933310620256,0.5324357948701206,0.9206349206349103,1
0.4525991947187941,0.29889561097816386,0.15755666807446728,0.4254518180010371,0.5307645839115742,0.9047619047619015,1
0.4471649038652097,0.2994837028038595,0.15372684935024972,0.46014618015587333,0.5282580940096979,0.9047619047619087,1
0.4498139137280497,0.28977491173187697,0.16327596246559606,0.48308329220108737,0.529093372953028,0.9047619047619087,1
0.45510265631376523,0.2836243982766363,0.1804703363100077,0.43421607471023393,0.5315998628549035,0.9047619047619015,1
0.44304892202247376,0.29604718317239603,0.15369071230204256,0.4578049715050194,0.5290933729530274,0.9047619047619015,1
0.44733097869075183,0.29659989864081837,0.16292337704144805,0.48391003254082965,0.5324357948701208,0.904761904761898,1
0.44306990477021124,0.29921944624596597,0.1608321169702328,0.45338418351563353,0.529928651896358,0.9047619047618909,1
0.44341318715376205,0.29807617880955145,0.1645612551864415,0.4370115049968389,0.5274221619944817,0.904761904761898,1
0.4435762087747841,0.2976812158773786,0.16120111419633448,0.47002602588673126,0.529093372953028,0.9206349206349032,1
0.44211954031139344,0.29939525546931955,0.1652954859234676,0.48730190591866185,0.5299286518963575,0.9206349206349103,1
0.44490523453142344,0.29895342365823907,0.16047062747187074,0.4435986970195276,0.5282580940096981,0.9206349206349032,1
0.443238035329485,0.2975297418028103,0.16392224838263308,0.4538169493412437,0.5265868830511518,0.9206349206349138,1
0.4402757103645205,0.29984133757369347,0.16045518316208318,0.4980622491334959,0.5274221619944817,0.9047619047618802,1
0.444664475469745,0.2990704013566314,0.15859206487637134,0.4415653578458854,0.526586883051152,0.9047619047618873,1
0.44283288698711126,0.2996422911992642,0.1605022400671981,0.4384568715386911,0.5274221619944817,0.9047619047618802,1
0.44411284752875624,0.29916023045908857,0.1590236825334439,0.4734431569658818,0.5274221619944817,0.9047619047618909,1
0.4430952264883479,0.2995889877671444,0.15910324559502848,0.4811498119807095,0.5265868830511518,0.9206349206349103,1
0.4439558247724193,0.2991962853090402,0.15979291517837552,0.4177978448880394,0.526586883051152,0.9206349206349103,1
0.4432012393432989,0.29956271452002525,0.15822553098288128,0.4737318260126419,0.5249156720926058,0.9206349206349103,1
0.4438786204613562,0.29921630846421765,0.15723090978458848,0.4918973782399864,0.526586883051152,0.9206349206349138,1
0.44326049429155134,0.2995470518916614,0.15877453527722957,0.46491938800667726,0.5274221619944812,0.9047619047618873,1
0.4438313423856178,0.2992287026348599,0.16119952020265155,0.41773391457346953,0.5282580940096979,0.9047619047618909,1
0.443299368845654,0.29953727099542343,0.16053282919359707,0.46961624600563123,0.526586883051152,0.9047619047618909,1
0.44379859120994464,0.2992362570614633,0.1594025452337965,0.48382101006826644,0.5232444611340592,0.9047619047618909,1
0.44332752926628,0.2995317445163922,0.15721756619504157,0.4659900099071378,0.5257509510359353,0.9206349206349103,1
0.44377394445253354,0.2992397973138795,0.15958421355655988,0.4319946860390269,0.5249156720926051,0.9206349206349209,1
0.44334945107097357,0.2995303096854931,0.15984188095332524,0.4574527480070705,0.5257509510359348,0.9206349206349103,1
0.44375414544055997,0.2992388032726989,0.15892549232021147,0.483334839670994,0.5232444611340592,0.920634920634928,1
0.44336760926939156,0.2995343667478949,0.1617170785266407,0.4636737190145957,0.5249156720926054,0.9206349206349032,1
0.44373721896733437,0.2992305019211632,0.15934514448087356,0.4289452793694008,0.52240918219073,0.9206349206349032,1
0.4433836786987446,0.299549195601879,0.1584149200152934,0.45693444643637643,0.514889059413215,0.9206349206348996,1
0.44372162845513813,0.2992042747149884,0.15771862998434782,0.4825935697219636,0.5190667602736372,0.9206349206349103,1
0.4433992183490639,0.29959923503709135,0.15567576815300727,0.467623656639014,0.5232444611340592,0.9047619047618909,1
0.44370559179589875,0.2990858861242648,0.15779736811923023,0.4344690922205983,0.5224091821907295,0.9047619047618909,1
0.44341654264184027,0.3002355785682732,0.16165906215115278,0.44610883326728806,0.5199026922888541,0.9047619047618909,1
0.44368570123211276,0.29975384827041696,0.15938783905247456,0.4843632520925174,0.5215732501755128,0.904761904761898,1
0.4434413193022403,0.2992954571725448,0.1584182385643832,0.4664815393440499,0.5190667602736372,0.904761904761898,1
0.44365122997043444,0.2994097009445139,0.15772216122040128,0.4345606688168928,0.5215732501755133,0.9047619047619015,1
0.4434974682948829,0.2993888713278454,0.15729243620030786,0.4470234086437599,0.5190667602736374,0.9047619047618909,1
0.4435324124554227,0.2993659896757082,0.15992056079748979,0.48650130815223064,0.5207379712321836,0.9047619047619015,1
0.4440043113835865,0.2994137129807498,0.16095074437610263,0.4600489627605968,0.5207379712321836,0.9206349206348925,1
0.4444003252614293,0.29935037730168534,0.16064194054336295,0.4351723073055628,0.5232444611340592,0.9206349206348996,1
0.44312926883487525,0.29942412591689127,0.15990562279050252,0.4782191256134399,0.5232444611340592,0.9206349206348925,1
0.4439169536196326,0.29934317403373367,0.15977441065525372,0.4850894649897387,0.5207379712321836,0.9206349206349032,1
0.44320020175426345,0.2994292159531632,0.16050035199746798,0.443437128009285,0.5207379712321831,0.9047619047618909,1
0.4439565397949955,0.2993395439283878,0.15676287958055646,0.43092143405393524,0.5165602703717611,0.9047619047618909,1
0.4430018896611959,0.2994317988133419,0.15888919198765183,0.49293292735034966,0.5199026922888541,0.9047619047618909,1
0.44539997573581414,0.29933773561801313,0.15801709892710214,0.4800626553542968,0.5165602703717613,0.9047619047618909,1
0.4442004103842456,0.2994330192265069,0.15771720489041774,0.4440763663300996,0.5199026922888539,0.9206349206349103,1
0.4433683721100918,0.2993369717800881,0.15939713749161394,0.42799856876436143,0.5199026922888537,0.9206349206349032,1
0.44363638791138754,0.2994334208284376,0.15849751376058963,0.48769779852488926,0.5199026922888539,0.9206349206349032,1
0.4435218849832203,0.2993368636628928,0.15847047649634582,0.4800901128897568,0.5199026922888537,0.9206349206349103,1
0.44356844204310525,0.29943328591876417,0.15825104790185224,0.4395144879230012,0.5190667602736374,0.9047619047618909,1
0.4435565247901197,0.29933720466387603,0.15719185270582375,0.4517004025570658,0.5190667602736372,0.9047619047619015,1
0.44355079398956654,0.29943276539143227,0.15938825331503348,0.49448828125388367,0.5165602703717613,0.904761904761898,1
0.4435636971307897,0.2993378864592109,0.15959036332812393,0.4422862221699836,0.5207379712321836,0.9047619047619015,1
0.44355136336660494,0.29943193357048925,0.15781675739970746,0.44882904160449955,0.5140537804698853,0.9047619047618909,1
0.4435561107034279,0.29933886338263105,0.15785353033021726,0.483141109924,0.5182314813303073,0.9047619047619015,1
0.443566938164303,0.29943081033808616,0.15751283754933793,0.4727787462121617,0.5157249914284316,0.9047619047618909,1
0.44352903946996475,0.2993401405642045,0.1582456898360139,0.42377246643373756,0.5173955493150912,0.9047619047619015,1
0.4436150889915766,0.299429364277143,0.15854728926551065,0.4744042976939965,0.5165602703717609,0.9047619047618909,1
0.4434280403944206,0.2993417792795845,0.158092784362182,0.49165949939142395,0.5148890594132154,0.9047619047619015,1
0.44397778076745686,0.2994274977614041,0.15732770575356303,0.46956138961772453,0.5157249914284319,0.904761904761898,1
0.44439997302258144,0.299343924085799,0.15676483948697906,0.4214276162655383,0.514053780469885,0.904761904761898,1
0.4432895972428176,0.2994250025805823,0.1570063705230904,0.4456310532092248,0.5165602703717613,0.9047619047618731,1
0.4437311788775167,0.29934687332220733,0.156302330755566,0.492618899773441,0.5157249914284312,0.9047619047618802,1
0.44342044734248465,0.29942144752518796,0.15640579125628862,0.4796151990248011,0.5148890594132154,0.9047619047618802,1
0.44367075698236674,0.29935126231132436,0.1575507821808857,0.4343828145217798,0.5123825695113393,0.9047619047618802,1
0.4434567613861147,0.29941586914175616,0.1570884856003435,0.44748503533438794,0.5157249914284312,0.9047619047618909,1
0.4436456165631194,0.2993586109895785,0.15749350026383468,0.48848890978924864,0.5140537804698855,0.9047619047618909,1
0.44347583631730264,0.2994057388482315,0.15872695814289395,0.47055993838700927,0.5123825695113391,0.9047619047618909,1
0.4436301704993638,0.2993734429064854,0.16054411923873768,0.4364509331989151,0.5140537804698853,0.9047619047618909,1
0.4434889667712895,0.2993820735332441,0.1597867057602826,0.43690986702483353,0.5132178484546686,0.9047619047618873,1
0.44361858352371136,0.2994167911576504,0.15964138597192767,0.48962716646943844,0.5165602703717611,0.9047619047618909,1
0.44349949534229016,0.29927738296949624,0.15704006870177062,0.4712830004313118,0.5140537804698855,0.9047619047618802,1
0.4436087919543501,0.3001897122606575,0.15908599320339728,0.4372136146215475,0.514053780469885,0.904761904761898,1
0.4435087726426942,0.29974738247709404,0.15617131492989966,0.4364065618515774,0.5123825695113391,0.9047619047618802,1
0.44359986834209747,0.2991863190748502,0.1590615335382745,0.4859130569456524,0.5123825695113389,0.9047619047618909,1
0.44351746262063857,0.29954236661491696,0.15733404523974204,0.47738492949507716,0.5115472905680096,0.9047619047618802,1
0.44359131908599786,0.29924400883110414,0.15764940280853512,0.43928851643938926,0.5073695897075869,0.9047619047618909,1
0.44352594553681524,0.29952118362990354,0.15798112695029548,0.42782486213088516,0.5115472905680094,0.9047619047618802,1
0.4435828409232717,0.299245973695849,0.15789039128063487,0.48910310791765665,0.5115472905680092,0.9047619047618802,1
0.4435344716841855,0.29953886171702915,0.15760231304819633,0.4680532142190769,0.5107113585527927,0.9047619047618802,1
0.443574220094896,0.29918317277334905,0.15807227903040733,0.4438400972814994,0.5115472905680092,0.9047619047618873,1
0.4435432299137471,0.30042794698942066,0.15807354147487906,0.45648913110688566,0.5090401475942468,0.9047619047618909,1
0.443565284141042,0.2994204036233368,0.1588919044246629,0.4929368550482483,0.513217848454669,0.9047619047619015,1
0.4435523827786489,0.2994262504300845,0.15803253686516644,0.44569073392330666,0.5140537804698855,0.904761904761898,1
0.4435558752570382,0.2993149811848643,0.15989525070215183,0.43846451574045964,0.5123825695113389,0.9047619047619015,1
0.44356208764867916,0.2994772589225484,0.1572857785505979,0.4826592899582236,0.5115472905680092,0.9047619047618909,1
0.4435458326941172,0.29926789275548193,0.15713136173977976,0.4823805324891256,0.5082048686509166,0.9047619047618909,1
0.44357251222868904,0.2995414312126575,0.1561105060716529,0.43280970624244147,0.5115472905680096,0.9047619047618909,1
0.44353497823336013,0.29914353374320146,0.1575798074841483,0.4460268922999906,0.5082048686509166,0.904761904761898,1
0.4435838489894765,0.30004113549822875,0.15816946358643186,0.49038467509237016,0.5090401475942465,0.9047619047618873,1
0.4435231010319665,0.29996151880243804,0.15781015323377318,0.47317012314813406,0.5082048686509166,0.9047619047618873,1
0.4435963318762471,0.2992236069353513,0.15877128452344924,0.4467389983811633,0.5098760796094632,0.9047619047618802,1
0.4435099384225347,0.29946043668041206,0.158910100045625,0.4273066644366408,0.509876079609463,0.9047619047618909,1
0.44361025915242536,0.2993502658603132,0.15693037043286795,0.46825634997752186,0.5090401475942465,0.9047619047618873,1
0.443495147917001,0.2993931724269304,0.15807967233162418,0.4881954220259178,0.5090401475942463,0.9047619047618909,1
0.4436260286301763,0.29940045378844654,0.16020341676145927,0.4493672715096124,0.5065336576923711,0.9047619047618909,1
0.4434782617473692,0.2993432694727549,0.1609321264100117,0.43877955261571905,0.5082048686509169,0.9047619047618909,1
0.44364419782672454,0.29946735789388235,0.16008495757057162,0.47908241933167384,0.5031912357752775,0.9206349206349138,1
0.44345860509769547,0.2992124572613102,0.15852484934196465,0.47850378016517353,0.509876079609463,0.9206349206349103,1
0.4436655984618938,0.30011296551570926,0.156845246409125,0.43610210739506317,0.5056983787490412,0.9206349206349103,1
0.4434351302292123,0.2998735800866417,0.15697008477936197,0.43864767380108843,0.5065336576923702,0.9206349206349138,1
0.44369158653208945,0.2991776829591906,0.15790410197553378,0.4871067705655099,0.5065336576923707,0.904761904761898,1
0.44340602109260946,0.29952637109336866,0.1562136813298438,0.4737161613928538,0.5040271677904946,0.9047619047619015,1
0.4437247047412502,0.2992724510802353,0.15649861312057695,0.43840743095038087,0.5056983787490414,0.904761904761898,1
0.4433675003911566,0.29948309026225817,0.15856176367507646,0.4334489557004198,0.5040271677904953,0.9047619047619087,1
0.44377104024718167,0.29929482522314693,0.1569763189872485,0.48093048343604883,0.5056983787490406,0.9047619047618909,1
0.4433085419818936,0.2994724963436757,0.1568337014496899,0.4793415297299481,0.5048624467338239,0.9047619047618909,1
0.4438545412412997,0.29929669655906077,0.15594263476479325,0.4441566009820545,0.49567176606965035,0.9047619047618909,1
0.443156372223784,0.29947926191999663,0.1566347917091221,0.43623549174549076,0.5006847458734023,0.9047619047618909,1
0.44470749350098976,0.29927825401713004,0.1576373423120903,0.4946089834235995,0.5023559568319482,0.9206349206349032,1
0.44358860314542903,0.2995196018483387,0.15797792433804186,0.4669781987717752,0.5023559568319478,0.9206349206348996,1
0.44372970847592563,0.29917472664263955,0.15773516953838512,0.43025999610397125,0.5015206778886188,0.9206349206348996,1
0.4432982006484588,0.3002929945864047,0.1595890891072484,0.46781825539302463,0.5031912357752784,0.9206349206349103,1
0.44388213115746306,0.2996427265561413,0.15898073366569943,0.4905288329694597,0.498178255971526,0.9047619047618909,1
0.4431630858064444,0.2992930879032403,0.15881459240599888,0.4638179787197624,0.505698378749041,0.904761904761898,1
0.4440267940443749,0.2994327533836423,0.15880731321155966,0.42729546184352557,0.5031912357752781,0.904761904761898,1
0.4429925423869684,0.29935713567743116,0.1560200739281093,0.45768475962969635,0.5031912357752779,0.904761904761898,1
0.444241891462601,0.29940414740442245,0.15688535105485873,0.49926957050181403,0.5031912357752779,0.9206349206349032,1
0.4427030932052928,0.29936631869552005,0.15740497324414976,0.46848609213141185,0.4998494669300724,0.9206349206349103,1
0.44466409976968707,0.299419484297509,0.15857150499135808,0.447046390151503,0.4990135349148559,0.9206349206349032,1
0.4420051584929005,0.2992818188415055,0.1558590504285035,0.4201614351060905,0.5006847458734023,0.9206349206349138,1
0.446150517007578,0.30005930517895185,0.1575665739438467,0.4897975157653944,0.5006847458734021,0.9206349206349032,1
0.4321228694148161,0.2990191510905926,0.15659552365600093,0.47574432960040275,0.5040271677904948,0.9206349206349103,1
0.41641196019192833,0.2843535730552328,0.19521060955110975,0.4641590890879371,0.5023559568319482,0.9206349206349103,1
0.40812789821087075,0.27535045701998917,0.22528988730635874,0.42182290846544557,0.5015206778886185,0.9206349206349103,1
0.43780364527727467,0.2895496989614853,0.1680118595954227,0.48001007206667373,0.5015206778886185,0.9047619047618909,1
0.49221313735399874,0.2933875746296236,0.1307629524497908,0.4661138563260518,0.5015206778886185,0.9047619047618909,1
0.4978007040494078,0.29416675922338986,0.13406954996421355,0.45140565964562507,0.5015206778886188,0.9047619047618909,1
0.5049711351500865,0.29704492898109347,0.12761853141665108,0.46292205218888105,0.5048624467338247,0.9047619047618909,1
0.5066574280106706,0.29961524245348903,0.12557990986681,0.5732639107579598,0.5031912357752781,0.9047619047618909,1
0.5021476252038153,0.2992369131324313,0.12949493285695962,0.38815878409067794,0.5065336576923707,0.9047619047618909,1
0.4988945498373005,0.29950135630262176,0.13165137922754072,0.40059632147509405,0.5065336576923707,0.9047619047618873,1
0.5011072902408229,0.2992745098869131,0.13362024316516696,0.4492563482983511,0.5056983787490406,0.9047619047618909,1
0.4984990178358925,0.2995348118983583,0.1329471367746825,0.4556703863084361,0.5056983787490408,0.9047619047618909,1
0.5002708886901059,0.29860715712210983,0.13356496111730687,0.48981315716814505,0.5048624467338243,0.904761904761898,1
0.49956447951685445,0.298129870040505,0.13297385933029127,0.44254377823431573,0.5048624467338239,0.9047619047618909,1
0.5005679981149187,0.2994535667794312,0.13355169784381632,0.4380032831298115,0.5031912357752779,0.9047619047619015,1
0.4979754350805027,0.29894983289428523,0.13298114928384652,0.4780739849086701,0.5048624467338239,0.9047619047618802,1
0.4999380744710849,0.29805498601859903,0.13354733115903816,0.4801371026768842,0.5031912357752779,0.9047619047618873,1
0.49985117879706914,0.29905064877508425,0.13298395794684797,0.4357518067590855,0.5031912357752781,0.9047619047618802,1
0.4978359406206202,0.299603593429396,0.13354541577522633,0.48178681713469174,0.49817825597152643,0.9047619047618873,1
0.49527967320135313,0.29878575422497633,0.13298532631351684,0.4850815688009177,0.5006847458734021,0.9047619047618909,1
0.49901809842600564,0.29874179267267154,0.1335444037134192,0.4405396724055154,0.5031912357752775,0.9047619047618909,1
0.4999625484760283,0.2996122845512764,0.13298609231961045,0.44866796049015467,0.5015206778886188,0.9047619047618909,1
0.5003823715804577,0.29927473246145364,0.13354381715128433,0.4989105170813275,0.5015206778886188,0.904761904761898,1
0.49855018443133825,0.2986412236096112,0.1329865414127807,0.47534476596060377,0.4990135349148559,0.9047619047618802,1
0.4980798416943237,0.29903136783424855,0.13354347796259425,0.45229485272558945,0.5040271677904948,0.9047619047618909,1
0.49870532691938907,0.2997421932512237,0.13298678955602278,0.41724123021195664,0.4990135349148559,0.9047619047618873,1
0.4969374777946788,0.2985070236602428,0.13354330742746606,0.47673281737977236,0.5006847458734018,0.9047619047618909,1
0.4976292981862493,0.2990213033351439,0.13298689244206602,0.4816728758727091,0.5023559568319482,0.9047619047618909,1
0.4995991644043999,0.29950968988194393,0.13354326453007392,0.46777716411688913,0.4998494669300724,0.9047619047619015,1
0.4971683200695693,0.29914514939287395,0.13298688144599874,0.4271657872629586,0.5006847458734021,0.9047619047618909,1
0.4990602628627311,0.29720642836377986,0.13354332442322797,0.4558813528854209,0.49567176606965035,0.9047619047619158,1
0.4987830905729337,0.29914744280892613,0.13298677685673443,0.4876099643542283,0.4998494669300724,0.9206349206349103,1
0.4969985148180584,0.2975703888818876,0.13354347010109868,0.4594659441289038,0.4948358340544339,0.9206349206349103,1
0.4972699315341549,0.29776357133668074,0.1329865932418367,0.43282204751780984,0.4998494669300726,0.9206349206349103,1
0.4987989188764085,0.29965322555115914,0.13354368886138857,0.46186011204114963,0.498178255971526,0.9206349206349138,1
0.49964619249346376,0.29819403142577977,0.13298634183650437,0.4834380230870397,0.49650704501298004,0.9047619047618909,1
0.4996065021118631,0.2996646769387196,0.1335439706523171,0.4574191205843497,0.5006847458734021,0.9047619047619015,1
0.4994195327815056,0.2992235742723688,0.132986031716452,0.43148798223555407,0.49734297702819674,0.9047619047619015,1
0.4991658085046438,0.2986910605953125,0.13354430721871113,0.4679101746643524,0.49817825597152576,0.9047619047619015,1
0.497713487557801,0.2989806837883521,0.13298567043597476,0.49025133024726203,0.49567176606965013,0.9047619047618909,1
0.5005474693021362,0.29979755390224044,0.13354469161278937,0.4497431207568434,0.4998494669300724,0.904761904761898,1
0.49651668605960025,0.2984404119069691,0.13298526441249298,0.4293315190442738,0.48982285425068195,0.9047619047618909,1
0.49561203856897096,0.2991129755039398,0.1335451178847194,0.4752703157241538,0.49734297702819585,0.9047619047618909,1
0.49634794858271425,0.29935418544386594,0.1329848191809907,0.4876364256727688,0.49567176606965035,0.9206349206348996,1
0.4976890610872225,0.2995556457012957,0.13354558086930174,0.44970810933437994,0.4965070450129796,0.9206349206349032,1
0.4941770910930587,0.2987805365535501,0.13298433957596062,0.43526121028240683,0.4965070450129796,0.9206349206348996,1
0.49481381908812894,0.29876528911737354,0.13354607602842739,0.47691867366825547,0.4931652761677743,0.9206349206349103,1
0.49575300481996365,0.2995879007732649,0.13298382986961854,0.4819591257727133,0.4973429770281963,0.9047619047618909,1
0.49957207020766903,0.29926702016459783,0.1335465993284139,0.4481325356168892,0.49316527616777384,0.904761904761898,1
0.4971739231918389,0.2994679819438959,0.13298329388188568,0.4346746518478342,0.49567176606965013,0.9047619047618909,1
0.5003730808766754,0.2993193654136145,0.13354714714048443,0.4793989969604153,0.4948358340544332,0.904761904761898,1
0.4983812585878155,0.2994448924840756,0.13298273507120917,0.4786869937044451,0.49483583405443365,0.9206349206349032,1
0.498126873719941,0.2993187823743075,0.1335477161572114,0.4459129315819697,0.49400055511110286,0.9206349206348996,1
0.4968804458348387,0.2994920266237315,0.13298215661205154,0.4363789592941147,0.4948358340544341,0.9206349206348996,1
0.49840207884751003,0.29844546447688713,0.13354830332008322,0.4703465518303825,0.49400055511110397,0.9206349206349103,1
0.49752224684137575,0.29923771630759255,0.13298156146314594,0.4788758099524631,0.492329344152558,0.9365079365079332,1
0.49857300622966716,0.29946683448632755,0.13354890575463524,0.43642623088298066,0.4956717660696499,0.9365079365079403,1
0.4974887290224922,0.2993191479935209,0.13298095242970015,0.45450331403738137,0.4914940652092279,0.9365079365079332,1
0.4965263564871851,0.29944692338308765,0.13354952071024306,0.4850885768983312,0.49316527616777384,0.9365079365079403,1
0.49782740463990854,0.2993226932717582,0.1329803322222476,0.46479379186236897,0.4923293441525578,0.9206349206349103,1
0.4980700720930623,0.2994512590533862,0.13355014550199812,0.43019545896471006,0.49400055511110375,0.9206349206349209,1
0.49635976563892126,0.29931268132579625,0.13297970351467148,0.4710642787267692,0.4923293441525578,0.9206349206349103,1
0.5000637055510321,0.2994670156441329,0.1335507774521441,0.4804971172364935,0.48982285425068195,0.920634920634928,1
0.4973924452590682,0.29928936402077366,0.1329790690039736,0.4711831361991731,0.48898757530735204,0.9047619047618909,1
0.4990173912181796,0.29950251983244724,0.1335514138283942,0.4243357517934461,0.4898228542506815,0.904761904761898,1
0.4976893754392894,0.29922981854767366,0.1329784314746405,0.45419275061644093,0.4814674525298379,0.9047619047618909,1
0.5001537055415453,0.2996262211456754,0.1335520517760413,0.48437135951533195,0.4898228542506815,0.9047619047618909,1
0.49755739507773733,0.29872786069745716,0.13297779387099234,0.47271267035162806,0.4898228542506815,0.9047619047618873,1
0.4975657897927578,0.298813307374425,0.1335526882400886,0.43259041353043054,0.4898228542506815,0.9047619047618909,1
0.49622496583377573,0.29953669084884393,0.13297715938178067,0.4469133541037014,0.48982285425068195,0.9047619047618909,1
0.49591983554000374,0.2993291463890192,0.13355331987253666,0.48302598994689466,0.48898757530735204,0.9047619047618909,1
0.4975993562925196,0.29938214201747115,0.13297653154263284,0.4693886921315737,0.4898228542506817,0.9047619047618909,1
0.49931405460151057,0.2994666561586169,0.1335539429183084,0.4344127313327582,0.49149406520922834,0.9047619047618909,1
0.4990747065566744,0.2984327149906971,0.13297591436399403,0.4519601623406025,0.4873163643488061,0.9047619047618909,1
0.4987399876528131,0.2993155841699545,0.13355455307078762,0.4861280304761136,0.48564515339025904,0.9047619047618909,1
0.4990485237471435,0.29853568661946217,0.13297531249528743,0.47165783123499766,0.48815164329213534,0.9206349206348996,1
0.5001080836147729,0.299181317847103,0.1335551452841326,0.4298021036081398,0.4864804323335894,0.9206349206349103,1
0.4998988226564499,0.29950214852839474,0.1329747314407524,0.4506992224053034,0.48815164329213534,0.9206349206348996,1
0.49906003259449677,0.29929974552015665,0.13355571352365547,0.49027902638066745,0.4848098744469296,0.9206349206349103,1
0.5001980228214785,0.2994528881115296,0.13297417784974702,0.46917097343362363,0.48648043233358895,0.9047619047618802,1
0.49911869112875273,0.2993290603146636,0.13355625042633623,0.437011688790567,0.4848098744469296,0.9047619047618873,1
0.49888423069545784,0.2994327296222386,0.13297365991595245,0.4549152630951448,0.48564515339026015,0.9047619047618802,1
0.4974669883514613,0.2993440773145596,0.13355674682875968,0.48777235648662964,0.4881516432921351,0.9047619047618873,1
0.49851594844893876,0.29942095392506507,0.13297318793879803,0.4651423160128185,0.48564515339025927,0.9047619047618802,1
0.49728881555723226,0.2993536483233179,0.13355719109546416,0.43352712636175983,0.48564515339025904,0.9047619047618802,1
0.4987314335275929,0.2994129659109471,0.13297277513191136,0.4706429515936336,0.48063217358650734,0.9047619047618802,1
0.49949128265187204,0.29936045235781444,0.13355756813958253,0.4864278781353724,0.48480987444693047,0.9047619047618873,1
0.4983094607466584,0.299407076408242,0.13297243881752158,0.45936505073740375,0.48146745252983747,0.9047619047618909,1
0.5005308474747546,0.2993656165624081,0.13355785795579295,0.4297705245777203,0.48648043233358895,0.9047619047619015,1
0.4977514267348737,0.2994025004470269,0.13297220224203515,0.46937017586411756,0.48480987444693,0.904761904761898,1
0.49916993516825636,0.29936970597765844,0.13355803335525873,0.48457234054051807,0.4814674525298368,0.9047619047619015,1
0.5001304698906539,0.299398820690705,0.13297209742633703,0.4629913853296079,0.48480987444693,0.904761904761898,1
0.4994572445095946,0.29937303500238754,0.13355805634544188,0.43538418822795283,0.4831386634883832,0.9047619047619015,1
0.49789764554990235,0.29939579685519235,0.13297216981012683,0.44754111292300874,0.48313866348838364,0.904761904761898,1
0.4974767554507761,0.29937578892221406,0.13355787210674586,0.4784668208115055,0.48230273147316693,0.9047619047619015,1
0.4972314046808603,0.2993932857022329,0.13297248615686463,0.4664288820807987,0.4831386634883832,0.9047619047618802,1
0.49987255495222227,0.2993780778009836,0.13355739848279158,0.440688573485758,0.47979624157129086,0.9047619047618802,1
0.4980421649924254,0.2993912042867979,0.13297314872733718,0.45890328066205305,0.480632173586508,0.9047619047618731,1
0.497732709829272,0.29937996146936835,0.13355650656180362,0.47881363750701217,0.48063217358650734,0.9047619047618802,1
0.49797266248260186,0.2993895134888317,0.13297432235532197,0.4665290309382997,0.481467452529837,0.8888888888888786,1
0.49957927260930823,0.299381459368387,0.13355498217533224,0.43793052291031004,0.48146745252983747,0.8888888888888857,1
0.49973370774021775,0.29938821383903513,0.13297629042339743,0.4430201819308739,0.47896096262796206,0.8888888888888857,1
0.49904890457658735,0.2993825492466734,0.13355244243746794,0.4855653868907074,0.48146745252983747,0.8888888888888857,1
0.499429028234049,0.2993873528678813,0.13297958296508622,0.4718877691961463,0.48063217358650734,0.8888888888888857,1
0.49865814871772124,0.29938315225175915,0.13354813238209007,0.4387918520898649,0.4823027314731674,0.8888888888888857,1
0.4985299752990071,0.2993870504757443,0.13298531259646507,0.4381497028158378,0.4806321735865078,0.8888888888888857,1
0.49867900756206407,0.29938309190776835,0.13354034293860945,0.48092765918796415,0.48063217358650734,0.8888888888888857,1
0.49606842139368224,0.29938756488088036,0.13299624361260243,0.47265673241781436,0.4781250306127447,0.9047619047618873,1
0.49675752075971263,0.29938198620251544,0.13352429706089303,0.4446770510471852,0.4797962415712911,0.9047619047618909,1
0.4979182460861836,0.29938947528416954,0.13302139356099058,0.44963131735379425,0.4814674525298377,0.9047619047618873,1
0.49886464578039313,0.29937892304844177,0.13348073125384458,0.4861767395498609,0.4781250306127449,0.904761904761898,1
0.4959751368706497,0.2993942972064651,0.13310975997840718,0.4631523567543157,0.4789609626279616,0.9206349206349103,1
0.49735197044549473,0.2993711866592536,0.1325001578113068,0.4379526281660341,0.4789609626279614,0.9206349206349103,1
0.4952195989785796,0.2994074660407987,0.1318184126705207,0.4648136146559587,0.4789609626279616,0.9206349206349103,1
0.49525840675529126,0.2983757104884961,0.13289466009508338,0.48996412389994537,0.4789609626279612,0.9206349206349103,1
0.4936363484209646,0.29947315506429134,0.13390273486587279,0.4504119283496369,0.4781250306127449,0.8888888888888857,1
0.49487363884134894,0.29845757108939064,0.13357693975123636,0.4352413409128983,0.47896096262796095,0.8888888888888857,1
0.4916500548153345,0.2992315805520208,0.1328985929883843,0.49194821379416687,0.4764544727260853,0.8888888888888857,1
0.49224863952143516,0.29946739674741546,0.13361191313049325,0.4830112417250068,0.47561854071086906,0.8888888888888893,1
0.49173812306848763,0.29932407498835256,0.13292282420359924,0.44317872562309973,0.47728975166941456,0.9206349206349103,1
0.4921917306231056,0.29943630404576227,0.13360505383094456,0.45734998754996725,0.4781250306127447,0.9206349206349138,1
0.49177568116417625,0.2993395177436229,0.13292664985345487,0.44927368692346525,0.47728975166941545,0.9206349206349103,1
0.4921648528676533,0.2994273279795584,0.13360237384546497,0.462102544776041,0.4747832617675394,0.9206349206349138,1
0.491796139424031,0.2993451772572506,0.13292865836109657,0.4399996411609166,0.47645447272608576,0.9047619047618909,1
0.4921485481502733,0.2994235996194843,0.13360084490144647,0.46294317940247004,0.47478326176753893,0.9047619047619015,1
0.4918095983968529,0.29934768186966176,0.13292981583093394,0.4817301111520871,0.47561854071086906,0.9047619047618909,1
0.4921371282868612,0.29942191909799776,0.13359998600946216,0.4542732573336084,0.4731120508089932,0.9047619047619015,1
0.49181950381265815,0.29934878131974985,0.1329304297764864,0.44641497188180174,0.47645447272608576,0.904761904761898,1
0.49212838106137985,0.29942124442668794,0.13359957579773463,0.4831103177169135,0.47561854071086884,0.9047619047619015,1
0.4918273434799838,0.2993491362711497,0.13293066872221904,0.46942603939475624,0.4739473297523227,0.9047619047619015,1
0.49212126732057027,0.29942113600418085,0.13359948210552686,0.44202406387038773,0.4764544727260853,0.9047619047619015,1
0.4918338662790253,0.29934905068180595,0.13293063827634427,0.4476806608445231,0.47311205080899277,0.9047619047618909,1
0.49211523294929427,0.29942137697850413,0.13359961935520442,0.488015952817853,0.477289751669415,0.9047619047618909,1
0.49183949155607576,0.2993486833363348,0.1329304085999169,0.4569565037043395,0.4747832617675394,0.9047619047618909,1
0.4921099543493832,0.29942184850544473,0.13359992941750898,0.44227164732248897,0.47478326176753893,0.9047619047618909,1
0.49184447330936,0.29934812486530216,0.13293002833187512,0.46491692679943564,0.47394732975232223,0.9047619047618909,1
0.4921052291394978,0.2994224803471245,0.1336003712031439,0.48246842791512323,0.4747832617675394,0.9047619047618909,1
0.4918489749558437,0.2993474304690607,0.13292953251414807,0.44304617211553243,0.4739473297523227,0.9047619047618873,1
0.4921009237838603,0.29942322858868675,0.13360091454047895,0.4472910410196335,0.4714408398504468,0.9047619047618909,1
0.49185310678897365,0.29934663545955675,0.13292894738096378,0.4807283719145704,0.473112050808993,0.9047619047618873,1
0.49209694630034007,0.29942406456834014,0.13360153638482608,0.47411192062502794,0.46893434994857097,0.9047619047618909,1
0.49185694619560494,0.2993457632929327,0.1329282933941353,0.4493441314589727,0.47311205080899277,0.9047619047618873,1
0.49209323105986713,0.2994249689515064,0.13360221835883024,0.4378471075141272,0.4714408398504468,0.904761904761898,1
0.4918605492397473,0.29934483000648016,0.13292758726183113,0.47239044002594177,0.473112050808993,0.8888888888888786,1
0.49208972985040467,0.2994259283639824,0.13360294507198478,0.4773586520590223,0.4714408398504466,0.8888888888888857,1
0.4918639576332961,0.2993438468045536,0.13292684335991511,0.4495797517034536,0.46308543812960234,0.8888888888888786,1
0.49208640638359386,0.2994269333838532,0.13360370289634543,0.43156205532847036,0.4706055609071169,0.8888888888888857,1
0.49186720310576193,0.2993428216336737,0.13292607480885815,0.4695903592478483,0.46893434994857053,0.8888888888888786,1
0.49208323278886956,0.2994279772946192,0.13360447899626698,0.47672961014170095,0.47227677186566264,0.8888888888888751,1
0.49187031023934563,0.2993417601779057,0.13292529437177159,0.44369430123409226,0.46893434994857053,0.8888888888888751,1
0.4920801873041809,0.29942905528442365,0.1336052604724024,0.4446997511242705,0.4706055609071169,0.8888888888888857,1
0.49187329836246385,0.2993406665076652,0.13292451529609034,0.47960460757180834,0.46726313899002414,0.9047619047618873,1
0.49207725271393765,0.29943016391693533,0.13360603350757244,0.4705923574826586,0.46976962889190044,0.9047619047618909,1
0.4918761828454521,0.2993395435138138,0.13292375220740055,0.4340710591801776,0.46809841793335427,0.9047619047618909,1
0.49207441526893325,0.299431300773254,0.13360678240402657,0.4636321539870951,0.46893434994857053,0.904761904761898,1
0.4918789760048145,0.29933839320454014,0.13292302217391955,0.48665450133426763,0.46893434994857075,0.9047619047618802,1
0.49207166392647483,0.2994324642046639,0.13360748837882902,0.45869138128801695,0.46726313899002414,0.9047619047618909,1
0.49188168774371666,0.2993372169121054,0.13292234609762582,0.4339783928681155,0.46893434994857097,0.9047619047618802,1
0.49206898980927843,0.2994336531591306,0.13360812792869292,0.474592461277204,0.4672631389900248,0.904761904761898,1
0.4918843260097726,0.2993360154389031,0.13292175066634093,0.48254927977710527,0.4630854381296021,0.9047619047618731,1
0.4920663858180282,0.29943486705802674,0.13360867046696662,0.45702983709691025,0.4655919280314784,0.9047619047618802,1
0.49188689712264155,0.29933478916171596,0.1329212712508538,0.4304953274218914,0.4672631389900248,0.9047619047618731,1
0.492063846355094,0.2994361057078274,0.13360907472867212,0.47172207639525643,0.4647566490881485,0.9047619047618802,1
0.49188940600593434,0.2993335381065686,0.13292095641839902,0.48387221973240624,0.4655919280314784,0.9047619047618909,1
0.4920613671313605,0.29943736923666264,0.13360928303690728,0.44372247034997564,0.465591928031478,0.9047619047618909,1
0.4918918563462221,0.299332262002458,0.13292087530454577,0.44650964067695387,0.46475664908814873,0.9047619047618909,1
0.49205894503769065,0.29943865804890524,0.1336092117039609,0.4878136334251863,0.4672631389900248,0.9047619047618909,1
0.4918942506940478,0.29933096031960493,0.13292113028153785,0.4687029028679253,0.46057894822772605,0.9047619047618909,1
0.4920565780691274,0.29943997279311474,0.13360873406625356,0.4359638282061772,0.4664278600466947,0.9047619047618909,1
0.49189659051628165,0.2993296322961222,0.13292188004327027,0.458278654283648,0.4664278600466949,0.9047619047618873,1
0.4920542652946854,0.29944131434008614,0.133607648511468,0.48476882407683874,0.4664278600466947,0.9047619047618909,1
0.49189887620504225,0.2993282769558162,0.13292338477171783,0.46144675342226316,0.4664278600466949,0.9047619047618802,1
0.4920520068692566,0.2994426837687154,0.13360561323489828,0.4380193019785081,0.465591928031478,0.9047619047618909,1
0.49190110704505474,0.29932689311905614,0.132926102812027,0.44939982399680845,0.465591928031478,0.9047619047618873,1
0.4920498040872586,0.299444082358056,0.13360199871904466,0.48356389349399986,0.4647566490881485,0.9047619047618909,1
0.49190328113835824,0.2993254794080855,0.13293092365548603,0.4564421529972687,0.46392071707293203,0.8888888888888751,1
0.49204765948058227,0.299445511584387,0.13359550441201024,0.4461346327387256,0.4639207170729316,0.8888888888888786,1
0.49190539528230226,0.29932403424778936,0.13293983072729293,0.46860041567824773,0.46475664908814873,0.8888888888888751,1
0.4920455769664841,0.2994469731224232,0.13358293952047073,0.4809428311406303,0.46392071707293203,0.8888888888888786,1
0.4919074447934641,0.29932255586267786,0.1329583309335477,0.43559389618058875,0.46225015918627266,0.9047619047618909,1
0.4920435620546817,0.29944846884998255,0.13355382473303978,0.45794371473262013,0.46642786004669423,0.9047619047618909,1
0.49190942326610665,0.29932104227070944,0.13300954417485572,0.4818694353160253,0.46475664908814895,0.9047619047618909,1
0.4920416221274751,0.2994500008555292,0.13344181160950835,0.4772796457573094,0.46308543812960257,0.904761904761898,1
0.4919113222485395,0.29931949127453195,0.13348642651137144,0.4361862921580677,0.4630854381296021,0.9047619047618909,1
0.49203976681280703,0.2994515714479928,0.13424201799132884,0.4480360672849529,0.4614142271710562,0.9047619047619015,1
0.49191313081358556,0.2993179004507769,0.13268621595290297,0.4825448525774787,0.46308543812960257,0.9047619047618909,1
0.4920380084786842,0.29945318316815145,0.13376514730003303,0.47051681874962054,0.45974301621250935,0.904761904761898,1
0.4919148349892072,0.2993162671382501,0.13279821266388736,0.4486658976025555,0.4622501591862722,0.9047619047618873,1
0.4920363628895787,0.299454838800564,0.13371395057548385,0.4382086445467391,0.4614142271710562,0.9047619047618909,1
0.4919164170005549,0.2993145884262603,0.13282731771191625,0.469177894613423,0.46225015918627266,0.9047619047618802,1
0.49203485008345793,0.2994565413844905,0.1336954438398042,0.4768879834699481,0.4614142271710562,0.904761904761898,1
0.49191785425260703,0.29931286114506794,0.1328399180672099,0.44824223424890486,0.4597430162125098,0.8888888888888751,1
0.492033495555357,0.2994582942212791,0.1336864557356378,0.4425176573757982,0.46392071707293203,0.8888888888888786,1
0.49191911794870247,0.29931108186169464,0.13284656069146472,0.4757557219082435,0.4614142271710562,0.8888888888888751,1
0.4920323318757427,0.2994601008740296,0.1336813909262028,0.46504964437031726,0.46141422717105574,0.8888888888888751,1
0.49192017118698805,0.29930924688651184,0.13285055205901808,0.4398379817345456,0.4572365263106337,0.9047619047618802,1
0.4920314009394374,0.29946196515250023,0.13367811382569628,0.457094341751215,0.462250159186272,0.9047619047618873,1
0.49192096629059406,0.29930735229978483,0.13285339474373115,0.48026799070202786,0.4589077372691803,0.9047619047618873,1
0.49203075715183686,0.2994638910712478,0.13367546324918173,0.4553125336986314,0.4580724583258504,0.9047619047618909,1
0.4919214409833249,0.2993053940139415,0.13285608970695933,0.43538977621900615,0.45974301621250957,0.9047619047618909,1
0.4920304720477484,0.2994658827602043,0.13367246258406296,0.4727511392300387,0.4589077372691801,0.9047619047619015,1
0.49192151277333174,0.29930336789912815,0.13285972023407194,0.4754170245698316,0.4589077372691799,0.9047619047618909,1
0.49203064117116685,0.2994679442909743,0.13366775744703735,0.43970058891525493,0.4572365263106337,0.9047619047619015,1
0.4919210704575916,0.29930127002124624,0.13286616652834882,0.4523361457460163,0.4597430162125098,0.8888888888888751,1
0.4920313946586764,0.29947007935250475,0.13365848283126436,0.48400819227170866,0.4589077372691801,0.8888888888888786,1
0.4919199608098148,0.2992990970825844,0.13288021535376543,0.45257122416117146,0.4580724583258504,0.8888888888888751,1
0.4920329141620782,0.29947229065279113,0.13363574245560578,0.447664814758088,0.45640124736730403,0.8888888888888857,1
0.4919179668152923,0.29929684723531225,0.1329209977517677,0.4904065553642412,0.45640124736730403,0.9047619047618802,1
0.492035461205936,0.2994745788093378,0.1335470294060198,0.473292324546195,0.4589077372691801,0.9047619047618909,1
0.4919147701898082,0.29929452160192277,0.13325250336900402,0.43290976988414986,0.4564012473673045,0.9047619047618909,1
0.49203942752806296,0.29947694025262916,0.1344606725000027,0.47250352318734024,0.4572365263106337,0.9047619047618909,1
0.4919098825406492,0.2992921271886061,0.1326023988370551,0.48422872157678615,0.4572365263106337,0.9047619047618802,1
0.4920454311457097,0.29947936313979495,0.1338467621633409,0.46620145887214276,0.45640124736730403,0.9047619047618802,1
0.4919025081732401,0.299289682679981,0.13271391401540716,0.4265409874378767,0.45723652631063416,0.9047619047618802,1
0.49205451753820767,0.2994818190316701,0.13380185935740802,0.45582827754373445,0.45723652631063416,0.9047619047618873,1
0.49189123989094613,0.29928723057118234,0.13273532831434776,0.4846222649275308,0.4589077372691803,0.904761904761898,1
0.4920686364467286,0.2994842449039893,0.13379196222336626,0.47006766967305585,0.4589077372691799,0.9047619047619087,1
0.4918732789862572,0.29928486437184654,0.13273834854081829,0.4397581587825668,0.4547300364087581,0.9047619047619015,1
0.49209198602654014,0.299486501055341,0.1337937134464578,0.43670041154977646,0.45556531535208733,0.9047619047619087,1
0.49184196357340976,0.2992827954982141,0.13273282589398627,0.4789879417062242,0.4555653153520878,0.9047619047618802,1
0.49213595673879373,0.29948826139974466,0.13380259177627885,0.4726724332577108,0.45640124736730403,0.9047619047618909,1
0.4917756714788014,0.29928154010169394,0.1327206258150494,0.4396138549247044,0.4538947574654286,0.9047619047618873,1
0.4922487440021881,0.29948868041583676,0.1338184028475402,0.4506900434631557,0.4555653153520878,0.9047619047618909,1
0.4915300502364337,0.2992825475168201,0.13270055515984003,0.48488659700183084,0.45556531535208733,0.9047619047618909,1
0.49359773166028176,0.2994851175298392,0.13478421137054153,0.4641595359589539,0.4530588254502117,0.9047619047618909,1
0.4944631526013644,0.29929105636029163,0.1326676887468513,0.43290793810771844,0.44553935574458414,0.9047619047618873,1
0.49265559219539523,0.29946576804593783,0.13388767628101567,0.4592436616138687,0.4513876144916653,0.904761904761898,1
0.49269471815349536,0.2993401149407048,0.13260600620461516,0.4916298675514992,0.4530588254502117,0.9047619047618909,1
0.4940614613988453,0.2992767758705728,0.1339833104898272,0.45831467114468977,0.44804584564645933,0.904761904761898,1
0.49433773165566586,0.2983108139874719,0.13242705801853416,0.4312876350273743,0.4530588254502117,0.904761904761898,1
0.4984491629053537,0.2997800337601083,0.13454767308225402,0.46841765954768166,0.4513876144916653,0.9047619047619015,1
0.4932811251364433,0.29743590056131436,0.1342902001503244,0.47354520084834084,0.4522235465068818,0.9047619047618909,1
0.49732231024272927,0.29918318234811014,0.13331772302817707,0.44359794659596535,0.4522235465068818,0.9047619047618873,1
0.4996768571890191,0.2966116930335687,0.13129713021535372,0.45092053262197085,0.4497170566050064,0.9047619047618802,1
0.4979189407824923,0.2964045973179006,0.131931580180928,0.47327210991618474,0.4522235465068818,0.9047619047618909,1
0.5011011262704081,0.2951958988116259,0.13081946126657162,0.44273445482580887,0.44971705660500616,0.9047619047618873,1
0.5050790004484157,0.29660199202210746,0.13080022722388474,0.46371933281969147,0.4522235465068818,0.9047619047618909,1
0.5060892541846964,0.29521788390712733,0.12819227933200789,0.5089337481287639,0.4513876144916651,0.9047619047618873,1
0.5029396134022763,0.29561511730246115,0.13038852870241258,0.45278105382220507,0.4513876144916653,0.904761904761898,1
0.5056173450701331,0.29400696151608174,0.1292127700816602,0.4265047906630354,0.44804584564645955,0.9047619047618802,1
0.5051731270408744,0.29505406426208297,0.13313956653796505,0.4744604390363002,0.44804584564645933,0.9047619047618802,1
