wrist_ACC_1,wrist_ACC_2,wrist_ACC_3,wrist_BVP_1,wrist_EDA_1,wrist_TEMP_1,label
0.7667832632310128,0.6288456932678727,0.206547704441276,0.6707599621311818,0.20174070627418345,0.8128654970760021,1
0.8828130675379877,0.6016119106347775,0.285005247665435,0.4863988119685742,0.2042464612822653,0.8187134502923854,1
0.8888634078288427,0.6049367477667201,0.3980373931200017,0.49609368607437293,0.2042464612822651,0.8187134502923943,1
0.852165100164405,0.614965536811533,0.6862732115214765,0.6037096170531584,0.2042464612822653,0.8187134502924014,1
0.7604486457023927,0.7340554818119366,0.6043174625093344,0.7330576243855151,0.20675221629034696,0.8187134502923943,1
0.6300139659407928,0.8749085847913063,0.5439681722949674,0.739709460026176,0.2042464612822647,0.807017543859633,1
0.4470327126924575,0.9391525624047135,0.5429422465343733,0.6094283113601723,0.20299358377822468,0.8070175438596507,1
0.2093667773302588,0.9890462562377034,0.4979676765540788,0.49688277203732656,0.19672821668217677,0.8070175438596277,1
0.1899767097150748,0.9894625593744408,0.5328344942604539,0.20938517687523434,0.1992339716902578,0.8070175438596419,1
0.1818302962590892,0.9949501902911024,0.525045472401832,0.4590545236771567,0.19923397169025858,0.8011695906432692,1
0.20517341004281095,0.9901072624989347,0.5395881263169807,0.7556843346965395,0.1979810941862173,0.8011695906432603,1
0.21015705984681754,0.9930198408138899,0.5287826112803523,0.5906844286596509,0.19798109418621784,0.8011695906432585,1
0.21266667348881882,0.9915368691795532,0.5308202740307509,0.6101242552615714,0.19547533917813603,0.8011695906432656,1
0.20682417149928875,0.9951126750639412,0.5230244465286766,0.653390160372767,0.19547533917813603,0.8070175438596419,1
0.1775268718304376,0.9932455065609018,0.5187401688138265,0.5677291446876102,0.1954753391781357,0.8070175438596241,1
0.14444932515092423,0.9951579976569354,0.5105619762756116,0.5258571876579344,0.1892099720820895,0.8070175438596419,1
0.143140880688228,0.989288380332483,0.5191742159621922,0.6405832637730247,0.19296860459421084,0.807017543859633,1
0.14205773518694617,0.9957492672194574,0.4991473092351606,0.6183928090774558,0.1892099720820889,0.8070175438596543,1
0.21983217465183458,0.9985799748503852,0.4942818082399967,0.5171215411869446,0.1942224616740953,0.8070175438596383,1
0.2050626286909506,0.9981199217065977,0.5044360842319409,0.5646939705044149,0.18670421707400753,0.8070175438596419,1
0.21406890668669581,0.9962558461052589,0.5155925866426787,0.6159951556026684,0.1904628495861297,0.8070175438596401,1
0.21390171799044247,1.0,0.5127180066865056,0.5351879828391201,0.18920997208208779,0.807017543859633,1
0.14020254421533745,0.9905734711835643,0.5020439988012666,0.5693218289749803,0.18920997208208973,0.8070175438596472,1
0.0,0.9751178670323479,0.5512012081669695,0.6380359832513055,0.19296860459421117,0.807017543859633,1
0.14169271851566645,0.9754312100836804,0.6012665758631942,0.574180890657521,0.19422246167409535,0.807017543859633,1
0.11983622605395207,0.9698649474713288,0.6257813405311315,0.5114248517749371,0.19923397169025758,0.7923976608186969,1
0.030237238139863426,0.9626635921930246,0.6009405472477967,0.6154582193342206,0.19672821668217683,0.7923976608186916,1
0.03167426552293981,0.9605172727317455,0.6332087335805272,0.64715394656279,0.19296860459421034,0.792397660818704,1
0.03550947427246737,0.9638958087051699,0.5911353099982317,0.3956667613507383,0.19296860459421072,0.7923976608186969,1
0.014439987033632473,0.9613213266197697,0.6052641623629633,0.6098483028952303,0.19923397169025825,0.7923976608186969,1
0.05889111723657306,0.9698086861899196,0.5897855228700164,0.7473494776080386,0.19923397169025886,0.7923976608187111,1
0.07591851039607797,0.9764461875135297,0.5929412878924918,0.580168772269829,0.19798109418621762,0.7923976608187004,1
0.09183586648903712,0.9785977645617225,0.5733211388394256,0.3963506800585601,0.19923397169025897,0.792397660818704,1
0.09227944313631821,0.9908721645074849,0.5443442550192057,0.5956241647411016,0.1967282166821765,0.8011695906432692,1
0.1305732361231262,0.9654867413136516,0.5943308595149825,0.5276743842179046,0.19296860459421117,0.8011695906432621,1
0.2165650527483192,0.9145419007114302,0.6315111633218164,0.5071444974830672,0.19171572709017032,0.8011695906432728,1
0.43423323529322927,0.8546308494158372,0.7517899567282438,0.5671172800963662,0.1942224616740953,0.8011695906432728,1
0.5829994652862077,0.8300860565996241,0.8724616020310887,0.5866091978066705,0.19923397169025858,0.801169590643271,1
0.6026089976581687,0.814542018619566,0.71643920835742,0.5669053643079103,0.20424646128226553,0.8011695906432728,1
0.6955806496170267,0.7968077462171116,0.680526143101297,0.6361942713338473,0.19923397169025797,0.8011695906432603,1
0.6780540472147094,0.7700372765212848,0.6407293819746034,0.6275780842881507,0.19923397169025853,0.8011695906432781,1
0.7527125792497971,0.7235653559988866,0.7027330843648155,0.523430967939729,0.1954753391781363,0.79239766081872,1
0.752705480318097,0.7000405990298907,0.6766251523227484,0.46988562177717563,0.19798109418621734,0.7923976608186933,1
0.8206498790269985,0.6989877371050554,0.5684294126384793,0.5567098335264667,0.19798109418621745,0.792397660818704,1
0.8542281102250633,0.7057340942769629,0.448467164438526,0.5594262787541783,0.19672821668217716,0.7923976608187075,1
0.8527401547441271,0.6886181582949024,0.4354640792877743,0.6458745016663792,0.196728216682177,0.7865497076023278,1
0.84043127941856,0.7040079939103415,0.5015207874199213,0.5734575906613364,0.20048782877014287,0.7865497076023331,1
0.8056795931313532,0.6763645051374274,0.5616512028730553,0.4358399858143423,0.19923397169025836,0.7865497076023331,1
0.8267599760929965,0.6981280215702562,0.5138841329415568,0.539284696403835,0.19798109418621707,0.7865497076023154,1
0.8383128761494625,0.7011655047879102,0.46133118842366266,0.6382334363916597,0.1979810941862175,0.7923976608186951,1
0.8326794726277706,0.7044182537406198,0.4727749686411624,0.5982795408303273,0.1867042170740077,0.7923976608186987,1
0.8407610324782391,0.6835546807009827,0.4194927394022986,0.5574946496933112,0.1892099720820884,0.7923976608187093,1
0.8273391234757872,0.6852234390958754,0.3240567760969706,0.6209552231396572,0.18294460498604187,0.7923976608187182,1
0.8304511627993578,0.6835465189530268,0.32127851005852315,0.592842172422108,0.1867042170740068,0.8011695906432692,1
0.8247601940556393,0.6863842588718078,0.34179340245446027,0.5184309710827085,0.18920997208208878,0.8011695906432656,1
0.8334115085636769,0.6839487930359227,0.34489309406964824,0.4903977278405818,0.18670421707400708,0.8011695906432621,1
0.8204141772474267,0.6925919659579348,0.3340752964211868,0.49329330609251404,0.18795709457804788,0.8011695906432497,1
0.8250082203710569,0.6836407417404806,0.32954070900971205,0.5859251579702303,0.1867042170740077,0.783625730994153,1
0.8146287487975223,0.6962252884344695,0.32026657821701576,0.6304305769745117,0.19296860459421172,0.7836257309941441,1
0.8590151326342892,0.6665202519939601,0.31903822308179297,0.5707604840821825,0.18795709457804788,0.783625730994153,1
0.7477429262438209,0.7079392727962808,0.2645042413355737,0.5540293671951202,0.18670421707400714,0.783625730994153,1
0.8069769289562934,0.7163525187754051,0.24944220206451356,0.5784258755608407,0.18294460498604165,0.777777777777775,1
0.8383916553218995,0.691267162324199,0.5286207166425897,0.579668684271601,0.18670421707400625,0.7777777777777715,1
0.6240335085290634,0.7046687105648396,0.8454184936152327,0.5336692185117838,0.1879570945780482,0.7777777777777715,1
0.5510230611256999,0.7710143047895465,0.7566402671492489,0.5834558220539479,0.19171572709017004,0.7777777777777644,1
0.5430303934433724,0.7664744159226335,0.7852910126121454,0.6318482682020735,0.1954753391781372,0.783625730994153,1
0.6178877489393898,0.7331105957720043,0.8202323153583391,0.6332404021585247,0.19296860459421084,0.7836257309941494,1
0.6005907388742531,0.7040472901347519,0.817244441133643,0.7713318276041501,0.19547533917813598,0.7836257309941406,1
0.6524043911807224,0.6911929017226444,0.8328685180966977,0.4088794848891853,0.19422246167409535,0.783625730994137,1
0.6681768856024726,0.7018085355302565,0.7594945009482175,0.36125986248855646,0.19296860459421067,0.7836257309941441,1
0.7388694959051039,0.6929525683876547,0.7353760116278096,0.6084090285919505,0.1967282166821765,0.7836257309941406,1
0.7652854903202486,0.6983214327426562,0.673220723613194,0.5465321018351417,0.19296860459421145,0.7836257309941477,1
0.7755783897415645,0.6946570317000769,0.6780007580893577,0.44485228765681983,0.1942224616740948,0.7836257309941335,1
0.7724856382375889,0.6965465556326221,0.6626597829726915,0.5826491131835914,0.19422246167409546,0.7836257309941459,1
0.7789064939601273,0.6952140540358387,0.6675272582215873,0.6102842770789986,0.19296860459421128,0.7836257309941494,1
0.7754762080023281,0.696052206557131,0.6598812671285554,0.5453348016999097,0.19296860459421084,0.7836257309941494,1
0.7836356191989622,0.6957939411890799,0.6673113285199468,0.598203845877127,0.19296860459421067,0.7836257309941441,1
0.779487344190255,0.6933804248129875,0.6383167425302361,0.5844732863463261,0.1917157270901696,0.7865497076023207,1
0.8154037939109413,0.6984852240137647,0.5987987513430525,0.604919412125218,0.19046284958612958,0.7865497076023225,1
0.8361568195411977,0.696975012784621,0.5338794406858225,0.6099331724946452,0.19046284958612952,0.7865497076023242,1
0.8247866610945711,0.7040391984342896,0.5425674688172727,0.5015849907993689,0.18795709457804882,0.7865497076023367,1
0.8224729139672524,0.7114509171892064,0.5342799270645024,0.514494451737899,0.18419748249008283,0.7865497076023367,1
0.7198091876746417,0.6945382895557431,0.7218227229835708,0.5427100118949987,0.18545035999412296,0.7865497076023349,1
0.6105047565662252,0.6839391092750942,0.8198084911473438,0.5963097444693616,0.18670421707400725,0.7865497076023455,1
0.6888544114490969,0.6744862827078828,0.795752999415866,0.5182589061403824,0.18795709457804743,0.786549707602326,1
0.6739776517535773,0.676292053129927,0.7874135584544192,0.6007503675513036,0.18545035999412274,0.7865497076023331,1
0.6867789897050411,0.6739204612823524,0.7944977711762387,0.6522406399357434,0.18920997208208917,0.7865497076023331,1
0.6685178715025156,0.6759912000670023,0.7883558496990755,0.5916588167704545,0.18670421707400714,0.7865497076023296,1
0.6844665997122998,0.6752078384245412,0.7939430963819576,0.4588588485941914,0.1867042170740077,0.786549707602342,1
0.6694030981045523,0.6773999562133313,0.785505822546064,0.5302968102780536,0.1867042170740068,0.7865497076023278,1
0.6833116967406349,0.67945387394457,0.7936129014753914,0.5654356191745415,0.18419748249008228,0.7865497076023349,1
0.6647335544444146,0.6768496171462298,0.7896745503930007,0.5975684056725615,0.18545035999412218,0.7865497076023225,1
0.6811716060466427,0.6795410467667083,0.7988315167790343,0.5705868161091879,0.18294460498604148,0.7865497076023384,1
0.6607740281819021,0.6787430809679484,0.7917836570433088,0.541970237205683,0.18419748249008178,0.7865497076023278,1
0.6763689763677974,0.6798042604225835,0.7963065039698132,0.6022491926944328,0.1816917274820007,0.7865497076023296,1
0.6618387588271959,0.6785158885948384,0.7876499566426248,0.567012736210281,0.17542636038595277,0.7865497076023331,1
0.6799331299842173,0.6803311163234187,0.799183694982752,0.5378765759087764,0.18043884997795956,0.786549707602326,1
0.6619348342162186,0.6792032626053999,0.787262707638141,0.5763096282576666,0.18043884997795967,0.783625730994153,1
0.6807928729457249,0.680388103939733,0.7964624912193796,0.6004805189236361,0.18169172748200096,0.7836257309941459,1
0.6619628640602813,0.6790058150703051,0.7852331782033928,0.5550338165344316,0.1804388499779599,0.7836257309941441,1
0.6811570041485089,0.6807377261904008,0.7985403423155456,0.5353143792860006,0.1804388499779595,0.7836257309941352,1
0.6624190668749996,0.6783959498991509,0.7774487053823186,0.5740887971698649,0.1791859724739192,0.7836257309941441,1
0.7457648695067944,0.6874465372800715,0.7411790161014908,0.5956016317414515,0.18043884997795967,0.7836257309941406,1
0.7363408227198951,0.6847087775175912,0.6970569165536846,0.5550615326204479,0.179185972473919,0.7836257309941566,1
0.8191233738855415,0.7171565710962605,0.7784424732624151,0.5446198921168713,0.1766792378899939,0.7836257309941459,1
0.6054584511159657,0.8460982768938754,0.6388509375728293,0.5828059615293988,0.17667923788999312,0.7836257309941335,1
0.36508631643575296,0.900252791596682,0.5770581585091455,0.6106828557105096,0.18043884997795928,0.7836257309941406,1
0.42603047941232564,0.949947662199615,0.6226505743426102,0.5138298873798715,0.18294460498604137,0.7836257309941459,1
0.4118474902109148,0.9625981162099468,0.6066102595285023,0.48141634114486337,0.18169172748200096,0.783625730994137,1
0.37595298548181627,0.9510578391566464,0.6257130874870471,0.521703509075694,0.18043884997796,0.7836257309941406,1
0.37386568183028135,0.9513051543258526,0.611185834556992,0.7500984793300416,0.18294460498604165,0.7836257309941459,1
0.4187389128515718,0.9647448955774378,0.5942455543768554,0.6617233398881526,0.18043884997795973,0.7836257309941423,1
0.42181302008905525,0.9511863723605751,0.5777770152708536,0.5612120365001014,0.1816917274820002,0.7836257309941335,1
0.4470345868039092,0.9481609780506772,0.6224913551065709,0.5819957030632132,0.18294460498604087,0.7777777777777626,1
0.46412977475781614,0.9463764001383226,0.5691680466726733,0.5106799362691836,0.1816917274820007,0.777777777777775,1
0.4890558452417906,0.9445305956817258,0.5738899543496767,0.5332036296951932,0.1816917274820004,0.7777777777777661,1
0.45762435940056134,0.9470513984874712,0.5678233021837944,0.5347710064625101,0.18043884997796011,0.7777777777777821,1
0.4644035157744104,0.9472347214584116,0.5825212348402506,0.5744936521003775,0.18294460498604104,0.7836257309941406,1
0.46230908630904755,0.9433468186134568,0.5853300631884226,0.44958325353516915,0.17918597247391982,0.783625730994153,1
0.4656282815494135,0.9443276923760314,0.588030721498746,0.6278984157736481,0.18169172748200035,0.7836257309941459,1
0.4665613097550151,0.9462858326374204,0.5852157615449465,0.6624724584726922,0.17793211539403503,0.7836257309941441,1
0.44040579403223556,0.949515461857392,0.586282155030248,0.4249835693649587,0.179185972473919,0.7836257309941423,1
0.4492452505420518,0.9491027554013362,0.5987658816770499,0.4729139556132684,0.1754263603859536,0.7836257309941406,1
0.45196822547371907,0.9450416028104839,0.6066257489010897,0.3698541002093263,0.17417348288191165,0.7836257309941352,1
0.45119428047388843,0.9413266019369937,0.6104107039593165,0.570228603626891,0.17667923788999368,0.7836257309941441,1
0.45287733315174505,0.9387297826470227,0.6107031843102081,0.6596821300553377,0.17542636038595344,0.7777777777777821,1
0.4598090627653628,0.9392877611237536,0.6133446080884627,0.6466629312994476,0.17292060537787163,0.777777777777775,1
0.45256768775108003,0.9374590758609552,0.612735002613103,0.5872255525064597,0.17166674829798756,0.7777777777777821,1
0.4711943488758743,0.9407029606027159,0.6048784995381682,0.5633782509681312,0.17166674829798778,0.7777777777777874,1
0.4654066887912718,0.9413695063071317,0.5964793664912782,0.6093476320927896,0.17292060537787146,0.7777777777777626,1
0.46638017610487664,0.9402482685249093,0.6020459375665882,0.5529815137252759,0.17417348288191215,0.7777777777777697,1
0.4656796860461095,0.9403592027969306,0.5909987412022107,0.5841774201293487,0.17417348288191303,0.7777777777777839,1
0.473418681751923,0.9441017957139846,0.6033096377884968,0.6250804679858374,0.17166674829798678,0.7777777777777697,1
0.44949147278994017,0.945906027318574,0.5996569750154592,0.5600815711259006,0.17292060537787124,0.7777777777777608,1
0.4170775078797003,0.9507099381541031,0.6052711518774783,0.542083015219277,0.171666748297987,0.777777777777775,1
0.42633670313925215,0.9526430359826412,0.6043912548538503,0.6003190955054392,0.17166674829798723,0.7777777777777732,1
0.4303604409065092,0.9510929166085341,0.5949989351199872,0.5697243457386028,0.17166674829798695,0.7777777777777644,1
0.4300624978668594,0.9515254813068492,0.5970972561936263,0.5085414652730967,0.17041387079394665,0.777777777777775,1
0.4325199111304595,0.9519610071380598,0.5957343657069765,0.5526000671749712,0.16790811578586462,0.7777777777777644,1
0.4349264082421185,0.9508510674599571,0.5978906707617299,0.63477412238342,0.16916099328990575,0.7777777777777715,1
0.43996191583860533,0.9503814599464303,0.5983823811579074,0.5654331836302978,0.16916099328990536,0.7777777777777732,1
0.43783924658794426,0.949679054549232,0.5966857942034616,0.5627582733435359,0.17041387079394632,0.7660818713450297,1
0.4447181101731208,0.949866193157618,0.597233027896327,0.5962287921880042,0.17041387079394665,0.7660818713450297,1
0.4397991545473877,0.9487924430757596,0.593097214832215,0.5867937524515491,0.1704138707939466,0.7660818713450173,1
0.44880990274583843,0.9516540259810765,0.5866946010146867,0.532759029516202,0.1691609932899057,0.7660818713450261,1
0.4434198056937977,0.949622288743913,0.5854193039578687,0.5652258537019711,0.16916099328990558,0.7602339181286464,1
0.4434470681333119,0.9514240091303188,0.5987380815762893,0.5937998836165653,0.1716667482979874,0.7602339181286482,1
0.4061849561441955,0.948053562397107,0.6237568589917208,0.5790144766581294,0.16916099328990575,0.7602339181286464,1
0.41686972275173073,0.9518265380393882,0.6185521172931466,0.5615297231683684,0.16665523828182371,0.7602339181286357,1
0.37827821815564616,0.939064556056544,0.638687464034991,0.5673913738120251,0.1616427486898176,0.7602339181286482,1
0.43908264493244953,0.8777325983425814,0.6250861834091648,0.5428996850606863,0.16665523828182371,0.7602339181286482,1
0.6526816968835347,0.8329172758964873,0.7553368402826017,0.5210649001870553,0.16540236077778336,0.7602339181286393,1
0.42868854514889526,0.6911922775254233,0.9423793073061522,0.5654027677808401,0.17166674829798778,0.7602339181286517,1
0.522614952723025,0.6590827414609688,0.8907953293596802,0.6271841919810747,0.17417348288191264,0.7543859649122826,1
0.7224495558428918,0.7269394649419187,0.7077029355767435,0.5758703420871141,0.17292060537787157,0.7543859649122755,1
0.7429515451254622,0.7407476933295922,0.4512472795474999,0.6583076691203387,0.16665523828182455,0.7543859649122702,1
0.939863070785051,0.732949805053181,0.4089392934740553,0.6932171527625025,0.15913699368173634,0.754385964912279,1
0.702368112214399,0.763385346883426,0.6552099788460624,0.3721413045487658,0.1791859724739185,0.7602339181286428,1
0.5246702670497982,0.6877287857217957,0.8070654922438123,0.3603617556383679,0.17166674829798756,0.7602339181286464,1
0.6604402084809206,0.7050917422639851,0.846937739207533,0.5885842622009402,0.17542636038595277,0.760233918128641,1
0.6163985024524519,0.7102027939486327,0.8088423194891541,0.7153525950654569,0.1741734828819126,0.7602339181286464,1
0.6308930542721409,0.7103784844927783,0.8139566212325837,0.4809864643771407,0.17542636038595338,0.7602339181286464,1
0.6012322688679482,0.7247137840449488,0.7825348449338342,0.6554400669105725,0.17667923788999373,0.7602339181286464,1
0.6543285665597265,0.7126768139124108,0.7915213767731804,0.5524612691991784,0.17667923788999385,0.7602339181286517,1
0.6410498664725934,0.700544384031059,0.803502392673175,0.4448527285532574,0.1779321153940348,0.7602339181286464,1
0.6448804328628697,0.6876873517718911,0.8273792507901605,0.6012131478919588,0.170413870793946,0.766081871345019,1
0.6584898821208147,0.6811709046041449,0.7916801204367634,0.5615279951863713,0.17793211539403453,0.7660818713450261,1
0.6532562381819655,0.7001617097178336,0.7981403527057571,0.5105994120425569,0.1766792378899939,0.7660818713450102,1
0.6632165690775295,0.6948341580855264,0.7866975712257473,0.6075823535299072,0.17793211539403458,0.7660818713450102,1
0.6613189338689542,0.7016223718238688,0.7891103266549827,0.6452093787489854,0.1779321153940348,0.7660818713450226,1
0.6600108195134047,0.6997006264557388,0.784369904759523,0.5660145891594798,0.1779321153940352,0.766081871345035,1
0.6727107188543824,0.7028428159103141,0.775018378672859,0.5238034965036911,0.17793211539403442,0.7660818713450119,1
0.6928625628807445,0.7030105773091784,0.7610461032372084,0.5075270600764309,0.18043884997796,0.766081871345019,1
0.6846618067694437,0.710786761304502,0.7606424401050923,0.5462978508655425,0.18419748249008167,0.7660818713450137,1
0.6994217672298738,0.714374886621012,0.7343627924016862,0.561670877552503,0.18169172748200096,0.7660818713450297,1
0.737797174929586,0.721467904970656,0.6968892712705462,0.6169036794562104,0.16790811578586456,0.7660818713450244,1
0.7453568704653151,0.7249926833066167,0.6791456918549714,0.5757138575081165,0.16665523828182416,0.7660818713450119,1
0.7404863949327858,0.7217640779344456,0.6801876290373295,0.5403366803069867,0.16665523828182432,0.7602339181286535,1
0.7358556218924763,0.7189995752993246,0.6960314462126347,0.6543207530191583,0.16790811578586506,0.7602339181286393,1
0.7398979218477619,0.7205073527751605,0.6944656530013658,0.5578851114909957,0.1679081157858649,0.7602339181286517,1
0.7382877048063141,0.7188527854682359,0.6891552863075783,0.5626952319043795,0.16414850369789896,0.760233918128641,1
0.7462004624466956,0.721464511181148,0.6791013972197242,0.5743673503281541,0.1641485036978994,0.7602339181286428,1
0.7526995497345219,0.7221341866430998,0.6727662121819467,0.5788714223055021,0.1603898711857764,0.7602339181286464,1
0.7507151595657395,0.7208297285098357,0.6697130591444469,0.5771505606798757,0.1628956261938589,0.7602339181286482,1
0.7383262805642401,0.714681249181153,0.694316980320613,0.5520624526998202,0.1616427486898182,0.7602339181286624,1
0.7525883318694735,0.699320939287953,0.7074308677575127,0.5793606271257438,0.16540236077778303,0.7660818713450137,1
0.7333448832006466,0.7030303926591661,0.7089689130462322,0.5532650717719888,0.16414850369789957,0.766081871345019,1
0.6769399639597098,0.6887267482994639,0.787792345840941,0.5121099505637754,0.16665523828182416,0.7660818713450226,1
0.669948659445156,0.6816049510224944,0.791665500594707,0.5123361406767744,0.16916099328990658,0.7660818713450297,1
0.6819927399563253,0.6800355656790655,0.7831383952102022,0.5751706869223946,0.17041387079394643,0.7602339181286517,1
0.6854346718893105,0.6802367354325669,0.7796797253040096,0.5418241923422213,0.17166674829798728,0.7602339181286517,1
0.6916657641766546,0.6803378826186877,0.7740540429174748,0.5280242092446789,0.16916099328990558,0.760233918128641,1
0.6968583434441386,0.682318438064436,0.7678846744526111,0.5831756949369258,0.16916099328990603,0.7602339181286482,1
0.6999597643393993,0.6869210147026228,0.7654514401035543,0.5530576711033506,0.16665523828182333,0.7602339181286517,1
0.6995219774877188,0.6872524069092807,0.7631774009723431,0.5120220010600576,0.17166674829798784,0.7602339181286517,1
0.7029531224711789,0.6866583313333529,0.7641074905602507,0.5805606371290791,0.16790811578586445,0.7602339181286464,1
0.7027958511197084,0.6856824773699981,0.7608045346006691,0.5901623115993812,0.16790811578586584,0.7602339181286535,1
0.7025252611769949,0.6868969002957636,0.7605746449480505,0.5352098197045333,0.17041387079394676,0.7602339181286428,1
0.7029917773352166,0.6858273099216691,0.7606032471269237,0.6018563390005901,0.17041387079394638,0.7602339181286535,1
0.7003667679702332,0.6861739814129378,0.7654433510926948,0.5657061068162031,0.17166674829798623,0.7602339181286286,1
0.6988032134376782,0.6841712206417854,0.7638988357736425,0.58886169098512,0.1716667482979874,0.7602339181286535,1
0.7005599188104243,0.6852189815657939,0.7652255420714944,0.7277504469501297,0.17292060537787168,0.7602339181286428,1
0.6997438013220136,0.6848179903760462,0.7672181540980121,0.5883813283969312,0.17292060537787224,0.7602339181286499,1
0.6984256162701212,0.68720869920818,0.7659250470020142,0.5407569667928408,0.17041387079394615,0.7602339181286357,1
0.7009257202944947,0.6834428375297911,0.7714875376657266,0.5573020469861639,0.16790811578586445,0.760233918128641,1
0.6935364575477831,0.6832465186269002,0.7713801374318406,0.5607306537285667,0.16916099328990536,0.760233918128641,1
0.6951256596947203,0.6859934629066522,0.7678133858754871,0.5065976283648279,0.17166674829798778,0.7602339181286553,1
0.690493419789614,0.6844471002030894,0.7721428209268126,0.5504930469624906,0.16916099328990558,0.7602339181286393,1
0.698236177240055,0.6870003796241588,0.7666958455460327,0.6028146414085865,0.17041387079394665,0.7602339181286464,1
0.7049589081578431,0.687481764190689,0.7570654766317063,0.5832778111832769,0.17041387079394676,0.7485380116958904,1
0.7005652173702768,0.6980642097303849,0.7593264365280379,0.5375533365701,0.16916099328990586,0.7485380116959046,1
0.6944299271892187,0.7016555633936286,0.7522236324325909,0.5755575993607073,0.17041387079394604,0.7485380116958975,1
0.7055364593876854,0.7042558688037003,0.7558299277633265,0.5917774088152891,0.16916099328990603,0.7485380116959064,1
0.6986206291765126,0.6849631101857576,0.7812556232967439,0.5150714881843472,0.16916099328990492,0.760233918128641,1
0.6856874518406177,0.7341821223097255,0.7054284963975124,0.4966999976829929,0.1704138707939471,0.7602339181286606,1
0.7328832840972737,0.7740775427110824,0.6612280379281011,0.5939436118453252,0.16665523828182427,0.7602339181286517,1
0.6900174828895782,0.7197602570202697,0.7339556776567785,0.5212501706955756,0.16665523828182494,0.7602339181286464,1
0.662300323700241,0.7926202187979363,0.7540712815935646,0.5094377496908067,0.16540236077778353,0.7660818713450137,1
0.48991065289190655,0.7551970020636984,0.8207961738344349,0.5548730846661946,0.1691609932899058,0.7660818713450244,1
0.4801800136242424,0.7353163140805499,0.8468539633455254,0.6205211573797694,0.16916099328990564,0.7660818713450261,1
0.5542900073072043,0.7744282614681479,0.8298642248621377,0.5664625777642164,0.17417348288191165,0.7660818713450226,1
0.5425269326418758,0.7280460969746757,0.8336213178946106,0.5586893103230461,0.1729206053778719,0.7660818713450208,1
0.5916905461559612,0.7358872078979418,0.8460946469316668,0.7005358200494997,0.17292060537787163,0.7660818713450297,1
0.537193577920526,0.7297682283528656,0.83367544203198,0.6098950659174999,0.17542636038595355,0.7660818713450173,1
0.5334801764714554,0.7165049191482514,0.8577270070596786,0.38423600792732154,0.17542636038595322,0.7660818713450297,1
0.5508834505659576,0.7190896440190974,0.8495202473365385,0.5103913309752643,0.17542636038595283,0.7602339181286464,1
0.553419680137002,0.7261344939034378,0.8406468564256074,0.627021418170129,0.17292060537787135,0.7602339181286464,1
0.5809309853700351,0.7271340016017033,0.8251239136844501,0.6379487095164682,0.17542636038595294,0.760233918128641,1
0.5808044596385304,0.7299178050789679,0.8249464930825359,0.5575990170484091,0.17041387079394604,0.760233918128641,1
0.5788123611126537,0.7292724168801434,0.8253142383346896,0.5872410533264448,0.175426360385954,0.7660818713450297,1
0.5923537316310207,0.7311197895101078,0.8163824897217693,0.5109529992367607,0.1754263603859526,0.7660818713450208,1
0.5886405208310959,0.7281138764312499,0.8177096096232745,0.6017473511299998,0.17542636038595394,0.7660818713450315,1
0.5876193031990273,0.7307886732595289,0.8219477466817369,0.5706068980806691,0.17542636038595283,0.7660818713450137,1
0.5761085232416142,0.7291624469550592,0.8234465148333278,0.5302184755848467,0.17542636038595327,0.7719298245613917,1
0.5739764693373877,0.7273134403723336,0.8338664117393713,0.5351862739801553,0.17793211539403425,0.7719298245613917,1
0.5484786013494181,0.7224489211431703,0.8460594194101034,0.6171768905180497,0.17542636038595344,0.7719298245613935,1
0.5462356189102193,0.7240158688882821,0.8515093321322103,0.5475658938746245,0.17542636038595294,0.7719298245614024,1
0.49704400593434805,0.7045028673025573,0.873960067802201,0.5978827513825611,0.17166674829798717,0.7602339181286375,1
0.5196307377125879,0.7131150165215338,0.871758241031686,0.6180780228776431,0.1741734828819121,0.7602339181286357,1
0.4795807288656113,0.7021204751435737,0.8754299820689426,0.5921149141199399,0.17417348288191248,0.7602339181286482,1
0.5384852626592045,0.6988856265583284,0.8632769404694298,0.5195154366861137,0.1729206053778719,0.7602339181286535,1
0.6004488375720749,0.6955598687722411,0.8176037462735513,0.5684731721747653,0.1729206053778714,0.7602339181286464,1
0.8001973136465645,0.6796564488625232,0.6455879094844312,0.5384517156157649,0.16665523828182455,0.7602339181286482,1
0.8771936425389188,0.6586912983670491,0.4085683466963502,0.5499222999905174,0.15412450408972883,0.7602339181286393,1
0.8996361919014,0.6702593574789742,0.5561846310942798,0.44323185056013154,0.14785913699368242,0.7602339181286517,1
0.5428311369362053,0.7357921500961327,0.8458327435189925,0.5303435542687686,0.15036587157760684,0.7602339181286499,1
0.41404044511533283,0.7052226340481664,0.8380649003813947,0.6747428194567183,0.16289562619385822,0.760233918128641,1
0.4825915499080631,0.7570415505376111,0.866850253988205,0.7302286029960281,0.1666552382818247,0.7602339181286517,1
0.48145318870427556,0.7572522030715849,0.8565977880486664,0.3990119955411534,0.1666552382818247,0.7602339181286535,1
0.5025421594948813,0.7495025353942211,0.8563486283921156,0.5217074541957138,0.1691609932899058,0.760233918128634,1
0.4951952908538859,0.7513807707082361,0.8532981285720631,0.8459247077206116,0.16916099328990591,0.7602339181286499,1
0.5005655640448105,0.7509841512298709,0.8495744796082214,0.4970901349441615,0.17041387079394654,0.7602339181286375,1
0.49933931073974147,0.7531358936198664,0.8474873668125543,0.4772705684729895,0.1691609932899052,0.7602339181286464,1
0.5160675760182085,0.7485094096599042,0.8378256216115216,0.5312149550547136,0.17166674829798712,0.7543859649122755,1
0.5430738828277077,0.7512237607781711,0.8308793755690225,0.45857325953221606,0.1704138707939471,0.754385964912272,1
0.5198955009883586,0.732783978399813,0.8512614086776702,0.5641076737702199,0.16540236077778359,0.7543859649122666,1
0.5433537130632594,0.7301928602483336,0.8530930607369114,0.6334396679710778,0.17166674829798723,0.7543859649122666,1
0.5435156497837541,0.7239867183248019,0.8308473585229575,0.5934908530378199,0.1691609932899057,0.7602339181286393,1
0.5777244537832735,0.7012540387856621,0.846511568914974,0.5600143884059293,0.17166674829798706,0.7602339181286428,1
0.6334047250867054,0.651199803522837,0.7647552023508443,0.5699056760625868,0.16916099328990597,0.7602339181286499,1
0.7764975242977656,0.5215511666795825,0.8268671719801861,0.5403986297450848,0.16916099328990614,0.7602339181286499,1
0.6793701419521307,0.44972030775454563,0.8603150084722193,0.533400763333011,0.1704138707939462,0.760233918128641,1
0.6136863212225274,0.4122508880342555,0.8495679620870267,0.6004450898842044,0.17166674829798712,0.7602339181286482,1
0.5936584559947563,0.39856267778634347,0.8968228052327594,0.5545270850356276,0.1716667482979874,0.7602339181286464,1
0.5850717323536465,0.41775825720267856,0.8833431489912867,0.5282818379724301,0.17166674829798823,0.7602339181286535,1
0.6552669949257968,0.41223181653973545,0.8629853841694928,0.6242393660717953,0.1729206053778708,0.7660818713450084,1
0.6460236727478743,0.4187878266215835,0.846015884626353,0.5512837583816347,0.17166674829798745,0.7660818713450226,1
0.6556763572155055,0.41596235991336783,0.8555629247515693,0.46617839188185267,0.17417348288191192,0.7660818713450084,1
0.6452311611776662,0.41596868622075184,0.8460619168012697,0.6245594659739568,0.17292060537787196,0.7660818713450261,1
0.6564655065840721,0.4194643882794199,0.8513892601113696,0.5824041026741436,0.17417348288191226,0.7602339181286499,1
0.6497254278399665,0.4163494397763715,0.8456999970999863,0.5737852496887131,0.1666552382818251,0.7602339181286482,1
0.6562579017473502,0.4159159732432669,0.851089077998425,0.5948806861185675,0.1729206053778714,0.7602339181286535,1
0.6499539953699021,0.4188055711755846,0.8460470580245834,0.5593266177985838,0.17166674829798723,0.7602339181286464,1
0.6534389427596521,0.41792119658969457,0.850738950134081,0.5423199280066239,0.1729206053778713,0.7543859649122702,1
0.6474789269617938,0.41685813350707057,0.8482699022647873,0.6124764379607074,0.17292060537787213,0.7543859649122702,1
0.6533023385008275,0.4158523370457001,0.8511035670774436,0.557727011896511,0.1729206053778718,0.7543859649122666,1
0.6548427390721396,0.41718424751570804,0.8474000128513199,0.542426163910628,0.17292060537787163,0.754385964912272,1
0.6596608416853553,0.4162103902262505,0.849966296108494,0.5997691152847482,0.17292060537787157,0.7602339181286428,1
0.6561174076212066,0.41610773537829177,0.8458252463008022,0.5792607362339974,0.17292060537787185,0.7602339181286535,1
0.6595234761819526,0.415585586965398,0.85017250285918,0.5393800174856116,0.1741734828819127,0.7602339181286517,1
0.6562290523028044,0.41612502940185825,0.846903903945776,0.5892159750705291,0.1729206053778713,0.7602339181286482,1
0.6594127472421543,0.41559803976942666,0.8499816198696026,0.5807956983228577,0.17166674829798728,0.7543859649122631,1
0.6563421231152369,0.416110431411328,0.8470498188344503,0.5488682090088968,0.17292060537787274,0.7543859649122844,1
0.6592945052099157,0.41561022981430534,0.8498532590450347,0.5601545407687548,0.17166674829798761,0.7543859649122933,1
0.6564719134576835,0.41610161065688606,0.8471671195870929,0.6026548717858397,0.17292060537787107,0.7543859649122577,1
0.6591367320933147,0.415615386427644,0.8497443498926427,0.5646166191764109,0.17041387079394626,0.7602339181286464,1
0.6567135529787713,0.41610047694452634,0.8472691644913437,0.5506165328634559,0.17417348288191198,0.7602339181286499,1
0.6583722779601675,0.41561169805921844,0.8496480947887297,0.58249056687801,0.17166674829798712,0.7602339181286428,1
0.6556314253669666,0.41611077114773853,0.8473604885885062,0.5688532096321041,0.17166674829798728,0.7602339181286482,1
0.6594577619744171,0.4155906535096445,0.8495609523251959,0.5287289410918251,0.1741734828819126,0.7543859649122684,1
0.6563858172052854,0.41615378711476003,0.8474441541305011,0.5785696710669003,0.17417348288191276,0.7543859649122755,1
0.6592328625176684,0.41548230319319485,0.849480046206223,0.5804803378488196,0.17166674829798745,0.7543859649122666,1
0.656520245614586,0.4169546393637481,0.847523103925397,0.5319248941844512,0.16916099328990597,0.7543859649122773,1
0.6591328587597225,0.41594992128475416,0.8494020446594932,0.5566097109834806,0.17166674829798656,0.7543859649122595,1
0.6566025800102017,0.4160242280165632,0.8476016036796885,0.59562991454215,0.16916099328990541,0.7543859649122666,1
0.6590612711657319,0.41726749687313713,0.84932063163465,0.5462437995583627,0.1704138707939471,0.7543859649122755,1
0.6566668646427967,0.41646388563159786,0.8476907432100181,0.5395285925796413,0.17041387079394665,0.754385964912272,1
0.6590023478851064,0.41558141161168444,0.8492116304772985,0.59067167352729,0.17041387079394626,0.7485380116958886,1
0.6567216264728297,0.4160900092452432,0.8468072608335746,0.5728703761548994,0.17041387079394582,0.7485380116958869,1
0.6589509517991818,0.4156375912556319,0.8483091361900597,0.5278758931092826,0.17041387079394688,0.7485380116959046,1
0.6567702144094294,0.4160740369168836,0.8474115480673524,0.5739415426814373,0.17166674829798728,0.7485380116958957,1
0.658904764196774,0.41564203560294183,0.8493448872582352,0.5957841726866382,0.16916099328990608,0.7543859649122631,1
0.6568143095148344,0.4160736389648932,0.8476942823974499,0.5455519791964839,0.17041387079394676,0.7543859649122702,1
0.658862524512751,0.4156415599140312,0.8492215298320107,0.5538419090285122,0.1603898711857767,0.7543859649122595,1
0.6568548774922647,0.4160725540400245,0.8477806275016738,0.5948229791869385,0.16916099328990536,0.7543859649122631,1
0.6588234878432206,0.4156479083280453,0.849150345263626,0.5537553335954514,0.16790811578586484,0.7543859649122684,1
0.6568924848737914,0.416051265009282,0.8478438819705654,0.5456830412322208,0.16790811578586523,0.754385964912272,1
0.6587872453096081,0.41573137816877354,0.8480337999407858,0.5818656788610672,0.1691609932899052,0.7543859649122648,1
0.6569273861445507,0.4171047696991219,0.8478991003957321,0.5488839591626101,0.16665523828182488,0.7543859649122684,1
0.6587537107214064,0.4154684616442501,0.8490390933267786,0.5479256717098372,0.1691609932899048,0.7602339181286464,1
0.6569594646749746,0.4162045808663993,0.8479498310228242,0.5912538223887118,0.16665523828182383,0.7602339181286357,1
0.6587232670784957,0.4165195266526848,0.8489904794521845,0.543657892627852,0.16790811578586556,0.7602339181286553,1
0.6569879620160497,0.41619591291004454,0.8479957526458417,0.5527489185169894,0.1679081157858643,0.7602339181286464,1
0.6586972345189412,0.41551461486366403,0.8489487503848544,0.6004577967526941,0.1666552382818246,0.7543859649122773,1
0.6570106704964722,0.41620823535896,0.8480298030709339,0.5478181995582516,0.16665523828182327,0.754385964912256,1
0.6586793040641274,0.4154977107318673,0.8489309366445901,0.5551380041488535,0.16665523828182344,0.7543859649122595,1
0.6570212558733526,0.41622868185822537,0.8480065881929617,0.603479927540437,0.1666552382818241,0.7543859649122666,1
0.6586809122403813,0.4154741690318016,0.8490976486872039,0.5490553932299427,0.16540236077778342,0.7485380116958957,1
0.6569973067658028,0.4162551681844466,0.8448758586658776,0.5464570919472206,0.16414850369789924,0.7485380116958957,1
0.6587522003725148,0.41544471241308767,0.8412138223027879,0.598564694147573,0.16540236077778336,0.748538011695894,1
0.6567960022091182,0.4162877457064162,0.8427759264603252,0.5736598589514024,0.16540236077778347,0.7485380116959064,1
0.6596774501598995,0.41540875741733074,0.8430810663514305,0.5355238419770891,0.16414850369789913,0.7543859649122684,1
0.6594148727084503,0.41632744034896074,0.8440695900942212,0.5848241305363885,0.16414850369789846,0.7543859649122648,1
0.6577887162489173,0.4153648414096515,0.8460779903150446,0.5858932717560786,0.16414850369789913,0.7543859649122808,1
0.6577526340509365,0.41737584417186585,0.8476852741725945,0.5399190384925007,0.16414850369789857,0.7543859649122631,1
0.6579014723899754,0.41531039307090317,0.8462347362978476,0.5595829848461937,0.16164274868981798,0.7485380116958957,1
0.6587482081372505,0.4164374478191604,0.8424145083365998,0.5902559115296045,0.16540236077778386,0.7485380116958975,1
0.658592036485969,0.41524082548236485,0.8468302744683711,0.543753896929865,0.162895626193858,0.7485380116958957,1
0.6573078183888913,0.4165175683080794,0.8462819033932515,0.5465691219691644,0.16289562619385806,0.7485380116959011,1
0.65850976911426,0.41614635167172376,0.8454988756095737,0.5973424528648459,0.16289562619385783,0.7397660818713394,1
0.6589143056406817,0.416631478521057,0.8426432913251256,0.562390669678171,0.16540236077778336,0.7397660818713341,1
0.6576491151444029,0.41500180483218935,0.8435326598510566,0.5320883483474992,0.15663025909781048,0.7397660818713305,1
0.6580908306176536,0.4168337779260765,0.8421036325783975,0.5884648598193783,0.16289562619385756,0.7397660818713323,1
0.6573937866522586,0.4146535602425412,0.8451383665566299,0.5884684422285174,0.16414850369789874,0.7485380116958851,1
0.6591068387235897,0.41811591822061106,0.8440339487225594,0.5361024153953318,0.1628956261938585,0.7485380116959082,1
0.6596115432955694,0.4160605805014434,0.8418361632044793,0.555793720044191,0.15663025909781048,0.7485380116958904,1
0.6583481278981181,0.4164355140241566,0.8407198399815328,0.5987905147523449,0.16038987118577652,0.7485380116958975,1
0.6609790354624322,0.41509737544274417,0.8422315274511321,0.5583680413841062,0.16164274868981776,0.7485380116959011,1
0.665399341017079,0.4178957522224399,0.8408758050129657,0.536389972217313,0.15788411617769504,0.7485380116958904,1
0.6671434791885733,0.41313504828615233,0.8394224117268703,0.5839907493771964,0.1616427486898176,0.7485380116958904,1
0.6609363288313812,0.4103780449547784,0.841035347982237,0.5863357246956223,0.16038987118577697,0.748538011695894,1
0.6586281507115191,0.4003494667801277,0.8419107292440122,0.5431031917994404,0.16038987118577608,0.7397660818713252,1
0.6572776115552578,0.40280947950986623,0.8484358858896404,0.5610640263271351,0.16164274868981748,0.7397660818713341,1
0.6354730688424511,0.40219833065763255,0.8613349313273255,0.588300940678523,0.16038987118577608,0.7397660818713359,1
0.5961204956169234,0.4003791445437596,0.8768046996916941,0.5610062971886295,0.16164274868981826,0.7397660818713447,1
0.5622483288095683,0.41735598148913156,0.9046598724805812,0.5610722058421691,0.1616427486898172,0.748538011695894,1
0.5094169601281875,0.44503203287293397,0.9607275091008798,0.5957675036332373,0.1616427486898176,0.748538011695894,1
0.5191500260362147,0.5418032706623144,0.9340815423881432,0.5517147630871535,0.16164274868981682,0.7485380116958993,1
0.6411614979085882,0.6605367747794066,0.7430222185997916,0.5380053079747983,0.16038987118577674,0.748538011695894,1
0.6631275512358992,0.7466514705606393,0.7267802904135675,0.5742528616024141,0.15913699368173595,0.7485380116958993,1
0.589630225780216,0.6744641100392934,0.8282290564846361,0.5684622699895766,0.15412450408972966,0.7485380116959011,1
0.6491329884991401,0.6898602364075743,0.8382817293168676,0.5791198852396953,0.15537738159377035,0.7485380116959082,1
0.685540948851682,0.6808309999822395,0.7813927016475908,0.6931680469784975,0.1541245040897296,0.7485380116958993,1
0.6838068255117309,0.68668324019341,0.7795140971593053,0.4512153575255971,0.15412450408972916,0.7485380116958975,1
0.7037871645486571,0.6773451516525585,0.7547271552461782,0.49875161110435073,0.15412450408972916,0.7485380116958993,1
0.728749423247403,0.6898316479577409,0.7358643498054265,0.5717865745435607,0.1541245040897295,0.7485380116959046,1
0.7169986618507969,0.6906062980477624,0.7403180117910266,0.4385758221318399,0.1553773815937698,0.7485380116958904,1
0.7242997122179331,0.6954292114580759,0.7421323678168269,0.6003207987467326,0.15537738159377062,0.7485380116959046,1
0.7210209277023447,0.6934653996167112,0.7372460592572643,0.6348778533529054,0.15537738159377013,0.7485380116959046,1
0.7231053612503793,0.692826799246772,0.7400672360149312,0.5669898678535231,0.1553773815937698,0.748538011695894,1
0.7188268339659836,0.6902869758911361,0.7415126001905968,0.5496856409450586,0.15537738159377013,0.7485380116958975,1
0.7232085457693831,0.6930883053316073,0.7421669558812783,0.5926575146859623,0.15537738159377013,0.7397660818713376,1
0.7206529633878005,0.6952421487685383,0.7388603902332207,0.5454633818696902,0.1566302590978107,0.7397660818713465,1
0.7204572198193864,0.6926120614409561,0.7412902292208418,0.5681303323307657,0.15537738159376974,0.7397660818713252,1
0.7185685477581776,0.6920217387478587,0.73839087544641,0.5944415169568102,0.15287162658568815,0.7397660818713252,1
0.722509996885391,0.6961106714608656,0.7395352128834716,0.5464530660590813,0.1541245040897291,0.7485380116958975,1
0.7224729606064053,0.6941147773478542,0.7374965320701082,0.5652081921167181,0.15537738159377068,0.7485380116958975,1
0.723692259704029,0.696700619937155,0.7393110214506933,0.5979909743626656,0.15537738159376963,0.7485380116959011,1
0.7218986617452334,0.6946504438999737,0.737617917353014,0.5460166181312605,0.1541245040897289,0.748538011695894,1
0.7222934889889032,0.6928224979175343,0.7392331098042413,0.5574874272264301,0.1516187490816483,0.7397660818713341,1
0.7231032578560219,0.6926505250715499,0.7376621248813564,0.5938933794984487,0.15537738159376957,0.7397660818713359,1
0.7217355827062382,0.6914440930337581,0.7409724962030385,0.5583674268740229,0.15161874908164763,0.7397660818713252,1
0.7210040876559383,0.6881891453291171,0.7414673553666759,0.5433930629722272,0.15537738159376968,0.7397660818713341,1
0.7235929324878343,0.6879502336851052,0.7438228812431641,0.5891906510493796,0.15412450408972905,0.7397660818713252,1
0.7202574886003275,0.6875341241495336,0.7449535414490294,0.5712035935577339,0.1553773815937699,0.7397660818713341,1
0.7172105069780446,0.6879354467134293,0.7467205828945208,0.5385248299117736,0.1553773815937705,0.7397660818713359,1
0.7165243135455264,0.6877484324277681,0.7449204984180708,0.5690768432555413,0.1528716265856882,0.739766081871327,1
0.7187503300187226,0.690395792194232,0.7454188965602297,0.5853062500223085,0.15287162658568942,0.7485380116958975,1
0.7172801747998878,0.6915074900321594,0.7397852570583866,0.5502446451322154,0.1503658715776071,0.7485380116958975,1
0.723413819028621,0.6934651657946801,0.7417813411396417,0.5644544707453023,0.15161874908164824,0.7485380116959082,1
0.7207923316805376,0.6949205643255758,0.7391897709743781,0.5811423530657025,0.14284664740167508,0.7485380116958975,1
0.7242561884472047,0.6936876743625093,0.7388534188269993,0.545764240290681,0.15161874908164802,0.7397660818713341,1
0.7219981374795783,0.6946120724388711,0.7380141831401856,0.5591748950193491,0.15161874908164796,0.7397660818713376,1
0.7237129599250745,0.6964127049054233,0.7388733034630095,0.5754851463257126,0.15161874908164746,0.7397660818713341,1
0.7226956830847251,0.6953814372696856,0.7379702311059645,0.5310029373891374,0.15036587157760667,0.7397660818713394,1
0.7213271209555217,0.6951303314517839,0.7394362426716793,0.5622778913079587,0.1491120144977221,0.7397660818713252,1
0.7180331181778519,0.6932211280777113,0.7360329111282209,0.5848916756502639,0.1528716265856893,0.7397660818713394,1
0.7150040172588044,0.6961177855173692,0.7451889910103839,0.5327864978055449,0.1453533819856005,0.7397660818713394,1
0.7102952066046397,0.6938674369761727,0.7464023949682368,0.5791265601954753,0.15161874908164835,0.7397660818713341,1
0.7136840707302619,0.6957595271683188,0.7480617830660921,0.5929165701835315,0.1503658715776075,0.736842105263154,1
0.7107201533083894,0.6943546406211429,0.7479099550297823,0.5792163497614028,0.1503658715776069,0.7368421052631522,1
0.7134460293047644,0.6949294030611821,0.7471003659407758,0.5679763866134859,0.1466062594896415,0.736842105263154,1
0.7108834619216131,0.6915730726149596,0.7468127210817175,0.5599793914520304,0.14911201449772238,0.7368421052631486,1
0.7133185976360998,0.6888709475913071,0.7496816673300344,0.5407382004746611,0.14785913699368197,0.7397660818713359,1
0.710995164960881,0.6869966433229793,0.7530139959121004,0.5528862424105558,0.1491120144977225,0.7397660818713341,1
0.713205560368148,0.6884545696969321,0.7504500632357016,0.6046507374139006,0.1491120144977221,0.7397660818713359,1
0.7111397291788759,0.687142812508799,0.7499924685418049,0.5563068715263739,0.14911201449772232,0.7397660818713341,1
0.7128783796051175,0.6900445543180207,0.7489213032856599,0.5520872751264323,0.14911201449772293,0.7368421052631557,1
0.706497570156064,0.6912776829544296,0.7518737168519444,0.5860929989871771,0.15036587157760728,0.7368421052631486,1
0.7073305493702322,0.6946491207179925,0.755815204054348,0.5770920226898953,0.14911201449772232,0.7368421052631469,1
0.7073859329444521,0.6958079989120479,0.7531264346821437,0.5409951289769086,0.1491120144977225,0.7368421052631415,1
0.7089719850320427,0.6950341551632169,0.7532772560979963,0.5835688399370657,0.14785913699368197,0.7397660818713341,1
0.7023320437806451,0.6952657100592895,0.7534254919160341,0.5720096741562537,0.14785913699368197,0.739766081871343,1
0.7095335949588587,0.6962842730287827,0.753378951586209,0.5381801769254676,0.1478591369936813,0.7397660818713305,1
0.7081178488370362,0.6945123745762535,0.7506620217229374,0.5799181123048565,0.14660625948964068,0.7397660818713252,1
0.708606266234596,0.6957979911607102,0.7527181960774469,0.5685101009389866,0.14785913699368197,0.7397660818713359,1
0.7021708371923121,0.6955433975463539,0.7549005064283012,0.526977777743235,0.1453533819856,0.739766081871327,1
0.7055913636290019,0.6960134110252373,0.7551881354677321,0.5884632769442928,0.1466062594896408,0.739766081871327,1
0.6999903747738048,0.6954759112536305,0.7543470599090404,0.5747706495267417,0.1466062594896409,0.7397660818713341,1
0.7057982426157738,0.6960674426415673,0.7555602127155051,0.5321896337344786,0.14660625948964146,0.7368421052631469,1
0.7032275763274448,0.6950518711957778,0.7565812199384936,0.585544691862829,0.14785913699368142,0.7368421052631469,1
0.6994768421053762,0.6940311632492164,0.7645379222392339,0.5882761689620606,0.14535338198560055,0.7368421052631451,1
0.6920803781140796,0.6886549264871958,0.764101144466054,0.5277596944968957,0.14535338198560055,0.7368421052631522,1
0.6929409661261154,0.6891482456514026,0.7684615391185994,0.5709917309316073,0.1428466474016754,0.7309941520467724,1
0.686569676364396,0.688116460211927,0.7716864016333406,0.5967175991413792,0.14660625948964112,0.7309941520467742,1
0.685783869924434,0.6879951875777062,0.7725281500483557,0.5557392215316002,0.1328226477935059,0.7309941520467813,1
0.6814000190477928,0.6879513731497691,0.7726087764215019,0.5430410982172662,0.1453533819856006,0.7309941520467778,1
0.6796770326294548,0.6901300297659416,0.7745697845271842,0.5996520669904414,0.14410050448155953,0.7309941520467689,1
0.6876173876225633,0.6888430502934638,0.7713646681282387,0.5615909091034927,0.14410050448155964,0.7309941520467635,1
0.691361902466354,0.6893006925075277,0.77067441811666,0.5412288801552044,0.14535338198560027,0.7309941520467742,1
0.6900762502880031,0.6918681006025158,0.7684638292110091,0.5874345221192757,0.14410050448155937,0.7309941520467689,1
0.6923848131542201,0.6908090142466214,0.7711224049900139,0.568799795856529,0.14660625948964168,0.7368421052631469,1
0.6892690193389013,0.6914880457650471,0.7692055698750659,0.5278166238895389,0.1453533819856015,0.7368421052631646,1
0.6914054884905327,0.6923639492061324,0.7698008841352874,0.5844832590255288,0.14535338198560016,0.7368421052631522,1
0.6895243574545173,0.693986759081148,0.7680966627453714,0.5743794558860179,0.14410050448155937,0.7368421052631469,1
0.6912071961078443,0.691555833582306,0.7686041654262712,0.5325131334077088,0.14660625948964184,0.7368421052631557,1
0.6898888493080855,0.6913841843370869,0.7677402053128382,0.5749353481022172,0.14410050448155903,0.7368421052631362,1
0.692552965455391,0.6963440013449543,0.7679466296091713,0.5928671492411646,0.1441005044815597,0.7368421052631451,1
0.6892770922349973,0.6918874987041468,0.7669831205393871,0.532224970092724,0.14535338198560088,0.736842105263154,1
0.6914359187588832,0.6903469232037085,0.7651036267821418,0.5672026190959879,0.14410050448155953,0.7368421052631327,1
0.6908038415029953,0.6907601206261135,0.7656243963136191,0.5969464484641573,0.14660625948964134,0.7368421052631557,1
0.6913772489471482,0.6881276474534548,0.7705440732148268,0.5451268781396835,0.14535338198560077,0.7368421052631593,1
0.6894013275567201,0.6874659352828486,0.767715759043107,0.5549464502876598,0.1453533819856,0.7368421052631415,1
0.6919445277449153,0.688058247516355,0.7708066437177166,0.6004489360547733,0.14410050448156014,0.7309941520467724,1
0.690696649365774,0.6874426477564085,0.7675259218625927,0.5564407762364671,0.14284664740167535,0.7309941520467849,1
0.6906118767222342,0.6881360086290766,0.7674525983879064,0.5476052370438897,0.14159376989763434,0.7309941520467813,1
0.690253157811992,0.6909398895225346,0.7673448982571514,0.5909219187505764,0.1428466474016752,0.7309941520467707,1
0.6903994474440788,0.6927260911939824,0.7687566036750462,0.5671005215171495,0.1415937698976345,0.7251461988304033,1
0.6908645704138736,0.6925878857076562,0.7704646353841416,0.5454265183356329,0.1428466474016749,0.7251461988304033,1
0.6875819294778438,0.6936167075273507,0.7730340548111524,0.5887730231828123,0.14284664740167585,0.7251461988303998,1
0.6860093021848265,0.6947368861609169,0.770759769209716,0.5534580661180023,0.14284664740167524,0.7251461988303891,1
0.6796235581697307,0.6943146029239219,0.7801564388292643,0.5490979545633274,0.14159376989763434,0.7251461988303944,1
0.6645151002955803,0.6930749754155137,0.789435490210243,0.5935243614528787,0.14410050448156014,0.725146198830414,1
0.6713718668196685,0.6929099970181842,0.787483927963623,0.5530726132627913,0.14284664740167524,0.7251461988303998,1
0.6665149727741011,0.6903982484548696,0.7870750205944417,0.5497774433393685,0.14284664740167563,0.7251461988304033,1
0.6706765362152491,0.6927133253430111,0.7845214167443284,0.6008178391259542,0.1415937698976345,0.7251461988304033,1
0.6668262520988787,0.6932874008961574,0.7834821410722852,0.5425859451485057,0.1403408923935937,0.7251461988303944,1
0.6744947749356518,0.6916088593871614,0.7819677033979027,0.5408225844682865,0.14159376989763456,0.7251461988304051,1
0.6691958223634924,0.6904195552525767,0.7864624567411531,0.6019795012547957,0.1390880148895532,0.7251461988304015,1
0.6591817692077424,0.6881218309296626,0.7977449391106775,0.5571296545508987,0.1428466474016753,0.7309941520467724,1
0.6567465948302225,0.6876214578899174,0.7973593143653543,0.5306313487578234,0.14034089239359404,0.7309941520467813,1
0.6587601142147145,0.6878983867032081,0.7981835191398452,0.597527064351342,0.1415937698976345,0.7309941520467724,1
0.6596529058713454,0.687595575248515,0.7965149770368538,0.5887849135729109,0.14159376989763417,0.7309941520467689,1
0.662698616898056,0.6879639789990075,0.7977472453311719,0.5426960777487068,0.14034089239359326,0.7251461988303891,1
0.6589467054689617,0.6874501358968815,0.7960126535650289,0.5571672192556333,0.14159376989763395,0.7251461988303927,1
0.6614945563511112,0.6887309974754793,0.7944579179621658,0.5961188323038068,0.13908801488955297,0.7251461988303944,1
0.6578731200027336,0.6895516652047103,0.7964867543164122,0.5578504834620232,0.14034089239359354,0.7251461988303891,1
0.6606486949695997,0.6891691079740236,0.7972787890687214,0.5398956286785767,0.1365822598814717,0.725146198830398,1
0.6587987422882668,0.6881344579445955,0.7958810307350191,0.578193592818047,0.141593769897634,0.725146198830382,1
0.6620274318165331,0.68991185364333,0.7943082306116365,0.5820772629980359,0.13908801488955258,0.7251461988303944,1
0.6570316585924987,0.6908357879675213,0.7949723492966457,0.5286696697515532,0.13908801488955252,0.7251461988303856,1
0.6602350787266177,0.6922573550856223,0.7950592880339493,0.5651003188504699,0.1390880148895528,0.7251461988303998,1
0.6590217748294367,0.6925073029390127,0.7954659150441845,0.5926802969739389,0.1378351373855124,0.7251461988303998,1
0.6589800235516431,0.6920829886241527,0.7963023534754758,0.5413735618101745,0.1378351373855125,0.7251461988303998,1
0.6570478659909884,0.6888044881394093,0.7977651512067717,0.5438967155802918,0.13783513738551162,0.725146198830382,1
0.6615173408687238,0.6895934753636606,0.7937444408219225,0.597960088599474,0.14034089239359382,0.7251461988303927,1
0.6564116667778321,0.687594269564149,0.7979021670768227,0.5519322045877428,0.13783513738551173,0.7251461988303944,1
0.6615508316842542,0.6879849122419783,0.7972978719625763,0.5422940042760652,0.137835137385512,0.7251461988303927,1
0.6635399000188842,0.6875381505876474,0.7981332253950681,0.5912271911909006,0.13532840280158742,0.725146198830398,1
0.6659011787339171,0.6879688150053401,0.7972266960868069,0.5674315239539119,0.13783513738551234,0.7251461988304033,1
0.6649657031057163,0.6875590796325127,0.7981910666096768,0.5392817493621429,0.13658225988147116,0.7251461988303998,1
0.6688378951333322,0.6879478089020177,0.797152088922242,0.5915770401901493,0.13658225988147144,0.7251461988304051,1
0.6623671209089572,0.6875808003775304,0.7983154155548147,0.5703359902763561,0.13783513738551212,0.7251461988303944,1
0.6654014050367052,0.6879235858758409,0.79682763914712,0.549070505376041,0.13783513738551273,0.7192982456140307,1
0.6615376864351358,0.6876104153814643,0.7946372589939116,0.5823512069637854,0.13658225988147116,0.7192982456140253,1
0.6638285363509704,0.6878831238717737,0.7955860861310092,0.5652952851184962,0.13658225988147127,0.7192982456140218,1
0.6621738551506633,0.6876750625564507,0.7932974966439998,0.5475049744786711,0.13658225988147182,0.7192982456140289,1
0.6639110565992978,0.6877445188274299,0.79364840783519,0.5897995917740833,0.1353284028015871,0.7192982456140236,1
0.6573692087975358,0.6888560229468579,0.7958903168261691,0.5465879561541993,0.13658225988147193,0.7192982456140324,1
0.6617940300718714,0.6905444441893511,0.7931740971664148,0.5585809904960082,0.13658225988147105,0.7192982456140218,1
0.6582371973564671,0.6915209299206689,0.7952401853685801,0.5852086327117085,0.13532840280158692,0.7192982456140395,1
0.6603742631678395,0.6893915991423334,0.7926341835886336,0.5406539729091174,0.1365822598814717,0.7134502923976527,1
0.6570678152777933,0.6894026840655606,0.7925318221831901,0.5594333968782967,0.13908801488955258,0.7134502923976402,1
0.6597086445191792,0.6911659287570222,0.7951598541220747,0.599378458656822,0.13783513738551195,0.713450292397642,1
0.6590244494015347,0.6912344177022195,0.793465084609051,0.5360068583729609,0.13658225988147138,0.7134502923976456,1
0.6586825993601431,0.6920506951132736,0.7939258916412744,0.5531491923169004,0.13532840280158842,0.7192982456140342,1
0.6575341816727784,0.6928697601956135,0.7944348461258928,0.5973854868044695,0.1390880148895528,0.7192982456140253,1
0.6610865830269225,0.6926752052349153,0.7953777628154989,0.5864690761842898,0.13783513738551323,0.7192982456140431,1
0.6584654345790857,0.69172836298625,0.7961385666844412,0.5408534363669448,0.137835137385512,0.7192982456140253,1
0.6620148582874573,0.6935101978059959,0.7930215824346218,0.5253956161765646,0.13658225988147155,0.713450292397658,1
0.6572192208705845,0.688313773256318,0.7939195936750265,0.594358864813956,0.13407552529754618,0.7134502923976491,1
0.6634623847068786,0.6898122529974358,0.7933625329107106,0.5921403136562957,0.13658225988147132,0.7134502923976385,1
0.6577840029736939,0.6878452172721811,0.7969794174162698,0.5507963673781447,0.13407552529754618,0.7134502923976473,1
0.6616204055485586,0.689662887437133,0.7969073994487932,0.5347907248007208,0.13658225988147205,0.7192982456140307,1
0.656359435914718,0.686834718496982,0.7957993716033809,0.5915839879188236,0.13156977028946493,0.719298245614036,1
0.6645639354708371,0.689617062529383,0.7935876352175617,0.5873738131376391,0.13031689278542363,0.7192982456140129,1
0.658235819875155,0.6911118101520493,0.7939196889614454,0.5516148881172533,0.1353284028015863,0.7192982456140111,1
0.6606507825405117,0.6898620794693564,0.7929643811237441,0.5411927307818655,0.1353284028015876,0.7192982456140289,1
0.6606751941971066,0.6920829492103602,0.7931348133101019,0.5887017331905059,0.1378351373855119,0.7192982456140182,1
0.6604257061901193,0.6937968654388108,0.7909192179990546,0.5759900580946228,0.1353284028015867,0.71929824561402,1
0.6581583276364998,0.6947693094886248,0.7914506822133254,0.5435032378629306,0.13658225988147193,0.7192982456140182,1
0.6608231342178404,0.6963013098279334,0.7902465140709731,0.5578282555690119,0.12655728069745814,0.7192982456140307,1
0.6599094406729983,0.695312029227708,0.7921311293745226,0.5920777082899421,0.1365822598814711,0.7192982456140218,1
0.6608347247678685,0.6961495145004974,0.7919293891281969,0.5451271990470284,0.13532840280158653,0.7192982456140129,1
0.6659104212465856,0.6953939916514446,0.7869590254847976,0.5387680230363562,0.13532840280158698,0.7192982456140129,1
0.6865077551156205,0.6960938333409186,0.7721412172094275,0.5880874699922325,0.1353284028015876,0.7134502923976491,1
0.6838285078933883,0.6954413927126146,0.7726271132148117,0.5681834348221833,0.13532840280158714,0.7134502923976545,1
0.6844070978418881,0.6959780430279918,0.7746647662658108,0.5255821329436792,0.13407552529754602,0.7134502923976456,1
0.691689810698297,0.6919483098896309,0.7573517459193492,0.5677529857282756,0.13407552529754657,0.7134502923976527,1
0.7461333463707416,0.6953299718167859,0.7433724908703732,0.574988262518402,0.1353284028015873,0.713450292397658,1
0.7141533643973428,0.6879320408726071,0.7591296419111717,0.5555846478511225,0.13407552529754596,0.7134502923976402,1
0.7375489610176573,0.6985433122906045,0.6152760345854961,0.6340681035526167,0.1340755252975458,0.7134502923976491,1
0.8318043657189893,0.6913160916433114,0.4515407845945337,0.756790837392584,0.13031689278542447,0.7134502923976456,1
0.8534182878969208,0.6269454526729072,0.21561267758321637,0.44637443650963576,0.12655728069745825,0.7134502923976456,1
0.9075013922169055,0.6566994634168238,0.49043243819247306,0.4445311545115161,0.12906401528138273,0.7134502923976385,1
0.6760897743083192,0.6993825486195163,0.7557922497189181,0.549605806764584,0.12154479110545158,0.7134502923976473,1
0.5332877277238031,0.7147274610031281,0.7967543278986704,0.6059474966475901,0.12781015820149966,0.713450292397642,1
0.6083648642940728,0.7538977579165436,0.8151380552395315,0.6240317260801641,0.1315697702894646,0.7134502923976509,1
0.5932102970597193,0.7465836097713404,0.8057889847315551,0.4044778203149689,0.12530440319341718,0.713450292397658,1
0.6069787706500451,0.7415095559577448,0.8087343222426469,0.41319429332464264,0.12405152568937683,0.7134502923976509,1
0.5910000513316995,0.7396104868069098,0.8096628859976427,0.7575170505986523,0.1328226477935055,0.7134502923976509,1
0.5716199830555979,0.7391707032972563,0.8223564488230466,0.6516507669463049,0.13282264779350567,0.7192982456140324,1
0.5849540183602486,0.7382401640848619,0.8060651543073433,0.4405859046555654,0.1303168927854242,0.7192982456140218,1
0.616212745687007,0.7425742068842593,0.7871087942902273,0.5613916827745092,0.13031689278542313,0.7192982456140165,1
0.6237547826149481,0.7420965292899673,0.7872816081446197,0.5797742122994101,0.13282264779350522,0.71929824561402,1
0.5844280174312109,0.7269628382181884,0.8270973687764016,0.570088797982576,0.13282264779350605,0.7134502923976598,1
0.5932155415408913,0.7273766151099625,0.8129600197909834,0.6243208946378545,0.13407552529754602,0.713450292397642,1
0.5979304530104133,0.7271970828089924,0.8176031099026981,0.5561278265207769,0.1315697702894652,0.7134502923976598,1
0.6047750639496077,0.7208971594533422,0.813287398286516,0.562865973197003,0.13282264779350578,0.7134502923976473,1
0.6056146214646771,0.719874193362539,0.8182296772156795,0.6061537180896408,0.1315697702894646,0.7134502923976509,1
0.6068525652306898,0.7231600746506321,0.8110544307299886,0.5451458069548861,0.1328226477935049,0.7134502923976509,1
0.6248781576950508,0.722925523656827,0.8054423067293563,0.5281855403493558,0.13407552529754602,0.7134502923976456,1
0.6289410550683627,0.7212697044039471,0.7915156101588542,0.6275800339807335,0.1315697702894646,0.713450292397642,1
0.6475624160490596,0.7178173059806042,0.7888397742801481,0.6072689634067983,0.12906401528138312,0.71929824561402,1
0.6375860471970294,0.7093478765342949,0.7938432271617406,0.6013288268214222,0.1265572806974587,0.7192982456140289,1
0.6240305412247726,0.7107973858800654,0.8153038273720339,0.5262671337000071,0.12906401528138334,0.7192982456140218,1
0.5977252760772724,0.7096041260335628,0.8206564155537013,0.4673131826563488,0.12906401528138356,0.7192982456140253,1
0.5864219384173914,0.701090725045376,0.8369476822239721,0.546764659792815,0.1315697702894646,0.7134502923976509,1
0.5776454279839257,0.6889393930821941,0.8504941597210061,0.6122961492563546,0.12906401528138256,0.7134502923976402,1
0.5796315735776183,0.6825861005557443,0.8559275933205261,0.6204393570034763,0.1303168927854233,0.7134502923976385,1
0.5908586159019344,0.6790331719876994,0.8442392989406932,0.5796011281659018,0.1303168927854237,0.713450292397642,1
0.6144255165529053,0.6797826084674902,0.8401999418516997,0.6099222042872668,0.12781015820149977,0.713450292397658,1
0.601195528189439,0.6817665194897932,0.8388632394003039,0.5726791063483782,0.13282264779350605,0.713450292397642,1
0.605442785252229,0.680939093196214,0.844625897219096,0.5159368718139542,0.12279864818533609,0.7134502923976598,1
0.6097590543121754,0.6763829762181248,0.8382148107794416,0.5074279246594676,0.1303168927854243,0.7134502923976509,1
0.6118892211136042,0.673460799591975,0.8439488260241974,0.4755927030754907,0.12906401528138312,0.7076023391812747,1
0.5953419998085583,0.6699873862827703,0.8481403105227652,0.5486489526388508,0.13156977028946454,0.7076023391812765,1
0.5948287833900536,0.6724884740575234,0.8521745069231969,0.582030230634175,0.13031689278542363,0.7076023391812711,1
0.5963457351049148,0.671537434285086,0.8402159110802758,0.5939602374091398,0.1290640152813829,0.7076023391812765,1
0.613365687165561,0.678982237461971,0.8351915910586452,0.6295295072561611,0.13031689278542435,0.7076023391812765,1
0.6301302939920369,0.680451209822936,0.8209017143194761,0.5677482527823573,0.12906401528138306,0.7076023391812694,1
0.6428200356050173,0.6839879128689937,0.8175754984575716,0.5783258929641033,0.1303168927854242,0.7076023391812765,1
0.642923743406272,0.6811468632351232,0.8128673695258175,0.5771594076441017,0.1303168927854237,0.7076023391812711,1
0.6563640970037781,0.6861602567274436,0.8073237467451722,0.5508222364546722,0.1303168927854239,0.7017543859648985,1
0.659950769452495,0.6851058740681834,0.8036719588475196,0.5124627780935319,0.13031689278542424,0.7017543859648967,1
0.5910684401784886,0.7156476419206899,0.8320079189148323,0.5910041966346525,0.12781015820149877,0.7017543859648949,1
0.5069707533711021,0.7042070484553417,0.8758316559189765,0.5477081244671308,0.12781015820149827,0.7017543859648914,1
0.5076312186784888,0.6737481132263299,0.889962085329843,0.536700936413388,0.12906401528138278,0.7076023391812782,1
0.5054040153377656,0.7031207373857306,0.8668155408099891,0.5887177273019112,0.12906401528138345,0.7076023391812818,1
0.5712621410475139,0.7078450184050689,0.8384485000548734,0.6615465641046665,0.13031689278542424,0.7076023391812818,1
0.7181449573608747,0.7026178535279707,0.7403357505930391,0.6217727467231802,0.125304403193417,0.7076023391812747,1
0.7307385075078829,0.7001339129175885,0.7092523568992533,0.5222573549584753,0.12154479110545113,0.692982456140335,1
0.7671669527226506,0.6905060765474278,0.708015758604892,0.4797892878879029,0.12405152568937677,0.6929824561403475,1
0.794271756549255,0.6835486119177995,0.633713583271639,0.45094467866816706,0.12405152568937661,0.6929824561403475,1
0.8209162179573282,0.69700388160223,0.584630062208019,0.5889244869385221,0.12530440319341773,0.6929824561403439,1
0.8214262399443593,0.6886904530157394,0.5852299294133388,0.6371350480770308,0.12530440319341757,0.7076023391812818,1
0.8171092450390007,0.691728571034703,0.5877687445132337,0.5935033811851177,0.12530440319341768,0.7076023391812765,1
0.8192854539497811,0.6890008158576414,0.5882477153845096,0.5452497597677904,0.12530440319341735,0.70760233918128,1
0.8127209159970112,0.697420355505351,0.5874152621960088,0.5959893630225207,0.1190390360973706,0.7076023391812747,1
0.8149367790177742,0.6940917465360721,0.5916172149559987,0.5318563585325403,0.12405152568937705,0.7076023391812765,1
0.8088291672974421,0.6973114750188576,0.5944093281679179,0.5534338504313501,0.12530440319341735,0.7076023391812694,1
0.8115578611935224,0.6942587536948777,0.5949207528642337,0.5710552987248602,0.12530440319341735,0.7076023391812818,1
0.807846377756023,0.6972745510803945,0.5939338681936661,0.548961164865948,0.12530440319341696,0.7076023391812658,1
0.8119267970996589,0.6940342378349771,0.595491621819813,0.5828846784952333,0.1253044031934174,0.7076023391812765,1
0.8079843512651621,0.6992504196152567,0.5928229579791956,0.5730633548642007,0.12781015820149888,0.7076023391812747,1
0.8077600500142337,0.6993885440514308,0.607520503632586,0.5379052022741588,0.11903903609736993,0.7076023391812676,1
0.7853968085138614,0.7065319775288283,0.6306799807876959,0.5920729318520742,0.12405152568937622,0.7076023391812676,1
0.7849227567264669,0.7160053075799255,0.6291850929924391,0.576814516499953,0.12405152568937683,0.707602339181264,1
0.7719563099617688,0.7279280099371881,0.6260905576580738,0.5461830419400064,0.12405152568937661,0.7076023391812694,1
0.7823946572035829,0.7284267806786671,0.622008989062904,0.5912059368376014,0.12530440319341768,0.7076023391812818,1
0.7729227788118118,0.7290110981436249,0.6211551981362564,0.5752294994774336,0.12405152568937727,0.7076023391812747,1
0.7894310481137092,0.7298123295378887,0.6109088336371402,0.5343253793621338,0.12405152568937616,0.7076023391812747,1
0.7710279346375215,0.7298482842560245,0.6121834297564815,0.5740595493071514,0.12405152568937677,0.7076023391812765,1
0.7878776709206698,0.7397042626105297,0.5943982882010332,0.5954768954633479,0.124051525689377,0.7076023391812747,1
0.7686868279217036,0.7443554350628325,0.5921002420449324,0.5528886534313644,0.12279864818533526,0.7076023391812676,1
0.7959707930069497,0.7417597902212412,0.5941472831772254,0.5720962480972523,0.12405152568937661,0.7076023391812676,1
0.765878843941534,0.7259459328728767,0.6114566520022201,0.58245789595802,0.12655728069745836,0.7076023391812747,1
0.8249057115435177,0.7247469739287657,0.6211346768892322,0.5477865519695413,0.12405152568937683,0.7076023391812765,1
0.6939312668814767,0.7432564479055286,0.7117371624838889,0.5686778160147389,0.12279864818533648,0.70760233918128,1
0.6103358329236002,0.695052761844983,0.7836466571531404,0.587140201417697,0.12154479110545074,0.7076023391812658,1
0.6700915327883363,0.7019806938463858,0.7939271723365269,0.5530496265780513,0.12530440319341757,0.7076023391812747,1
0.7044309161023126,0.7010389991609093,0.7536035310527683,0.5596636495826867,0.12279864818533565,0.7076023391812747,1
0.6950759610698768,0.6962919249649353,0.744999195020263,0.6697889397607242,0.12655728069745836,0.7076023391812694,1
0.7635773952954268,0.6914033311614793,0.7147799838321044,0.5980369480849909,0.12530440319341768,0.7134502923976598,1
0.6035173557546956,0.6817223557340422,0.8113241704481762,0.5382489322959215,0.1265572806974583,0.7134502923976509,1
0.4433267951470128,0.6688521195795905,0.9182590000760402,0.5786469880535177,0.12530440319341696,0.7134502923976491,1
0.5742081873230549,0.6565999746681942,0.8864216975897674,0.4909601802699534,0.1253044031934179,0.7134502923976491,1
0.5622944886969274,0.6582589792630882,0.8635578501245165,0.4804515337241729,0.1227986481853357,0.7076023391812889,1
0.6591045223533238,0.6676715692440244,0.8185353846163125,0.5003538192446604,0.12154479110545174,0.70760233918128,1
0.7128917540860269,0.6661090591562403,0.7642851426017485,0.6355902663042541,0.12279864818533576,0.7076023391812871,1
0.7883992147768684,0.693017941931852,0.6661387680505291,0.5777657832975445,0.11903903609736971,0.7076023391812818,1
0.768339965481577,0.7363109066286517,0.5201618877041168,0.5529384520618434,0.11778615859332942,0.70760233918128,1
0.8221554888732827,0.7352042788847497,0.4649910222950767,0.5653479388950919,0.11277366900132307,0.70760233918128,1
0.8657036710767745,0.6957010183406747,0.47287059205786713,0.5836735557318152,0.1140265465053632,0.7076023391812818,1
0.8308176476172,0.6782225617464555,0.5834722306539,0.5741421050915094,0.1127736690013228,0.7076023391812711,1
0.78805099857769,0.677312222326705,0.6405487506185983,0.5033473433747429,0.11402654650536298,0.7076023391812782,1
0.7757417854577877,0.6896287011281768,0.672940542515941,0.5713087947277206,0.11653328108928901,0.7076023391812818,1
0.7603041353165274,0.6775840293892389,0.6857173662710985,0.5458214119502528,0.11528040358524838,0.7076023391812747,1
0.7655185624860141,0.6741038758356561,0.7033730077769846,0.507852635655479,0.11903903609737038,0.7076023391812818,1
0.7775220587716987,0.6963717874598438,0.6945880310045008,0.6483477534757348,0.1177861585933292,0.7076023391812694,1
0.7452790045214042,0.7710829336858693,0.634895020192657,0.5821208566131365,0.1177861585933298,0.7076023391812907,1
0.6149737762704922,0.7251644516319622,0.7853265116948536,0.5485231576762146,0.11528040358524794,0.7076023391812818,1
0.6151352423210913,0.7261968128196629,0.8003987437752527,0.5915967725512603,0.12279864818533653,0.7076023391812782,1
0.606860497306944,0.737782442877917,0.8124095455840991,0.5644525173845386,0.12530440319341718,0.7017543859649074,1
0.5994955873835703,0.7274063897189961,0.8115615517491279,0.570923934407191,0.1253044031934175,0.7017543859649056,1
0.613555474053531,0.7238899666074492,0.8097437829883283,0.6210587180384839,0.127810158201499,0.7017543859648985,1
0.6013634868617026,0.7270896489868409,0.8181902565149827,0.5562218937709728,0.1290640152813835,0.7017543859649109,1
0.605667262569441,0.7272725132084397,0.8104923179385576,0.5559210303345955,0.12906401528138378,0.7017543859649003,1
0.5843883339692969,0.726369975805123,0.8193094248532058,0.4928134160468106,0.1290640152813834,0.7017543859649038,1
0.5954649726770692,0.7229091752805649,0.8265505750791842,0.48613695382400157,0.13031689278542347,0.7017543859648949,1
0.5736522518039942,0.7419874776728959,0.8215679202859416,0.6107694937230178,0.12906401528138267,0.7017543859648931,1
0.5339343075404943,0.7379785252179472,0.8261126402141685,0.6083538935855327,0.127810158201499,0.7076023391812782,1
0.5764248021496485,0.7301698843161657,0.8240905440403561,0.5924181065308641,0.12781015820149916,0.70760233918128,1
0.5705977314287634,0.7314266115609712,0.833258130345896,0.5432874484002576,0.12781015820149927,0.7076023391812871,1
0.5592183273096746,0.7239660058521739,0.8398769200177248,0.6286359395583796,0.12781015820149838,0.7076023391812676,1
0.5510273846347704,0.7200555983893104,0.8474393780109497,0.6791383002038112,0.129064015281383,0.7076023391812747,1
0.5579727598053477,0.7207076941430367,0.8386915724546333,0.4997690693589668,0.12781015820149894,0.7076023391812765,1
0.5686029296008221,0.7199719098086594,0.8422461524977649,0.4034622166284903,0.12781015820149838,0.7076023391812676,1
0.5694222671738564,0.7202728286201933,0.8324356307164895,0.540065654296889,0.1265572806974582,0.7076023391812836,1
0.5922242230069606,0.7290930867139565,0.8230475412269784,0.6207467189709613,0.12781015820149916,0.7017543859648967,1
0.5790294752890912,0.7224252673033569,0.8270927187810633,0.5645962247692247,0.1290640152813835,0.7017543859649056,1
0.5839237860830553,0.7150722508063035,0.8410578743035342,0.5812601307428333,0.12906401528138411,0.7017543859648985,1
0.5650949584170757,0.7104192138756222,0.8456404447081736,0.5801224070339388,0.12154479110545113,0.7017543859648967,1
0.5391012526633999,0.712367820882226,0.850018565055793,0.5624495340149405,0.12655728069745853,0.70760233918128,1
0.5705436807501487,0.714718106370099,0.8369002358916965,0.5456479385164416,0.1278101582014987,0.7076023391812676,1
0.5800050307967695,0.7202825398901483,0.8360634797171801,0.5675547319611299,0.12655728069745809,0.7076023391812871,1
0.5536387829009105,0.7048921066415915,0.8394267591635753,0.5862175205438862,0.12906401528138312,0.7076023391812711,1
0.5835354430304726,0.6947049837798139,0.8480353602111,0.5937191852065544,0.12781015820149894,0.7134502923976509,1
0.5988696169287593,0.6939908974338193,0.8397881253554421,0.5369634425872805,0.1303168927854242,0.7134502923976509,1
0.5919944206152442,0.6882914202608124,0.8412037629469455,0.5385537015273156,0.12781015820149888,0.713450292397642,1
0.6044491213807226,0.6927830243951991,0.8382893376909275,0.5733037207896146,0.1278101582014986,0.7134502923976402,1
0.5987496499426512,0.6909357343702031,0.8395922856410947,0.5551009303137946,0.12906401528138384,0.7076023391812676,1
0.605851679766872,0.6918108668176636,0.8377223002017402,0.5977667118376818,0.12781015820149855,0.7076023391812747,1
0.6009748673529656,0.6932496676080231,0.8397070170804362,0.5304156388433742,0.12781015820149882,0.7076023391812782,1
0.606276284199832,0.6919925468125603,0.839631910088835,0.5126776229626024,0.12405152568937655,0.7076023391812782,1
0.5984147848229038,0.6899418074478719,0.8398368563696313,0.5925184790124397,0.12781015820149855,0.713450292397658,1
0.6136303729424739,0.6927058186580242,0.8273092940289624,0.5749519149488244,0.120291913601411,0.7134502923976509,1
0.6163265450558298,0.6943802300654229,0.8238726848439386,0.5517609477806767,0.12655728069745764,0.7134502923976473,1
0.6157454073195838,0.6963224878397611,0.8222362618695302,0.5758013141589635,0.11903903609736949,0.7134502923976349,1
0.6235790914760317,0.6952964243571507,0.821306089260958,0.5914366326061594,0.12655728069745775,0.7076023391812747,1
0.6222923532936553,0.6961750005536995,0.821750526259416,0.5546628134148069,0.12655728069745853,0.70760233918128,1
0.6118775572694675,0.6953584961478289,0.823822676935178,0.5726651429654179,0.12655728069745786,0.7076023391812747,1
0.6164449444365524,0.6961383940504872,0.8227519340859444,0.5845274953386661,0.1278101582014987,0.7076023391812747,1
0.6126325277093922,0.6953842727230736,0.824656598701603,0.5402135106428084,0.12530440319341757,0.7017543859648931,1
0.6160752631797426,0.6961182727411808,0.8224417058972167,0.5674465220359292,0.12781015820149916,0.7017543859649109,1
0.6128727340917299,0.6954010000011496,0.8249565252930493,0.5608522392136195,0.11903903609736971,0.7017543859649003,1
0.6158958135707997,0.6961037965013471,0.821870182959255,0.5426684770057422,0.124051525689377,0.7017543859649003,1
0.6130179198687659,0.6954138726090876,0.8241807959145039,0.5891305232047244,0.12405152568937683,0.7076023391812765,1
0.615772412734511,0.6960921217497872,0.8220552537277082,0.5750772738891894,0.1227986481853357,0.7076023391812711,1
0.6131262492267598,0.6954246319155682,0.8240818501414358,0.5453353652421054,0.12530440319341746,0.7076023391812747,1
0.615675176148196,0.6960820552938303,0.8221224046947451,0.584807291907227,0.12405152568937705,0.7076023391812818,1
0.6132149332225671,0.6954342104436839,0.8240300174660984,0.5793575249283359,0.12405152568937683,0.7076023391812818,1
0.6155933239046285,0.6960727388923127,0.8221660795249495,0.539926528151533,0.12279864818533598,0.7076023391812694,1
0.613291177249611,0.6954435620200994,0.8239905303051567,0.5896758900235441,0.1253044031934175,0.70760233918128,1
0.6155217825450847,0.696062895891568,0.8222042167473114,0.5815249351787554,0.11653328108928868,0.7076023391812782,1
0.613358709132016,0.6954546922769169,0.8239509770273044,0.5423331151579371,0.12279864818533553,0.7017543859648914,1
0.6154577140552036,0.6960489109387678,0.8222489227365097,0.5707152419109118,0.12029191360141128,0.7017543859649056,1
0.613419755204465,0.6954750958874233,0.8238944251702371,0.5948965219033144,0.12154479110545169,0.7017543859649056,1
0.6153993265194289,0.6960120727758722,0.8223328752912296,0.5428670288641835,0.120291913601411,0.7017543859649056,1
0.6134757902842258,0.6955701494848235,0.8237310099351554,0.5594486051468944,0.12029191360140962,0.7017543859648914,1
0.6153453819381626,0.695207212936813,0.8230706994562648,0.5920429325149836,0.12530440319341768,0.7017543859648967,1
0.6135278721578603,0.6910906369428047,0.8244760435679095,0.5609438190773383,0.11528040358524755,0.7017543859649038,1
0.6152949617154426,0.6888786046409372,0.8253382417954891,0.5385390579424927,0.12154479110545219,0.7017543859649038,1
0.613576810737735,0.6871214102689993,0.8320129508506398,0.5907964580673477,0.12279864818533592,0.7017543859649038,1
0.6152473413619526,0.6883712378136739,0.8267421619805551,0.5747738733569454,0.12279864818533642,0.7017543859649056,1
0.613623263273803,0.6871355523942174,0.8291081858590956,0.5425321573184887,0.12154479110545152,0.7017543859649056,1
0.6152019162800498,0.6934196936732624,0.8250935038856462,0.5674740967915988,0.1202919136014104,0.7017543859648985,1
0.6136677937407387,0.694344557985807,0.8246283776859367,0.5841937956741636,0.11903903609737027,0.6929824561403422,1
0.6151581528941554,0.6952500295557452,0.8232100290442859,0.5382804881584512,0.12029191360141023,0.6929824561403262,1
0.6137109142983102,0.6958108717992202,0.823713482789183,0.5757132812796109,0.12029191360141012,0.6929824561403297,1
0.6151155522740215,0.6958040553302174,0.822371934602822,0.5701135674288489,0.12154479110545174,0.6929824561403439,1
0.6137531184048239,0.6956602349807761,0.8238473397419744,0.5427580143097965,0.12154479110545152,0.7017543859648985,1
0.6150736187774408,0.6958779795212635,0.8222928329714801,0.576108805906417,0.12279864818533626,0.7017543859649074,1
0.6137949117536143,0.6956170050377358,0.823928351265503,0.5683743591173562,0.12154479110545197,0.7017543859649003,1
0.6150318282573313,0.6959054729918424,0.8221543596317266,0.5303914465848224,0.1227986481853357,0.7017543859648949,1
0.6138368462436852,0.6955987297678916,0.8244712931747826,0.602529344686515,0.12405152568937677,0.7017543859648949,1
0.614989590443704,0.6959178569374859,0.8230521584890453,0.5514695841844574,0.12279864818533576,0.7017543859649003,1
0.6138795629829663,0.6955903594901516,0.8235710812248993,0.5557636700045857,0.1202919136014104,0.7017543859649003,1
0.6149461983981241,0.6959233491254304,0.8225169894193176,0.592523938332858,0.11778615859332969,0.7017543859648985,1
0.6139238531560145,0.6955870245446563,0.8236945235982276,0.5801422680116548,0.12029191360141067,0.7076023391812765,1
0.6149007536337535,0.6959249992030256,0.8224628139272587,0.5263163440768088,0.1190390360973701,0.7076023391812765,1
0.6139707519360446,0.6955867451760129,0.823723183188015,0.5682164001239174,0.12029191360141084,0.7076023391812836,1
0.6148520461923948,0.6959241149786223,0.8224466167696043,0.6021019569465544,0.11903903609737027,0.7076023391812782,1
0.6140216943243564,0.6955886635560748,0.8237322640739838,0.5818074370896963,0.12029191360141067,0.7076023391812711,1
0.6147983485312858,0.6959212301195776,0.8224420472457046,0.5384472410662056,0.1190390360973701,0.7076023391812694,1
0.6140787928135234,0.6955925027634424,0.8237337327043299,0.5507271126957967,0.12029191360141062,0.7076023391812711,1
0.614737034007951,0.6959163903484229,0.8224428692220509,0.5930727606860491,0.12154479110545119,0.7076023391812782,1
0.6141453731420424,0.6955984619335653,0.82373109070207,0.5774627222453285,0.11778615859332958,0.7017543859649198,1
0.6146638058221092,0.6959090868846557,0.8224470779607915,0.5459405421027751,0.12029191360140978,0.7017543859648949,1
0.6142271158341541,0.6956075127005905,0.8237254071160093,0.5536323233440695,0.11528040358524771,0.7017543859648985,1
0.6145709497957652,0.6958975461330782,0.8224542890591577,0.5883535952345513,0.11653328108928807,0.7017543859648985,1
0.6143348399617403,0.6956230255096301,0.8237164572478748,0.5706521319944798,0.11528040358524755,0.7017543859649038,1
0.6144426722169698,0.6958746873559252,0.82246539631854,0.5437802255118828,0.11903903609737004,0.7017543859648985,1
0.6144928330684508,0.6956627092892311,0.8237024678811464,0.5581266988299226,0.11653328108928812,0.7017543859649003,1
0.6142388254005087,0.6957788782498373,0.8224834710761901,0.5857346468848634,0.11778615859332964,0.7017543859649056,1
0.6147753253374881,0.6964309764363801,0.8236784091937137,0.5601148025212586,0.11778615859332903,0.7017543859648985,1
0.6137889016762859,0.6973370717984857,0.8225155665591941,0.5364558003889736,0.11778615859332875,0.7017543859648914,1
0.6160537011249492,0.6950755786351532,0.823651486346678,0.5669160374992672,0.11778615859332908,0.7017543859648967,1
0.6115165079236341,0.6950746194917894,0.8242957322965555,0.5909613887576454,0.11653328108928906,0.7017543859649074,1
0.6297826804283089,0.6947587619086064,0.8153403387946275,0.5619662591140816,0.11653328108928845,0.7017543859648985,1
0.6305118316894809,0.7019646471099206,0.8127190429898823,0.5744245613601023,0.11277366900132285,0.7017543859649056,1
0.6219970610576087,0.704612716349575,0.8188114381537579,0.6850566680347769,0.1152804035852466,0.7017543859648967,1
0.6110869200898515,0.7010131143634251,0.8237709097256647,0.6194779787715471,0.11152079149728183,0.7017543859649162,1
0.5901378316926793,0.693806132989352,0.8400150101101389,0.455144595150346,0.1115207914972815,0.690058479532146,1
0.5655751205712105,0.6892386394475998,0.8569492960187577,0.4726739158402106,0.11152079149728172,0.6900584795321549,1
0.536098329994535,0.6874555010539309,0.8723143352562892,0.5715741127602973,0.11026791399324132,0.6900584795321585,1
0.5404919642151512,0.6876793281692012,0.8678694335148422,0.5803553391297953,0.11026791399324054,0.690058479532146,1
0.5380993767890925,0.6890641495708473,0.8675338032226525,0.5456130528667279,0.11026791399324143,0.6929824561403457,1
0.544086122181247,0.6917553996581837,0.8648480736730165,0.5508037877638686,0.1115207914972825,0.6929824561403493,1
0.5474738426865728,0.6919418769217265,0.8660408603933389,0.6093463292488541,0.10901503648920036,0.6929824561403493,1
0.5494834655330614,0.6962893777780866,0.8647500903851888,0.4733312067720663,0.11152079149728128,0.6929824561403457,1
0.5476639558798795,0.6945005302159163,0.8660997377344617,0.5224572130817572,0.10901503648919963,0.6929824561403315,1
0.550556857094509,0.6957226726713497,0.8646924761881783,0.5810071058513359,0.11152079149728111,0.692982456140335,1
0.5481638526227777,0.6955305999076657,0.8661745290712788,0.5200989976578652,0.1077621589851595,0.6929824561403333,1
0.5503141278750456,0.6960270022852695,0.8645708821116183,0.5543065839345312,0.10901503648920047,0.6929824561403315,1
0.5483291711628153,0.6954701069110506,0.8653785062670339,0.6393440466422569,0.1077621589851595,0.6929824561403368,1
0.5501872253265243,0.6960457475141613,0.8633349462406289,0.558275097892588,0.10901503648920002,0.6929824561403457,1
0.548433253428892,0.6954801306739746,0.8648117151001596,0.5446325321645731,0.10901503648920052,0.6929824561403457,1
0.55009775285183,0.6957509008766001,0.8652575157950213,0.5965850723244721,0.1090150364892003,0.6929824561403457,1
0.5485133503335491,0.689502872231963,0.8657263344835385,0.5574363746989625,0.10901503648919975,0.692982456140335,1
0.5500230006101345,0.6876541817285708,0.865027419516568,0.5463102410823374,0.10901503648920013,0.6929824561403386,1
0.5485866574054914,0.6877180401739685,0.8658334482668473,0.6060535928248769,0.10776215898515967,0.6929824561403439,1
0.5499462046739978,0.6878382594479473,0.8649659963705255,0.5700073740928857,0.10525542440123503,0.6929824561403439,1
0.548675180299395,0.6876780702482033,0.8658727492118252,0.55708201150032,0.10776215898515978,0.6929824561403493,1
0.5498277330615124,0.6887961472820606,0.8649389617192871,0.6082691304302535,0.10776215898515923,0.6929824561403439,1
0.548881852897916,0.6880155480288417,0.8658926085827057,0.560144368272815,0.10274966939315278,0.6929824561403315,1
0.5490893257156655,0.6934378413185698,0.8649229005422194,0.5417937903453567,0.10776215898516,0.6929824561403368,1
0.5477954540499435,0.6951683472508804,0.8659084332431548,0.5989704067289028,0.10776215898515906,0.6929824561403475,1
0.5500933965284888,0.6960111188840152,0.8648997864087815,0.5572229385034854,0.1065083019052746,0.6929824561403386,1
0.5470889206387951,0.6955643061863891,0.8659714443169512,0.5601416124016775,0.10901503648919952,0.6929824561403262,1
0.5502549323528163,0.6958996902530095,0.8641829542571289,0.5896132437897931,0.10776215898515878,0.692982456140335,1
0.548418144545117,0.6956948749067975,0.8647676290389907,0.5353689552022987,0.10901503648920008,0.6929824561403368,1
0.5501054315378933,0.6952944444698983,0.8645454241281305,0.559704976290301,0.10776215898516017,0.6929824561403368,1
0.548521512284536,0.6944845676517573,0.8649630546834408,0.5996081273695312,0.1077621589851594,0.6929824561403457,1
0.5497890527174916,0.6947488788263899,0.864851452291239,0.5314827575744235,0.10525542440123431,0.6929824561403333,1
0.5456728586995043,0.6953619339405224,0.8659521725515843,0.5675352058720379,0.10525542440123409,0.6929824561403368,1
0.5454379293379052,0.6959869729828836,0.8648808329578583,0.6065649583117062,0.10776215898515973,0.6929824561403439,1
0.5418522122749958,0.6955772476728177,0.8659359435281995,0.5417994005605086,0.10650830190527488,0.6929824561403368,1
0.5414207669942854,0.6928730312263578,0.8648913195489814,0.5493621896790202,0.10650830190527455,0.6929824561403297,1
0.5475221259900747,0.6941258993217084,0.8659283771976711,0.6109851894563655,0.10650830190527533,0.6929824561403439,1
0.5491678530792885,0.6893197586824429,0.8648972491828867,0.579872908823257,0.10776215898515956,0.6929824561403439,1
0.5464943147371972,0.686884753399033,0.8659234279685047,0.5281044269512664,0.10776215898515923,0.6929824561403422,1
0.5494201286116027,0.6889981482838763,0.8649015827487491,0.5629972355784028,0.10525542440123442,0.6929824561403368,1
0.546087068167307,0.6895022587474579,0.8659194942757299,0.605614898582509,0.10650830190527505,0.7017543859649003,1
0.5404266472838641,0.6926145150636485,0.8649052506363479,0.5415759897698239,0.1040025468971933,0.7017543859648949,1
0.5433618262089608,0.695653545742942,0.865916005509025,0.5485662636454662,0.10650830190527527,0.7017543859649056,1
0.5414362594779891,0.6942144766610078,0.8649086182755767,0.5842326056921672,0.10525542440123425,0.7017543859648914,1
0.5390385995647906,0.6938186029395728,0.8659127189740694,0.5757405556716503,0.10650830190527588,0.6929824561403368,1
0.5387580047333849,0.6945861784597642,0.8649118521846805,0.5321446708143985,0.10400254689719368,0.6929824561403457,1
0.5420668359932492,0.6954941565026826,0.8659095167541938,0.5794932182333439,0.10525542440123431,0.6929824561403439,1
0.5462378752243999,0.695899055992357,0.8649150386952345,0.5805842793615376,0.10400254689719352,0.6929824561403333,1
0.5472358425122696,0.6956546784882619,0.8659063331987457,0.5371757744415564,0.10400254689719379,0.692982456140351,1
0.5448820841912753,0.6958033109528059,0.864918230031124,0.5613458621297034,0.10525542440123398,0.6929824561403457,1
0.5384267302719726,0.6947453095831391,0.865903124480923,0.5941825199460813,0.10525542440123409,0.6929824561403368,1
0.5392713672416098,0.6916840786596876,0.8649214652899553,0.5377871359119025,0.1040025468971934,0.6929824561403333,1
0.538882413250019,0.6876752658935892,0.8658998533768529,0.5567666182793656,0.102749669393153,0.6929824561403315,1
0.540388670561073,0.6893956664064971,0.864924782239576,0.5933159240880105,0.1065083019052751,0.6929824561403457,1
0.5415928759360289,0.687609002044287,0.8658964793122581,0.5698641077613479,0.10274966939315289,0.6929824561403475,1
0.5421481569454446,0.6881527218050454,0.8649282266131146,0.5421975525367821,0.10400254689719296,0.6929824561403368,1
0.5428616931045025,0.6872216486494529,0.8669510395911049,0.5753787341694441,0.10400254689719357,0.6900584795321585,1
0.5411900568417239,0.6896078090379476,0.8649318631887266,0.56334396657099,0.10400254689719379,0.6900584795321443,1
0.5391361885518633,0.6902710239281924,0.8658891811762377,0.5378437219234316,0.10274966939315328,0.6900584795321585,1
0.5407356685290869,0.6931921682636908,0.8649357939880014,0.5763363184494288,0.10274966939315294,0.6900584795321532,1
0.5388002194112045,0.6938315672909302,0.8658850443646224,0.5858219618551459,0.10650830190527488,0.6900584795321514,1
0.5400061718987815,0.6957514738167931,0.8649401946494255,0.551164110806672,0.10400254689719396,0.6900584795321638,1
0.5428428496484321,0.6944378141530214,0.8658802995013569,0.5875712127566668,0.10274966939315305,0.6900584795321407,1
0.5406758589688025,0.6962845826646178,0.8649453988012605,0.5529239727945015,0.10024391438507185,0.6900584795321549,1
0.546932915433143,0.6951745410244341,0.8658744651100352,0.5388465849486352,0.10274966939315305,0.6929824561403422,1
0.5485821328143154,0.696554839219792,0.8649521289636201,0.5869785439073922,0.10024391438507091,0.6929824561403333,1
0.5411980153917442,0.6920929036779974,0.8658664028113778,0.5600568489524784,0.10149679188911298,0.6929824561403368,1
0.5405245969042547,0.6947943439591122,0.8649622954166498,0.5316652286599116,0.10149679188911231,0.6929824561403439,1
0.5400777609619101,0.6958938498238378,0.8658526207030632,0.6037331674834634,0.10149679188911176,0.6929824561403439,1
0.5420284848421165,0.6948473820415471,0.864983129499781,0.5585620711392916,0.10400254689719357,0.6929824561403422,1
0.5375556534159103,0.6905175288907197,0.8658147178622833,0.5959082565142506,0.10149679188911209,0.6929824561403439,1
0.5412112150032002,0.6871636539702843,0.865088004250044,0.59193304046522,0.1014967918891127,0.6929824561403475,1
0.5397335961134693,0.6888624668020078,0.8669121787661801,0.5124375293408171,0.10274966939315344,0.6929824561403457,1
0.5391466067236295,0.6879406146106787,0.8648284981503491,0.5550971271776706,0.10274966939315244,0.6929824561403386,1
0.5377898870252327,0.6876907117373516,0.865939389866855,0.5896165444608527,0.10024391438507146,0.6929824561403333,1
0.5394191064467138,0.6879929385207935,0.864904131935539,0.5636001698489389,0.10149679188911176,0.6929824561403368,1
0.5391679560092211,0.6924642612233498,0.8659077009766906,0.5435684505200739,0.102749669393153,0.6929824561403333,1
0.5384493112422927,0.6937348237562291,0.8649224755351589,0.5627814482542698,0.10149679188911159,0.6929824561403368,1
0.5383030627731611,0.6943283453428342,0.8658952871806262,0.580976977282633,0.10274966939315311,0.6929824561403368,1
0.5385938191435373,0.6958477748254552,0.8649317037448646,0.5671414262850308,0.10149679188911248,0.6929824561403439,1
0.5382537482862613,0.6956630452638413,0.8658879870965623,0.5522971333460348,0.10149679188911154,0.6929824561403386,1
0.5386057163334013,0.6958147959826068,0.8649377324537328,0.5828316879469727,0.10274966939315233,0.6929824561403386,1
0.5382711437101164,0.6957787376339393,0.8658828559159355,0.5792496472601308,0.10274966939315261,0.6929824561403333,1
0.538536709906732,0.6950146601303933,0.8649421910333942,0.5282442388454673,0.10149679188911237,0.6929824561403422,1
0.5385702165924429,0.6952868368506993,0.8658789308345929,0.5543166749224004,0.10024391438507146,0.6900584795321532,1
0.5418019331902348,0.6960896167976918,0.8649456678950023,0.5970143965707803,0.10024391438507102,0.6900584795321514,1
0.5390034602910907,0.695251310421219,0.8658758539103258,0.5664549278331261,0.10024391438507124,0.690058479532146,1
0.5399800600800111,0.6940653162697679,0.864948364758164,0.5194081334787148,0.10149679188911198,0.6900584795321532,1
0.5379764870273019,0.6944772588834335,0.8658735421794082,0.5740503802138262,0.10024391438507141,0.6900584795321567,1
0.5388720073327534,0.6931224683420504,0.8649502608851724,0.59386191673434,0.10024391438507141,0.6900584795321567,1
0.537904560066182,0.6902505992088589,0.8658721218641556,0.5427615737158659,0.10024391438507185,0.6900584795321532,1
0.540226053019202,0.6873082752618787,0.864951106136794,0.5808977121636139,0.09899005730518651,0.6900584795321443,1
0.5396579186050338,0.6921220952372618,0.86587200693296,0.5915434217618797,0.10024391438507108,0.6929824561403262,1
0.5384814064177921,0.6965878438037648,0.8649502492569898,0.5347033634018855,0.09899005730518678,0.692982456140335,1
0.5382744970466836,0.695250874677642,0.8658742186961534,0.5575496621352128,0.10024391438507219,0.6929824561403457,1
0.5386217745577113,0.696127137271204,0.8649460509254713,0.5918993614446476,0.093978547289024,0.6929824561403333,1
0.5383878601788987,0.6954739879437501,0.8658815078549581,0.5544566230268322,0.09899005730518678,0.6929824561403368,1
0.5428569742497478,0.6959242992202028,0.864933571603852,0.5544613534865859,0.10024391438507202,0.6929824561403546,1
0.5411553566297236,0.6963252934511162,0.8659036945823533,0.5896690956694541,0.09773717980114616,0.6929824561403457,1
0.5412865385057581,0.696383243694417,0.8648898248673993,0.5491829028172825,0.10024391438507146,0.6929824561403457,1
0.5399079735667514,0.6952670816521817,0.8660144717746489,0.5453440335646127,0.09773717980114688,0.6929824561403564,1
0.5402328816144042,0.6970463213688897,0.8640500135331189,0.5905174491547194,0.10149679188911148,0.6929824561403386,1
0.5389807034971432,0.6956189737704399,0.865498851640002,0.5538287800505537,0.09397854728902355,0.6929824561403368,1
0.5403304661453963,0.6959306965338261,0.8651470132223712,0.540920909437226,0.10024391438507091,0.6929824561403262,1
0.538996633418638,0.6956042032579841,0.8657205772085521,0.5943993856468374,0.09899005730518728,0.692982456140351,1
0.5382868483422961,0.6958153068801349,0.8650847998609238,0.5595017762666902,0.09773717980114655,0.6929824561403386,1
0.5393397346245355,0.6946353781630527,0.865745194216601,0.5421001024198822,0.09899005730518651,0.692982456140351,1
0.5399768960563163,0.6951429495942044,0.8650764910307644,0.5902783964376602,0.09773717980114627,0.6929824561403262,1
0.538732072633756,0.6953063325715769,0.8657436785549635,0.5709031216075067,0.09899005730518695,0.6929824561403475,1
0.5393424668254223,0.696115875779911,0.8650857506233439,0.5409901698570346,0.09648430229710503,0.6929824561403368,1
0.5398142990813013,0.6954169181549168,0.8657266624519999,0.5835702338623581,0.10024391438507141,0.6929824561403386,1
0.5390885101091023,0.6961094391596324,0.8651122688198896,0.5725346609057599,0.09773717980114655,0.6929824561403493,1
0.5378651229750685,0.6953037674681198,0.8656864177608009,0.5471413024357766,0.09773717980114577,0.6929824561403368,1
0.5403740961255158,0.6970618492007299,0.8651755807282914,0.5828156531411515,0.09899005730518656,0.6929824561403315,1
0.5419947619641614,0.6976224316448029,0.8655768103091317,0.5695335113632153,0.09648430229710542,0.6929824561403368,1
0.5410813896668494,0.6957247718575339,0.8654085235645297,0.536992280089941,0.0989900573051875,0.6929824561403475,1
0.5401261597742775,0.6979095200894884,0.8646592058972395,0.5853116881402881,0.09899005730518712,0.6929824561403368,1
0.5411415840509384,0.6989720162154524,0.8634888637489508,0.5740437787589636,0.09773717980114593,0.6929824561403333,1
0.5391717033089531,0.6957354514042073,0.866281503408024,0.5328820626336289,0.09523142479306457,0.6929824561403315,1
0.5392925526467935,0.6968920364601883,0.8647267233118413,0.5841159490205585,0.09648430229710508,0.692982456140335,1
0.5402169481089911,0.6951107202757077,0.8660186770517249,0.5814460976137512,0.09523142479306446,0.692982456140335,1
0.5403021890342319,0.6962806467867544,0.864847075357814,0.5365257121264759,0.09773717980114632,0.6929824561403457,1
0.539759613079031,0.6952882550512467,0.8659486491277777,0.5761656221493747,0.09648430229710542,0.6929824561403439,1
0.5400551990085434,0.6961901155800594,0.8648932799840026,0.590296793702137,0.09648430229710553,0.6929824561403315,1
0.5385216891551582,0.6953420277217913,0.8659156352691784,0.5450201781208629,0.0964843022971062,0.6842105263157805,1
0.5407828364669176,0.696157349778959,0.8649182292103565,0.5534935975378895,0.0952314247930644,0.6842105263157752,1
0.5399302294166595,0.6953589363066704,0.865895965440783,0.5951377357299019,0.09648430229710542,0.684210526315777,1
0.5385452183441213,0.6961582055019038,0.8649342680693903,0.5641000672520785,0.09648430229710597,0.6842105263157805,1
0.5382803208816349,0.6953236796306783,0.8658825158337893,0.5435815342754233,0.09773717980114716,0.6929824561403457,1
0.5385887849580236,0.6963388684662731,0.8649458229874862,0.579405800841416,0.09523142479306473,0.6929824561403457,1
0.5382686813619901,0.6964007873910161,0.8658723701319858,0.5778593593471119,0.0977371798011461,0.6929824561403368,1
0.5385937867810826,0.6957952911124639,0.8649549145920703,0.5391849651501038,0.09648430229710536,0.6929824561403315,1
0.5382632078186014,0.6972493369130817,0.8658640598899416,0.571781720489881,0.09648430229710592,0.690058479532162,1
0.5386039655683676,0.697544636558403,0.8649626653274092,0.582434812857774,0.09773717980114655,0.6900584795321532,1
0.5382424225145741,0.6951893244729621,0.8658566747334887,0.5352812724165971,0.09523142479306435,0.6900584795321425,1
0.5386497850684839,0.6962163591541498,0.8649698704173352,0.5594479483277471,0.09523142479306496,0.690058479532146,1
0.5381151701054552,0.6953311185708901,0.8658494521638442,0.595656165439061,0.0939785472890245,0.690058479532162,1
0.5397030827919299,0.6961652045420352,0.8649773469054287,0.5418921561438368,0.09773717980114655,0.690058479532146,1
0.5388213067412388,0.695352210066332,0.8658414036391714,0.5531321794681843,0.09397854728902372,0.690058479532146,1
0.5381821491048997,0.6961593860291371,0.8649864464614261,0.5939004134551668,0.09523142479306473,0.6900584795321514,1
0.5392941188594049,0.6953472061472625,0.8658304461984099,0.5549105078886964,0.08646030268893629,0.6929824561403457,1
0.5400238461399078,0.6961750088326684,0.8650008019396763,0.5442994674965617,0.09397854728902344,0.6929824561403386,1
0.5420821368988287,0.6953173828838616,0.8658092326822282,0.5935333315840807,0.09397854728902433,0.6929824561403368,1
0.5399945362548572,0.6962303358052411,0.8650389099073434,0.5584109974963969,0.09523142479306479,0.6929824561403368,1
0.5417441475446333,0.6951962776893489,0.8657043108283982,0.5521561061415905,0.0927246902091392,0.6929824561403262,1
0.5388094959464398,0.6967390188219776,0.8628832606637526,0.5846823649420987,0.0927246902091397,0.6929824561403493,1
0.542875317469474,0.6960493151640954,0.8659640478698276,0.556069331666018,0.09523142479306496,0.6929824561403457,1
0.5410703111629256,0.6958678133708354,0.8649137849670501,0.5489330667938628,0.0927246902091392,0.6929824561403262,1
0.5388668513500302,0.6956787670692608,0.8658888870780178,0.5920003742986519,0.09397854728902438,0.6900584795321567,1
0.5389088110980652,0.6972256492519249,0.8649448885990614,0.5413585225907204,0.09523142479306473,0.6900584795321478,1
0.5379620606400723,0.6965780999839883,0.8658712375258439,0.5524960503591496,0.09397854728902405,0.6900584795321425,1
0.5389231599925233,0.6988385182219805,0.8649565011949085,0.594428913047881,0.09272469020913926,0.6900584795321532,1
0.5378240800017986,0.6964257613539064,0.8658629180669766,0.5445445118893868,0.0939785472890235,0.6900584795321638,1
0.5398152649229329,0.6957590325486223,0.8649627821839121,0.5557246460722458,0.09272469020913943,0.690058479532146,1
0.53872688738404,0.6956075889369031,0.8658580245858014,0.6004065170284436,0.09272469020913959,0.6900584795321478,1
0.5385721178330515,0.6959782089257783,0.8649666522643944,0.5444880994973041,0.0939785472890235,0.6900584795321514,1
0.5381018916713123,0.6954697576320567,0.865854968186532,0.5604255119911623,0.09147181270509919,0.6900584795321585,1
0.5434373631289509,0.6961435533957545,0.8649690109835635,0.5983128756088086,0.09523142479306479,0.6900584795321638,1
0.5391660955786424,0.6946320284524562,0.8658532568194782,0.5553102462761033,0.09272469020913965,0.6900584795321567,1
0.5401906923615205,0.6956923532329942,0.8649700698540022,0.5480256107106635,0.09147181270509874,0.6900584795321567,1
0.540767442634589,0.6956367946012376,0.8658529139674507,0.5966019883634326,0.0902189352010575,0.692982456140335,1
0.5389233320856692,0.6959316637295633,0.8649695574428538,0.5614948573061401,0.09147181270509874,0.6929824561403315,1
0.5399511192634472,0.6955480677014012,0.865854536733223,0.5478781020798809,0.08896605769701732,0.6929824561403386,1
0.5402983878177059,0.6959868516952661,0.8649663683435694,0.5856368804731434,0.09021893520105806,0.6929824561403457,1
0.5384772171384418,0.6955039571670538,0.8658601366065233,0.5646366578019565,0.090218935201058,0.6900584795321674,1
0.5385494435411151,0.6960297468026255,0.8649566690016995,0.5456177609033526,0.09147181270509852,0.6900584795321407,1
0.5397775972968999,0.6954529248917232,0.8658777541934632,0.590410621665147,0.09021893520105845,0.690058479532162,1
0.5383181094020709,0.6971074126306163,0.8649206210122135,0.5501544820167513,0.09147181270509874,0.690058479532146,1
0.5383444832037219,0.695276201923979,0.8659737007301487,0.5405626771644126,0.09147181270509891,0.6929824561403297,1
0.5393226625396301,0.6974007635674958,0.8642960963493576,0.592513210596455,0.0914718127050988,0.692982456140335,1
0.5391929802416324,0.6981450396648591,0.8650169823323528,0.5565673875272609,0.09147181270509896,0.6929824561403457,1
0.5391686988044124,0.6961465216407142,0.8642302557844537,0.5389119600722772,0.09021893520105834,0.692982456140351,1
0.539358760864993,0.6954891665418044,0.8659027432273623,0.6052848938190861,0.09147181270509863,0.6929824561403475,1
0.5392357895652153,0.6960118257230317,0.8649730467351215,0.5627039327021006,0.09147181270509891,0.6929824561403457,1
0.5386317332680081,0.6954959277679944,0.8658350089060256,0.5362977228196087,0.0914718127050988,0.6929824561403422,1
0.5379110367765607,0.6960230604601619,0.8649942175690939,0.5845443116829352,0.09021893520105734,0.6929824561403262,1
0.5422089169761318,0.6954795394630717,0.8658253208942228,0.591751084503821,0.09147181270509913,0.6929824561403457,1
0.541336844240442,0.6960423301066402,0.8650000245558801,0.5344665184850802,0.09147181270509858,0.6929824561403244,1
0.5393623708788254,0.6954571849548636,0.8658208628686485,0.5611341668752605,0.09021893520105795,0.6929824561403422,1
0.5415812140758196,0.6960692611597983,0.8650042976784085,0.5966805789016234,0.0914718127050993,0.6929824561403368,1
0.5421162728241646,0.6954223436595881,0.8658159814422679,0.5615377787006195,0.09021893520105773,0.6900584795321585,1
0.5391795542622898,0.6961203087224702,0.8650106470870357,0.5433823276023779,0.09272469020913982,0.690058479532162,1
0.538575653086566,0.695323823630157,0.8658068045211811,0.5844166143430087,0.08646030268893573,0.6900584795321532,1
0.5383208029229489,0.6970774515548088,0.8650254462729781,0.5743030282140967,0.08270069060096985,0.6900584795321549,1
0.538501907518999,0.6955050000694056,0.8657789457116767,0.539289405659951,0.08771318019297636,0.6900584795321567,1
0.5384063869563788,0.6962189220003753,0.8650969687591674,0.5701384603848546,0.09021893520105817,0.6900584795321585,1
0.5383503489443573,0.6983138012462072,0.8648105566050468,0.5833971267332643,0.08771318019297664,0.6900584795321532,1
0.5390635768976118,0.6960574495874643,0.864832758229124,0.5334813483091828,0.09021893520105778,0.690058479532162,1
0.5395620500785004,0.6957551394924661,0.8659130503143708,0.5544260768195455,0.09021893520105745,0.6929824561403386,1
0.5378113205746664,0.6997391880637411,0.8649322407730489,0.5964432446120891,0.09147181270509902,0.6929824561403422,1
0.5390508426918885,0.6977777317397336,0.8658809377698742,0.5511107198549375,0.09021893520105834,0.6929824561403386,1
0.5375837393574912,0.6955576725663657,0.864946839182789,0.541409263603719,0.09147181270509863,0.692982456140351,1
0.5406448724567757,0.6957777731659127,0.865873894074364,0.5957961437721987,0.09147181270509858,0.6900584795321532,1
0.5412715428287775,0.6958109178631472,0.8649496949751014,0.5659707732337945,0.08771318019297664,0.6900584795321638,1
0.537716478954899,0.695656595675985,0.8658737991104768,0.5382278177472115,0.09021893520105834,0.6900584795321532,1
0.5388340071591977,0.6958841145787265,0.8649476981664544,0.5826649010771563,0.08896605769701776,0.690058479532162,1
0.5381452326786806,0.6956062434944634,0.8658775774425904,0.5841518629182505,0.09021893520105723,0.690058479532139,1
0.5386619202394645,0.6959219579560323,0.8649422489005789,0.5390758682492294,0.08771318019297664,0.6900584795321638,1
0.5381954270957436,0.695575547025125,0.8658847168241834,0.5687494738094595,0.09021893520105823,0.6900584795321478,1
0.5397394334092147,0.6959498873888263,0.8649333038306559,0.5858084429363659,0.0889660576970171,0.690058479532162,1
0.5391361294596493,0.6955389048804828,0.865895656676313,0.5491826081830733,0.09021893520105789,0.6900584795321549,1
0.5399257432802163,0.6961216963852099,0.8649201478800094,0.561736901665079,0.09147181270509896,0.6900584795321532,1
0.5392082958552388,0.6977577718771345,0.8659111468497742,0.584135809143492,0.08896605769701743,0.6900584795321567,1
0.5396312090983613,0.6968424063834009,0.8649028284187545,0.5397213289763694,0.08896605769701721,0.690058479532146,1
0.5387132657606231,0.6972922802248616,0.8659267862690643,0.5682395341096999,0.0902189352010575,0.6900584795321514,1
0.53985425684409,0.70054044841493,0.8649118449082327,0.5795842549864917,0.0914718127050998,0.6900584795321478,1
0.5378260322511439,0.6975271970995564,0.8639999576621821,0.5329635046069753,0.08771318019297619,0.690058479532146,1
0.5410030880342711,0.7006623210326696,0.8644422803799972,0.5701528625144991,0.09021893520105739,0.6900584795321407,1
0.541978931944739,0.6996311880101547,0.8652614386526216,0.5918221713930484,0.08646030268893629,0.6900584795321549,1
0.5427840307140199,0.7008969102293255,0.8639882827364588,0.5331045696449831,0.090218935201058,0.6900584795321532,1
0.5391459088525573,0.7018756584743594,0.8657339720672206,0.5719105117846129,0.08896605769701732,0.6900584795321514,1
0.5416203117500876,0.696406994960217,0.8637188180136719,0.5962715903317245,0.08646030268893612,0.6900584795321674,1
0.5406678721273368,0.6955239054304387,0.8645046354992229,0.5444703075174117,0.08771318019297669,0.6900584795321425,1
0.5402294004454041,0.6959379324914051,0.8655347215821549,0.5525624716463869,0.0889660576970171,0.690058479532162,1
0.5394808589988693,0.6955808473388565,0.865451776750346,0.6021894505905575,0.0889660576970171,0.6900584795321549,1
0.5402137483527709,0.6959415021613281,0.8653526722811371,0.5606152606508495,0.08771318019297614,0.6900584795321585,1
0.541611221695532,0.6955223612493078,0.8649677320010677,0.5396672410211684,0.0877131801929758,0.690058479532146,1
0.5439420215420895,0.6963509551158404,0.8643672648669029,0.5821713865978578,0.08646030268893545,0.690058479532162,1
0.5449484554234509,0.6997330998603578,0.8640499217091957,0.5875589287509171,0.0889660576970171,0.6900584795321514,1
0.5419429255533679,0.6963979403118195,0.8642010021831855,0.5421352864069428,0.08771318019297702,0.6900584795321674,1
0.5433047276130891,0.7016268054945699,0.8637272355638913,0.5653248129482819,0.0889660576970176,0.690058479532146,1
0.5425091627042071,0.7035635347786141,0.862617201825586,0.5853032863649711,0.09021893520105817,0.6900584795321514,1
0.5426646635133681,0.7030046886970631,0.8639591383666544,0.548346517210979,0.08771318019297647,0.6900584795321478,1
0.5414169106180694,0.7032021827119643,0.8628026745232669,0.5495826010334875,0.08771318019297675,0.6900584795321514,1
0.5426343912501854,0.7037837869135501,0.8625685729910426,0.5927163726022834,0.08646030268893579,0.684210526315777,1
0.5399705121252363,0.7037254996445289,0.8636534372213565,0.5499514324778435,0.08896605769701771,0.6842105263157876,1
0.5403336920400417,0.7025096056480165,0.8658170110455745,0.5395169448532111,0.0877131801929763,0.684210526315777,1
0.5395849254203557,0.7019590130822286,0.8635284015611662,0.5931774869452136,0.0889660576970176,0.6842105263157876,1
0.5421719267340973,0.7012481793854043,0.8651805513857715,0.5707193297852182,0.0852064456090515,0.684210526315784,1
0.5375980006987265,0.6992187798509116,0.8651253013841055,0.527470250252256,0.08896605769701715,0.6842105263157734,1
0.5389673306882274,0.6950854615841084,0.8657702771071725,0.5835084055963078,0.08520644560905155,0.6842105263157752,1
0.5380099778963561,0.69627897056815,0.8650117547597943,0.5866267127876389,0.08646030268893506,0.684210526315761,1
0.5388196236546738,0.6952923128485219,0.865852285935778,0.5577581954672334,0.08646030268893634,0.6900584795321549,1
0.5383993923285546,0.6961653373223811,0.8649165961610215,0.6401048400816235,0.08646030268893584,0.690058479532146,1
0.533774017758216,0.6959988690250415,0.8659905165090904,0.7114778663417209,0.08520644560905172,0.6900584795321478,1
0.5317250323754509,0.7028255033566521,0.8646766013560081,0.38182678790611757,0.08520644560905127,0.6900584795321549,1
0.537329793240362,0.7036150417499629,0.8665349963671375,0.4102940978375026,0.08771318019297653,0.6842105263157805,1
0.5392067626957386,0.7041253251225478,0.8612604433575125,0.6587917164801022,0.08646030268893534,0.684210526315784,1
0.5394866743526036,0.7027780507296177,0.863097617761102,0.6485920425664751,0.08520644560905138,0.684210526315777,1
0.536903865081659,0.7006811629601847,0.8661483794447884,0.545072676653622,0.07768820100896334,0.684210526315784,1
0.5285447963870118,0.6972116531512225,0.8663241858750492,0.45961436173530984,0.08646030268893629,0.684210526315777,1
0.5390047494091463,0.700743427681355,0.8631002295885897,0.5131948412777696,0.08395356810501037,0.6842105263157823,1
0.5718325497750589,0.7043239044110013,0.8467238961826942,0.5696439626591476,0.08646030268893573,0.6842105263157734,1
0.6128619522022798,0.7033239229143362,0.8185287577883956,0.6391341467798667,0.08520644560905127,0.6842105263157823,1
0.6502399085491826,0.7044023945227096,0.8016648614224726,0.5748021891385604,0.08395356810501098,0.6900584795321638,1
0.587376677020184,0.6993651463721154,0.8361297293990562,0.49354547625647605,0.0852064456090516,0.690058479532162,1
0.5349456014501504,0.6949039290963743,0.867642858548016,0.5783160925196973,0.08520644560905144,0.6900584795321638,1
0.5516669327549908,0.6963129101501002,0.8598194589316541,0.6046467463061099,0.08646030268893584,0.6900584795321425,1
0.5466065934674642,0.6952974338950142,0.8581823115863647,0.5376063454151003,0.08019493559288876,0.6900584795321514,1
0.5552061393466432,0.6961739109791323,0.8556604165309338,0.6812428973298653,0.0864603026889364,0.6900584795321691,1
0.5491623825845213,0.69534866019646,0.8620837399739394,0.6187751677192556,0.08646030268893573,0.6900584795321532,1
0.5225423788932937,0.6961781351479766,0.8722825785588427,0.3823155292941065,0.0852064456090515,0.690058479532162,1
0.5215813707065494,0.695267360437001,0.8745718113997115,0.5703248778899667,0.0852064456090511,0.6842105263157734,1
0.5272763569719443,0.6965921612552548,0.8724917228273186,0.6207834117856024,0.08520644560905188,0.6842105263157929,1
0.5358664309892265,0.6981542971949682,0.8673619125673727,0.5509212234642802,0.0864603026889359,0.6842105263157823,1
0.5376079340746108,0.7032969644628112,0.8647589312470794,0.5997672842778244,0.08646030268893551,0.684210526315777,1
0.5386993153408784,0.7028434591771785,0.865936119429599,0.592053934441869,0.0852064456090515,0.6900584795321478,1
0.5390942460225985,0.7036253371524567,0.8649179004975022,0.5133161195643265,0.0801949355928887,0.6900584795321532,1
0.5394641841390253,0.7037964268826014,0.8659296315223581,0.5845396884218425,0.08520644560905138,0.6900584795321585,1
0.5375635512102686,0.7037027911900345,0.8645585480362725,0.593004791934456,0.08520644560905077,0.6900584795321478,1
0.5392462164778546,0.7038971574187459,0.8642964398820516,0.5395006041676558,0.08395356810501042,0.6842105263157823,1
0.5385128361357503,0.7028189956663351,0.8647694352721871,0.5670273392821187,0.08270069060096985,0.6842105263157823,1
0.5392848851431395,0.6989945712342382,0.8658108620344147,0.597380488875713,0.0789420580888478,0.6842105263157805,1
0.5358652361219443,0.6957291124003535,0.8650697228625628,0.5363431659640697,0.08395356810501053,0.6842105263157894,1
0.5505113950763842,0.6962347451381365,0.8632151548687835,0.5785530974024965,0.08270069060097046,0.690058479532162,1
0.530251793200861,0.6914195419779,0.8701086752182038,0.6206323780834774,0.08395356810501037,0.6900584795321567,1
0.4959452365417495,0.6857122270043401,0.8891521301088414,0.6717905824065168,0.0852064456090511,0.6900584795321478,1
0.4887065312661828,0.6893703497694876,0.8926716536818208,0.4980986676319037,0.0852064456090511,0.6900584795321514,1
0.48795609687669206,0.6927609930844012,0.8892546683593836,0.4105104325378959,0.08771318019297669,0.6842105263157805,1
0.48896285153731917,0.6951900552164973,0.8879562458118805,0.597336912793763,0.09021893520105823,0.6842105263157929,1
0.49008636985973497,0.6957031539202633,0.8842025099725616,0.5758887559962764,0.09021893520105817,0.6842105263157876,1
0.4991366972578788,0.6956558257916043,0.8837571514535425,0.5709657470784121,0.09021893520105778,0.684210526315784,1
0.5017984182709798,0.6998912219292878,0.8782239683450239,0.5862814483613853,0.08646030268893612,0.6900584795321638,1
0.5176509126295111,0.7045710343990111,0.8736334794275938,0.5507785722835644,0.08646030268893562,0.6900584795321514,1
0.5154213850211462,0.7031359046043363,0.8741551612852017,0.5580509182680136,0.085206445609051,0.690058479532146,1
0.5204178311279806,0.7042837740696014,0.8683216226218914,0.5668175201978658,0.08646030268893612,0.6900584795321656,1
0.5323508404662864,0.7032699824372346,0.8648450583844788,0.525556371089347,0.08395356810501076,0.6900584795321567,1
0.5371147237322953,0.7042044797873013,0.8643799011403441,0.539985609940531,0.08646030268893584,0.6900584795321532,1
0.5337018450435116,0.7033238293354199,0.8659421354822587,0.6214923676875502,0.0852064456090516,0.6900584795321532,1
0.5401227518467857,0.7041644293130915,0.8649180530530085,0.5556135665139794,0.08646030268893651,0.6900584795321709,1
0.5361040919465869,0.7033556775863153,0.8659084980058747,0.5413534944300976,0.08771318019297636,0.6842105263157716,1
0.5389548668282771,0.7041377163289955,0.8648975066468225,0.5942821328401418,0.08646030268893606,0.6842105263157823,1
0.5377833386458335,0.7033791159485387,0.8659536555626763,0.5710319794304176,0.0852064456090515,0.684210526315784,1
0.5390612033327036,0.7041163256259937,0.8648218198746948,0.5371385896811347,0.08520644560905172,0.684210526315784,1
0.5378301059892492,0.7033993282516615,0.8650480892505037,0.5944780307804179,0.08646030268893512,0.6783625730994025,1
0.5389995457753596,0.7040966378138842,0.8639234616805908,0.5689161516206837,0.08395356810501092,0.6783625730994007,1
0.5378882897935082,0.7034190033355798,0.8656965821571432,0.547034181184253,0.08520644560905144,0.6783625730994114,1
0.5389486103703691,0.7040765777649941,0.8640135665688894,0.5868701689287562,0.0852064456090515,0.678362573099415,1
0.5379311932056445,0.7034397155210315,0.865696546738618,0.5601651243579258,0.08646030268893534,0.678362573099399,1
0.5389139901492843,0.7040551631937741,0.8650086606947166,0.5514453402429297,0.08520644560905133,0.6783625730994132,1
0.5379570289108266,0.7034614313389798,0.8658631307354308,0.5887191040155937,0.08646030268893579,0.6783625730993919,1
0.5388981743065535,0.7040346020870146,0.8649531485405111,0.5288372079227788,0.0864603026889364,0.6783625730994114,1
0.5379601797595619,0.7034766752169987,0.8656637559342764,0.5690780892008834,0.08520644560905133,0.6929824561403368,1
0.5389131733951573,0.7040366839878146,0.8636544840877389,0.5883653242892863,0.08395356810501109,0.6929824561403599,1
0.5379150753778255,0.7034176895278486,0.8655334209372769,0.5322106460829188,0.08270069060096957,0.6929824561403315,1
0.5390172239336289,0.7043276470691303,0.8641859416776876,0.5809088780640183,0.08395356810501037,0.6929824561403368,1
0.5376968969272011,0.6974518021359503,0.8681703296029027,0.596390944462778,0.08395356810501059,0.6842105263157805,1
0.5480250862365579,0.6780933245011116,0.8649910457153787,0.5277672405650944,0.08646030268893579,0.684210526315784,1
0.5655627340968805,0.6697989433942038,0.866890729284018,0.5756999911801179,0.08144781309692917,0.6842105263157805,1
0.5885118722634022,0.6581467462345373,0.8584041191733509,0.5978315775096974,0.08395356810501081,0.6842105263157752,1
0.6045130460750218,0.6559600962429666,0.8534556899139044,0.5344850741954894,0.0827006906009694,0.684210526315777,1
0.5983388076678714,0.6487001953384728,0.855421663276102,0.5214690735879985,0.08395356810501109,0.6842105263157823,1
0.6051972674254698,0.6485224331180435,0.856108588230952,0.605374875279267,0.08520644560905105,0.6842105263157716,1
0.6136506683181888,0.6550534962053319,0.8491976249701829,0.575994849387567,0.08395356810501092,0.6842105263157858,1
0.6075290755136149,0.6542382460105294,0.8478832520773416,0.5614684256242358,0.08395356810501081,0.6842105263157716,1
0.6171039714281159,0.6606954195808303,0.846885979620045,0.5825080549534153,0.08144781309692894,0.6842105263157805,1
0.6272224216992978,0.6553700218116157,0.8379980255842661,0.5919521611702807,0.08520644560905116,0.6842105263157876,1
0.6236735337047363,0.6554501616008517,0.8456343773243158,0.5447359419424181,0.08144781309692939,0.6842105263157752,1
0.6488243247713371,0.6312917418952267,0.8322410520787862,0.5672170620003576,0.0852064456090511,0.6842105263157752,1
0.6670668366107566,0.6146049531066213,0.8228613371727007,0.5768032392963305,0.08646030268893606,0.6842105263157947,1
0.7326359894791612,0.6133628612507929,0.7741018799426824,0.5721027564185853,0.08646030268893612,0.684210526315784,1
0.763906539212478,0.6170320751435736,0.7421083604741844,0.6286209191899771,0.08646030268893506,0.6842105263157716,1
0.753936448471451,0.6255479127601642,0.7455470703260411,0.7103768204926065,0.08771318019297614,0.6900584795321425,1
0.7564689457607898,0.6331750923445603,0.739957211950305,0.4845940381249562,0.08896605769701715,0.6900584795321567,1
0.7578288584901187,0.6304621384929092,0.7387171385315463,0.2966218820926339,0.08771318019297697,0.6900584795321638,1
0.758199184046034,0.6331094657947948,0.7377129357792078,0.6233670496005335,0.08896605769701788,0.6900584795321656,1
0.7527376042783596,0.6308133638074824,0.7406353192854498,0.5747922851787594,0.08646030268893562,0.684210526315784,1
0.7546717698730994,0.6330833180380845,0.7401408175010749,0.5511584970318154,0.0877131801929763,0.6842105263157894,1
0.7535728412751541,0.634308336376161,0.7379684087849239,0.5972469008813714,0.0852064456090516,0.6842105263157858,1
