wrist_ACC_1,wrist_ACC_2,wrist_ACC_3,wrist_BVP_1,wrist_EDA_1,wrist_TEMP_1,label
0.5496833700216347,0.3238631206301868,0.232044560818208,0.5106257349019672,0.5914947984231362,0.7708333333333321,1
0.549731024363396,0.3232633777502169,0.23410693377729958,0.5268796475583807,0.5914947984231353,0.7708333333332895,1
0.5495459684948604,0.32305167119593897,0.23225855627804137,0.5109699700649345,0.5897016343009868,0.7708333333333108,1
0.5483157162985379,0.3230403877856677,0.23084924133938206,0.49468525089154086,0.5932865616358132,0.7708333333333073,1
0.5477387598531428,0.3223756683276291,0.2277452136492179,0.49677783542397397,0.5879098710883113,0.7708333333333286,1
0.546052697606194,0.3231759043436916,0.22917847409289793,0.525959880783181,0.5861181078756333,0.7708333333333108,1
0.5462792814443544,0.3222978186046594,0.22796278393355146,0.5091722487180749,0.5861181078756321,0.7708333333333002,1
0.5470102936498465,0.3232395826517566,0.231381831489059,0.48677925222231727,0.586118107875632,0.7812499999999858,1
0.5502874043794678,0.3222179371659727,0.23359701240309422,0.5132362261418297,0.5861181078756321,0.7812499999999787,1
0.5522566453820547,0.3234772831659237,0.2339393817407583,0.5305935928097768,0.580741417328129,0.7812499999999751,1
0.5550735072873411,0.3223988800326678,0.23623180292861712,0.5134111973911091,0.5807414173281295,0.7812499999999716,1
0.5559800568641636,0.3238073101814169,0.23620704278888266,0.518550993328835,0.5807414173281287,0.781249999999968,1
0.555470385059557,0.3216874170993912,0.23555581111835905,0.5285897172929707,0.5807414173281297,0.7812499999999822,1
0.5551185853241766,0.3233555903673244,0.23646786436600298,0.5259722937901766,0.5789496541154516,0.7812499999999964,1
0.5551717365015533,0.3227550487930871,0.23554402227454257,0.5144031088677492,0.5771578909027736,0.7812499999999751,1
0.5554017014502283,0.3229254691765809,0.23512903031472238,0.515703722860867,0.575364726780626,0.7812499999999858,1
0.55297606068258,0.32253022565272976,0.23525205192220505,0.5296037170464978,0.5771578909027725,0.7812499999999538,1
0.5521762457598407,0.32304746418026264,0.2356132230360647,0.5122952165757262,0.5753647267806261,0.7812500000000071,1
0.552156345033694,0.32366876116338816,0.23433008650770748,0.49776279952119307,0.5717812003552706,0.7812499999999822,1
0.5519970501373654,0.3243346059451523,0.2354940112571609,0.5199445725344628,0.5717812003552701,0.7812499999999822,1
0.5522225872288994,0.3229935770641352,0.23258110439433294,0.5301671064961099,0.5699894371425932,0.7812499999999787,1
0.5523758041464006,0.32292518085327254,0.23584668567275147,0.504605951798684,0.5717812003552699,0.7812499999999609,1
0.5538525923339794,0.32258791900652417,0.23396301173672562,0.5108958491058594,0.5699894371425918,0.7812499999999645,1
0.5524563291352946,0.32288620809843943,0.23561529734692588,0.5317851821882466,0.5681962730204445,0.7812499999999645,1
0.5536062967239006,0.32266219068543045,0.2329548921596652,0.5179849635558297,0.5681962730204444,0.7812499999999716,1
0.5519213674025855,0.3227933379646924,0.23693119452302946,0.4956002481303295,0.5664045098077679,0.7812500000000036,1
0.5547605394781775,0.3227719861162519,0.23106442174207104,0.5232751712443442,0.5646127465950886,0.7812499999999751,1
0.5498432070038094,0.3225034680276701,0.24030536922256657,0.5307838641661321,0.5610278192602638,0.7916666666666714,1
0.5366071639560711,0.31528077261003323,0.22824414625926126,0.5091802870453056,0.5646127465950894,0.7916666666666501,1
0.5076758348571896,0.2849212738333936,0.1990010018227723,0.4928593518581672,0.5592360560475861,0.7916666666666643,1
0.5094994972693657,0.28172210824797184,0.21354994067122074,0.5269130531325426,0.5646127465950899,0.791666666666675,1
0.5007826762485398,0.28186410633718584,0.20904146094667503,0.534386534726811,0.5610278192602637,0.7812499999999858,1
0.5141337744728371,0.2781135052133096,0.22092213114285714,0.5236861734341517,0.5628209833824107,0.7812499999999751,1
0.5190997509644847,0.28744841338729676,0.21533732116673815,0.49342051985339386,0.5610278192602633,0.7812499999999964,1
0.5166178984078509,0.2810754769384739,0.22222419923623232,0.5087615676997952,0.5556525296222306,0.7812499999999751,1
0.5208992994194229,0.284093129677848,0.22152096070342014,0.5060143748351073,0.5556525296222307,0.7916666666666323,1
0.5193939503284394,0.2777375285666139,0.22098012730867572,0.4968939517375075,0.5520676022874046,0.7916666666666501,1
0.5188153180838407,0.27834004898777875,0.22299085935418578,0.45269534251146437,0.5502758390747275,0.7916666666666572,1
0.5173956850735912,0.27772160506467247,0.21804147342541536,0.5158504536538562,0.5448991485272241,0.7916666666666501,1
0.5171624499384976,0.2806226586435804,0.21614522350533627,0.566249220634535,0.546690911739901,0.7812499999999645,1
0.5186937243445746,0.2788979430633286,0.22244949673042486,0.5042567471659085,0.5431073853145462,0.7812499999999716,1
0.5163132987727529,0.28214512841966577,0.21542078596768288,0.5657291012928701,0.5466909117399008,0.7812499999999751,1
0.5171875046513057,0.2796411384793676,0.22120278202414068,0.5075840724455654,0.5431073853145462,0.78125,1
0.5170521026957862,0.28189648553406815,0.21893843366787613,0.4781822698233851,0.544899148527223,0.7916666666666323,1
0.5180805879033249,0.27943350800262423,0.2205921545937493,0.5462222392627845,0.5413156221018682,0.7916666666666465,1
0.5217661894125134,0.2786338458556691,0.2217643019833448,0.5166806737220883,0.5431073853145468,0.791666666666643,1
0.5220870489431337,0.27673005743665213,0.22721411641191802,0.5013690910166441,0.5431073853145459,0.791666666666643,1
0.520160627766842,0.278438602508168,0.22070560326474187,0.552665302217572,0.5395224579797203,0.7812499999999751,1
0.5186809922907624,0.27622507601215285,0.22326432626522913,0.5303384402471462,0.5413156221018679,0.7812499999999609,1
0.5215621721912491,0.28057137235953716,0.22090343220591946,0.5315737284636401,0.535938931554365,0.7812499999999822,1
0.518747615734406,0.27925745521201734,0.2239232136366427,0.557124100366485,0.5377306947670418,0.7812499999999645,1
0.5212769120999958,0.2807349283006857,0.2208489440997457,0.47778622629533946,0.5359389315543652,0.7916666666666394,1
0.5201446455454983,0.2770292699628674,0.2230638437209233,0.4771294604063677,0.5359389315543653,0.7916666666666536,1
0.5197424135656388,0.28091552359761357,0.22100555174790865,0.5382779398959109,0.5287704777941833,0.7916666666666288,1
0.5191926694513801,0.27830219053081473,0.22295264183023367,0.5284828789788382,0.5323540042195388,0.7916666666666217,1
0.5210171588538105,0.27875373295525985,0.22109921267101207,0.5099686026078246,0.5359389315543641,0.791666666666611,1
0.5172256692961146,0.27690699243407796,0.22287101920828833,0.46950918983177486,0.5323540042195388,0.7916666666666501,1
0.5185826211897436,0.27755072162828587,0.2210877373572182,0.5259431179341079,0.5341471683416881,0.7916666666666501,1
0.5180696338991846,0.2785419269596843,0.22094627213033075,0.5428599665878543,0.5323540042195384,0.7916666666666323,1
0.5169830873012214,0.2818375522936616,0.21763996927714335,0.5240447943793739,0.5305622410068614,0.7916666666666394,1
0.5166262667123808,0.27894034072012475,0.21940488622274112,0.4954257511725685,0.5269787145815069,0.791666666666643,1
0.5168989662384631,0.2809984916201549,0.21981726073527325,0.4907553961583448,0.5269787145815056,0.7916666666666465,1
0.5175093163535568,0.27905927866481206,0.22259026191823567,0.5322785622465047,0.5180170966991763,0.7916666666666288,1
0.5169908638455237,0.28079977696759983,0.21714619053115525,0.5293128274538339,0.526978714581506,0.7916666666666679,1
0.5174991146141691,0.27777969283006737,0.2193719755956054,0.5078189682612724,0.526978714581506,0.7916666666666643,1
0.5169571090584842,0.2780304003321617,0.220649261330579,0.49359706153729416,0.5233937872466808,0.7916666666666394,1
0.5176059303020157,0.27590400795505027,0.22207939054979614,0.5263285369009264,0.5233937872466804,0.7916666666666501,1
0.5163686860295782,0.27668661357688673,0.22103787091584287,0.5294296977951627,0.52339378724668,0.7916666666666465,1
0.516998857256682,0.2738393871088959,0.22297422475403145,0.49682886027249157,0.5251855504593581,0.7916666666666536,1
0.5172238649817973,0.2759396892197367,0.22069871260947727,0.4967297310270929,0.5233937872466797,0.7916666666666394,1
0.5173253372529828,0.27478554951283546,0.22231753877299637,0.5260801813136533,0.5198102608213259,0.7916666666666643,1
0.5171269921241851,0.27654338989606564,0.22081517164400366,0.5219330290983283,0.5198102608213242,0.7916666666666288,1
0.5173770508086009,0.2753092651415701,0.2215877015442672,0.4941047467380033,0.5198102608213245,0.791666666666643,1
0.5170923683156502,0.27520663839215775,0.22135469214170378,0.5052763110897748,0.521602024034003,0.7916666666666501,1
0.5174031070378453,0.27496409695005725,0.22264879165494966,0.5362733760930299,0.5198102608213243,0.7916666666666359,1
0.5170718364431434,0.27558599123184574,0.22134369792177794,0.5238485457343446,0.5180170966991773,0.7916666666666643,1
0.517418169487459,0.27695311079289486,0.22268473128385757,0.49694181773525103,0.5180170966991776,0.7916666666666643,1
0.5170675550245774,0.2789126851537349,0.22129321182080186,0.5067467858591097,0.5162253334864997,0.7916666666666394,1
0.5173746336193661,0.2762649664880677,0.2227618562978828,0.5346796928791091,0.5180170966991766,0.7916666666666536,1
0.5160780860196394,0.27670372935786813,0.21901777382866622,0.5198719492665526,0.5162253334864999,0.802083333333325,1
0.5177148275214666,0.27429737566723983,0.2200640033085825,0.49842399204501264,0.5144335702738224,0.8020833333333108,1
0.5164309654873264,0.27543293328524404,0.2213951799260097,0.5161810361326669,0.5126418070611434,0.8020833333333002,1
0.5169065195547323,0.2741731580140798,0.2225217385360836,0.5463596174734623,0.5090568797263182,0.802083333333325,1
0.5172026445687611,0.2754742979659126,0.21938473374331324,0.5050252838824727,0.5108486429389963,0.8020833333333144,1
0.5173566825712832,0.2741491018215271,0.22226838853275177,0.4871437524487464,0.5090568797263177,0.8020833333333108,1
0.5170936167069574,0.27549251161912325,0.2208224761697163,0.5242227355468592,0.5126418070611439,0.8020833333333037,1
0.5174107150519115,0.2741326049198594,0.22236638947105686,0.53460824477239,0.5090568797263185,0.8020833333333037,1
0.5170587492126463,0.27625822741176065,0.22053589131974272,0.49568323102889333,0.5090568797263186,0.7916666666666501,1
0.5174370401694863,0.27411584570580816,0.21960643067092822,0.49350971644907105,0.5090568797263174,0.7916666666666359,1
0.5170363853869019,0.2755141754886337,0.2212823289141702,0.539543080190386,0.5072651165136399,0.7916666666666394,1
0.5174582071996477,0.2747000741102543,0.22253521574218577,0.5338508077209658,0.5072651165136417,0.7916666666666643,1
0.5170138459237887,0.2759798348916816,0.22147748137618528,0.5110421164329371,0.5054733533009622,0.7916666666666288,1
0.5174859717864966,0.27537395484639826,0.22255263801092873,0.480796673511564,0.5090568797263177,0.7916666666666465,1
0.5169721498403912,0.2758586935011846,0.22141060639113674,0.5275954162048357,0.503680189178814,0.7916666666666252,1
0.5175717626134027,0.2746239875150821,0.22270812639380239,0.5364572821427531,0.5072651165136404,0.7916666666666536,1
0.5165796654510081,0.27525742003546716,0.22001567770136882,0.5222005643411565,0.501888425966137,0.8020833333333037,1
0.5164658684772577,0.27431214243546154,0.22211822574417084,0.4930149701297082,0.503680189178815,0.8020833333333144,1
0.5160045523918887,0.27534442988394314,0.22173856012602655,0.5040029226188065,0.5018884259661363,0.8020833333333037,1
0.5170441399082901,0.27558449071888846,0.22037302037033135,0.5402383711817343,0.5000966627534593,0.8020833333333144,1
0.517248659675851,0.27681049942487645,0.21876760497778602,0.52940799195185,0.4983048995407813,0.8020833333333108,1
0.5172367641427663,0.27434873663333126,0.22068623604326348,0.4982952453709386,0.5000966627534604,0.802083333333325,1
0.5173431458450504,0.27711293302080126,0.21964170919379672,0.5132848344844362,0.5000966627534581,0.8020833333333144,1
0.5160026163931735,0.2761744280768427,0.21828310153475933,0.5295680547590567,0.49651173541863314,0.8020833333333286,1
0.5144711346515767,0.27735223495252537,0.21765247718415398,0.5138963466031199,0.494719972205956,0.7916666666666394,1
0.5165814501980801,0.2746803633332554,0.21884690618072067,0.48255589309933944,0.4965117354186328,0.7916666666666323,1
0.5162674643138893,0.27757126165948137,0.21867339631975302,0.5172464246161317,0.494719972205956,0.7916666666666394,1
0.5176000922847779,0.27607624262819913,0.22075844313687626,0.5398534301475645,0.4947199722059551,0.7916666666666323,1
0.5169654511815795,0.27853683271829716,0.22055487286449604,0.5201456186832204,0.49471997220595654,0.8020833333333215,1
0.5174595069058807,0.27686477347436605,0.21997409281016356,0.48824948205621554,0.49651173541863314,0.8020833333333108,1
0.5171209996875966,0.27578591480939674,0.22134555820295482,0.4960934636670409,0.48575975523309667,0.8020833333333108,1
0.5168415329393511,0.2750357648512848,0.2216926424168003,0.5379841651908897,0.494719972205956,0.8020833333333144,1
0.5165368894166892,0.2776347511348742,0.2204741126268298,0.53137239717123,0.4929282089932775,0.7812499999999751,1
0.5176725419340088,0.2747410397873351,0.22114295959183372,0.5120645527315222,0.49292820899327816,0.7812499999999929,1
0.5168978925656085,0.27513838024683723,0.22115939401741563,0.4986996436980534,0.49113644578060056,0.7812499999999822,1
0.5175118747917676,0.27444942838787567,0.22135864954640144,0.5326264672474662,0.49113644578060045,0.7812499999999858,1
0.5171077644147984,0.27518144674145173,0.22132352301096125,0.5286558969635338,0.48755151844577516,0.802083333333325,1
0.5164865567366194,0.2745556067181879,0.22122466310207195,0.4941131323995148,0.48755151844577316,0.8020833333333073,1
0.5157778702191989,0.2760041905778733,0.22038511984776105,0.4994749680945791,0.48575975523309667,0.8020833333333073,1
0.5172367979625195,0.27410559678147683,0.2204873456005093,0.5428043292504781,0.4875515184457746,0.8020833333333073,1
0.5159561129768588,0.27654487672452754,0.2189481620609412,0.525802307476141,0.48575975523309634,0.7916666666666288,1
0.5174007302327468,0.2763187898358567,0.2196736432218428,0.49885242850327777,0.48934328165845387,0.7916666666666643,1
0.5151907871207091,0.2761375828749311,0.21845910825255055,0.4884122173600913,0.48575975523309634,0.7916666666666252,1
0.5174383057307033,0.2742529142348889,0.2205508326965671,0.5378173289709244,0.4875515184457748,0.7916666666666536,1
0.5157232829483044,0.2769086780724168,0.22231611504198773,0.5309471234118203,0.4875515184457748,0.8020833333333179,1
0.5159868832027954,0.2768699387146218,0.21908123811630503,0.5135592611377046,0.48934328165845253,0.8020833333333144,1
0.5155277588918199,0.27698846053711934,0.21981362246377023,0.4810351494602792,0.4767981373507686,0.8020833333333037,1
0.517130932915987,0.27563639570496845,0.22046381155539735,0.5196444138677606,0.483966591110948,0.8020833333333037,1
0.5173212191289417,0.27662484394838377,0.2189916663529684,0.5308703137913899,0.4839665911109483,0.7916666666666501,1
0.5150327514057793,0.27480449744251606,0.22088190357678472,0.516398308620951,0.4785913014729162,0.7916666666666501,1
0.5165119001804099,0.275234349126363,0.2193209118534677,0.500228636791219,0.48217482789827093,0.7916666666666217,1
0.5175433529379807,0.27500214116961497,0.22280442806048667,0.5289422311138374,0.48038306468559366,0.791666666666643,1
0.5171926857972254,0.2755992007592438,0.22028270009509954,0.532115495353648,0.4821748278982708,0.8020833333333144,1
0.5163382287430984,0.2747792953825996,0.22020076450480114,0.49675505252180396,0.4785913014729154,0.802083333333325,1
0.515992213337588,0.2763507455546084,0.21925739368894137,0.5074322255462355,0.47321461092541317,0.8020833333333144,1
0.5173300250651719,0.27718698457723345,0.21922963333515294,0.5421454632953633,0.48038306468559333,0.8020833333333144,1
0.5161851905021065,0.2794683093693848,0.21897781885187267,0.5222416712967486,0.47679813735076737,0.7916666666666536,1
0.5164864282495613,0.2790564596294881,0.220130458823528,0.4915591703614842,0.4767981373507686,0.7916666666666643,1
0.5161835843672147,0.28016550886998787,0.21853133520255746,0.5028160085866007,0.4732146109254126,0.7916666666666501,1
0.518093447217396,0.27869479910345096,0.22060634880067015,0.5344755955527383,0.47679813735076715,0.7916666666666323,1
0.515869246615127,0.27762512093291103,0.21862501409502805,0.5111024813542658,0.47500637413809066,0.7916666666666679,1
0.5167325484305829,0.27582967405516245,0.22013194386918994,0.4943983396337099,0.4767981373507679,0.791666666666643,1
0.5166303302270765,0.2756529359396597,0.2213448360537556,0.5084585920481196,0.4732146109254125,0.7916666666666394,1
0.5178167124421437,0.274805612807409,0.22182898253578565,0.5488715708119205,0.4714228477127351,0.7916666666666501,1
0.5157252915707129,0.2771293020645035,0.22023147686392913,0.514008498959839,0.47321461092541206,0.7916666666666181,1
0.5163986149531953,0.2744199632222706,0.2227623328350931,0.4933309742873268,0.47142284771273446,0.7916666666666288,1
0.5143329472952657,0.27519753388776763,0.22069746271869717,0.5267216176310335,0.4750063741380912,0.7916666666666643,1
0.5182572082127512,0.27445328461272694,0.22226464055117784,0.5391683581926422,0.4714228477127349,0.7916666666666714,1
0.515459994852911,0.2751637677616054,0.21914993958669515,0.4994440392833594,0.4714228477127348,0.7916666666666501,1
0.515269970704641,0.27448627841730694,0.2203988135404109,0.4963419057077646,0.45887770340505063,0.7916666666666643,1
0.5166115230904471,0.2751424290241069,0.21895919283823106,0.5287642629751645,0.46962968359058677,0.7916666666666501,1
0.5179575239709419,0.27552498481999665,0.2224136836132095,0.5320492372287432,0.46783792037790906,0.7916666666666501,1
0.5159074301254793,0.27638213226669467,0.21884361919176665,0.503819436430574,0.4678379203779086,0.8020833333333215,1
0.5169182193411669,0.2784853166170381,0.22211855513689432,0.4955217790401433,0.4714228477127349,0.8020833333333144,1
0.5105665940478522,0.2815401132211933,0.21609906513787958,0.5288559466436421,0.46962968359058554,0.8020833333333037,1
0.5103138271601055,0.28396978339924595,0.21145181242120098,0.526128616546893,0.46962968359058566,0.8020833333332931,1
0.5105795170922013,0.28763013188091097,0.21206607337454753,0.5034764241366942,0.4624612298304056,0.8020833333333215,1
0.5100625141124847,0.28639665657120805,0.20951680487770752,0.4908636672810582,0.4678379203779084,0.8020833333333179,1
0.5104782061705283,0.2882406576522169,0.21081812019753543,0.5282142118592661,0.46604615716523123,0.8020833333333037,1
0.5111908041962105,0.28659461405801356,0.21015626335412735,0.5291481834092354,0.4642543939525532,0.8020833333333002,1
0.5105570821239968,0.28977625364450266,0.2099731272522775,0.495586142470056,0.4642543939525535,0.8020833333332931,1
0.5130115791280063,0.28757889960226535,0.21181489670318354,0.5135429629210058,0.4642543939525541,0.8020833333333144,1
0.5122554587896281,0.2875106511199471,0.21326098038743407,0.535460556331514,0.46066946661772645,0.8020833333333002,1
0.5117254178590979,0.28665964661471016,0.21261498829212255,0.5063477774155402,0.46066946661772823,0.8020833333333393,1
0.5139805810232929,0.29075143970542994,0.21311988978367086,0.48512685869514494,0.4624612298304063,0.8020833333333357,1
0.5109020947683898,0.29239003005496095,0.21227634369735393,0.5396578185219406,0.46246122983040494,0.8020833333333108,1
0.5074964148451953,0.29579065864969734,0.20586469228774923,0.5340643261125773,0.460669466617728,0.8020833333333002,1
0.5071906319781271,0.2985529586777923,0.20244016205940918,0.4948441769213347,0.46066946661772823,0.802083333333325,1
0.50556419121436,0.2995511625994869,0.20537585935256236,0.4917365000578755,0.4588777034050495,0.7916666666666323,1
0.5098607004800714,0.29889693588406235,0.2035205176709039,0.5425314106119008,0.4606694666177278,0.791666666666643,1
0.5067352867328783,0.29892518668670437,0.20767497043031147,0.5161304000188401,0.4570859401923737,0.7916666666666714,1
0.5101411335265459,0.29857038529799595,0.20731079760922017,0.4905900332226392,0.4552927760702248,0.791666666666643,1
0.5086204494765263,0.2990373031170233,0.20628455378478378,0.5087044079864359,0.4552927760702242,0.8020833333333037,1
0.5102797764118334,0.2985091602014148,0.20725930971425333,0.5554936772331525,0.4588777034050505,0.8020833333332895,1
0.5095189566744166,0.2990756327251186,0.20807712075254448,0.518920562196799,0.45529277607022456,0.802083333333325,1
0.5107158217777609,0.2984840582057445,0.20734486363443966,0.5056003505396579,0.45170924964486825,0.8020833333332931,1
0.5095338730105727,0.29909175137633315,0.20578431819889564,0.5407604802764294,0.4552927760702248,0.8020833333333286,1
0.5105929410365768,0.2984750066979216,0.2064929945923708,0.5277862288263824,0.4535010128575464,0.8020833333333037,1
0.507790380186878,0.2990942425086009,0.20590684606830345,0.4889509365386115,0.4552927760702238,0.8020833333332931,1
0.5106035147093737,0.29847993065117046,0.20871609801957058,0.5165752455007596,0.45708594019237303,0.8020833333333215,1
0.5085989905538029,0.2990788223010023,0.20847647048207185,0.5411736949484336,0.4535010128575464,0.8020833333333037,1
0.5109496882352415,0.29851454198429117,0.20729128514076256,0.5208350865528674,0.4535010128575476,0.8020833333333144,1
0.5093701683841423,0.298994519822826,0.20698009219427538,0.48155724960101404,0.4517092496448686,0.8020833333333144,1
0.5107241123847968,0.29889049522208916,0.20550295441165672,0.5106898502911575,0.449917486432191,0.8020833333333002,1
0.5079725333096685,0.2996349801565261,0.20673591972786448,0.5349458781415283,0.4445407958846883,0.8229166666666607,1
0.5103305496919139,0.298250723303641,0.2091666932607424,0.5186592103642089,0.45170924964486836,0.8229166666666501,1
0.5085932772333933,0.29925693088993055,0.20610889456653458,0.503246947788631,0.4481243223100442,0.822916666666643,1
0.5099520163293237,0.298338625285532,0.20795393541693385,0.519780502923802,0.4499174864321913,0.8229166666666501,1
0.5085642204681313,0.29921704430418244,0.20653483835359054,0.5189901887242431,0.4499174864321914,0.7916666666666501,1
0.5109030387736543,0.2983612670465462,0.20732352000939508,0.4938165976045383,0.44991748643219165,0.7916666666666501,1
0.5093585550760704,0.2992025454995319,0.20815411815802998,0.5142164643195936,0.4517092496448687,0.7916666666666323,1
0.5108421979027266,0.2983713136002245,0.2086978425122315,0.5369202262788444,0.44991748643219254,0.7916666666666714,1
0.5093887337502273,0.299195166189427,0.20697184674171792,0.5136295663939849,0.451709249644869,0.8229166666666607,1
0.5108171468775244,0.2983769945751658,0.2082157872307956,0.4868609622331151,0.4463325590973658,0.8229166666666643,1
0.5094223820612342,0.2991906120000512,0.20904613695170116,0.5134246512215722,0.44812432231004373,0.8229166666666607,1
0.5107310668223688,0.2983807817282484,0.20750141551768564,0.5305033525214875,0.44633255909736635,0.8229166666666465,1
0.5084917787211958,0.299187352679944,0.20761349518922945,0.5041194656847336,0.44812432231004373,0.8124999999999893,1
0.5109597045174838,0.29838368056617304,0.20776812599834438,0.4900983926600859,0.44812432231004296,0.8124999999999751,1
0.5092950493894439,0.299184690981144,0.2087420047510632,0.5314165928676365,0.4427490326720104,0.8124999999999609,1
0.5109267591698184,0.29838620146629036,0.20820493387237726,0.5414822668763084,0.4427490326720106,0.8124999999999893,1
0.5092352975773625,0.2991822303721614,0.20717679781728576,0.49809527377764445,0.4427490326720106,0.822916666666643,1
0.5099826580978563,0.2983886745101819,0.2097361167483186,0.5113276087258809,0.4463325590973656,0.8229166666666536,1
0.5094727106631792,0.2991796733739669,0.20816859798870851,0.538815679138419,0.4427490326720095,0.8229166666666181,1
0.5107755346585451,0.2983913920458092,0.20902607557401787,0.5118701916201854,0.4409558685498629,0.8229166666666465,1
0.5094708877696436,0.2991767066181823,0.2082981042091468,0.4858593980845083,0.4373723421245065,0.812499999999968,1
0.5099855474693956,0.298394717889142,0.20757476715719714,0.5296646080178151,0.4391641053371852,0.8124999999999858,1
0.5092331871148319,0.29917287759133865,0.2086026488904243,0.5368811237614437,0.4373723421245084,0.8125000000000071,1
0.5109241258239305,0.29839924868349543,0.20840402440568362,0.49914566714090947,0.4391641053371841,0.812499999999968,1
0.5093119237827824,0.2991673584029638,0.20917816125805977,0.48809825307122495,0.4409558685498618,0.8124999999999751,1
0.5108960119097021,0.298406190017474,0.20909072981412863,0.5343641584418154,0.4409558685498626,0.8124999999999822,1
0.509337906438498,0.29915830282874656,0.20869144392519962,0.5320055212666899,0.44095586854986113,0.8124999999999716,1
0.5108394048402852,0.29841853706260313,0.20719798577744292,0.4999019313192267,0.4391641053371853,0.8124999999999822,1
0.5096038233734657,0.2991404896170955,0.20885417405682533,0.4936258064145844,0.4409558685498608,0.8124999999999503,1
0.511804659122772,0.29844631930316484,0.20917975071045797,0.5442517797014267,0.439164105337185,0.8124999999999893,1
0.5081079279068111,0.2990916574013571,0.20900579877597752,0.5376146056633475,0.43020388836432577,0.8125,1
0.5111218628885708,0.2985531893090358,0.20917339664733797,0.49606042583036425,0.4373723421245064,0.8124999999999787,1
0.5087943827112112,0.29865121181763,0.2088880258070117,0.5097074857677463,0.4355805789118299,0.8020833333333144,1
0.5114221757261358,0.29711550006602216,0.20823854285665216,0.5370970507520952,0.4355805789118289,0.8020833333333108,1
0.5124331922609896,0.2995272335039963,0.2096905741365102,0.510032645085983,0.4337874147896823,0.802083333333325,1
0.512673783329375,0.29749347530017634,0.2095677492827494,0.49129324729878365,0.43378741478968075,0.8020833333333073,1
0.5110812190616462,0.299203251756112,0.20891775192866874,0.5267034861425146,0.4337874147896823,0.8124999999999893,1
0.5126917718340911,0.29833035320167367,0.2091924991761681,0.5363517127800678,0.4337874147896822,0.8124999999999893,1
0.5131171272205061,0.2992454580657887,0.20899633204811596,0.5099230361426133,0.43558057891182833,0.8124999999999716,1
0.5110087265568087,0.298321754300915,0.2091585228281745,0.4830757097424962,0.43737234212450693,0.8124999999999787,1
0.5102106807465531,0.299250392301582,0.20901543879311568,0.5168228493895882,0.43558057891182944,0.8229166666666536,1
0.5148452750714795,0.298315760688409,0.20914610539674555,0.5335389730547395,0.4355805789118289,0.8229166666666501,1
0.511148139455058,0.2992587247838142,0.20902423889720434,0.5085783623776323,0.430203888364326,0.8229166666666536,1
0.5119156827320814,0.29830501965377754,0.20913958268128585,0.49872071060334516,0.4337874147896811,0.8229166666666536,1
0.5122250844298594,0.29926921833443315,0.20902908339235465,0.5339797287250493,0.42841212515164806,0.8020833333333037,1
0.5144432997618491,0.29831392154010516,0.20913621258259674,0.5339855940029343,0.4319956515770039,0.8020833333333393,1
0.5114868355372743,0.29893757304251245,0.20903090021200232,0.49072609698924313,0.4319956515770029,0.8020833333333215,1
0.5128001658766238,0.29731647557337193,0.20913632209891725,0.5109977941691582,0.43020388836432677,0.8020833333333393,1
0.5118044727990001,0.29771829700820834,0.2090280572940203,0.5322146588903529,0.4302038883643262,0.8124999999999751,1
0.5128454734840812,0.2970342274238453,0.2091435296340146,0.5015832220254225,0.42841212515164806,0.8124999999999964,1
0.5097471429208679,0.297783893682602,0.20901293373612279,0.48369875266650136,0.43020388836432577,0.8124999999999929,1
0.5143425085765286,0.2989012135878167,0.2091758291448349,0.5352484115618034,0.43020388836432566,0.8124999999999787,1
0.5107505222967176,0.2988326297833218,0.20892834741844557,0.5337800747757125,0.4302038883643262,0.8020833333333144,1
0.5121413796731934,0.2986769330171649,0.209818745108251,0.4943423390144975,0.4284121251516483,0.8020833333333179,1
0.5109057118150077,0.2989100400220577,0.20931626729784653,0.49279094894612446,0.4284121251516477,0.8020833333333144,1
0.5129086558402921,0.2986791464424848,0.20899499776957492,0.54437466644928,0.42661896102950125,0.8020833333333357,1
0.5106211798606841,0.2987726791658304,0.2091118370206872,0.5263867335324963,0.4284121251516476,0.8124999999999751,1
0.5144930172431122,0.2966001798057565,0.20918384338578788,0.5010295624189068,0.4266189610295007,0.8124999999999893,1
0.5125546055571143,0.297765874597097,0.21003459672921865,0.5202471237904001,0.4266189610294988,0.8124999999999574,1
0.5131905352032553,0.2980664413462545,0.2102441527068673,0.5461688095028412,0.4248271978168223,0.8125000000000142,1
0.5116179555018806,0.2985791618812782,0.2094491762716451,0.4974411117545415,0.4248271978168219,0.8124999999999787,1
0.5112498009848944,0.2982272170307157,0.20872462184416596,0.5008607687370856,0.4284121251516483,0.8124999999999964,1
0.5106299339336291,0.2992607909684093,0.20978515249753,0.5328219854579443,0.42482719781682265,0.8124999999999716,1
0.5130370835487009,0.29778860800483037,0.21038459193612974,0.5275317124471024,0.4248271978168223,0.8124999999999893,1
0.5129450908778639,0.2977437787036521,0.208789834559734,0.49063248416776056,0.42124367139146623,0.8229166666666359,1
0.5147785372544781,0.2980441322147062,0.209417577573127,0.5080498939362578,0.42482719781682265,0.8229166666666394,1
0.5112549556217639,0.29935630915766104,0.21005382767077824,0.5361754013484314,0.4194505072693189,0.822916666666643,1
0.514812314062212,0.2982545608776565,0.20955005599659143,0.5158580058612482,0.4266189610295007,0.8229166666666394,1
0.5130622766499354,0.2993040355261839,0.20903794138233556,0.4886909680901171,0.42124367139146723,0.8229166666666465,1
0.5127374187706274,0.298256236923033,0.20903091088417275,0.5136912687525842,0.42124367139146757,0.8229166666666465,1
0.5126904958759336,0.2993644186036989,0.20985932167847465,0.5455373510763755,0.4212436713914669,0.8229166666666536,1
0.5134221320885466,0.2976719847534114,0.20919194004566788,0.5160870298208478,0.419450507269319,0.822916666666643,1
0.5116285293679288,0.29899406300505743,0.2090453446314552,0.4968486428152929,0.42124367139146734,0.8124999999999822,1
0.5143031790718599,0.29845044071859045,0.2090944300588582,0.5255257228080691,0.41945050726931965,0.8125000000000142,1
0.512914736323904,0.29915182079848224,0.20908834975660967,0.5203763431180489,0.4212436713914668,0.8124999999999716,1
0.5153727845927765,0.29840324983354466,0.20906656315158662,0.4909608611191727,0.4104902902964609,0.8124999999999858,1
0.5104841151125801,0.29917464010807365,0.20910939508229942,0.5120446138389391,0.4194505072693189,0.8229166666666359,1
0.5138361697464785,0.2983896315617992,0.20904934537033382,0.538394526844896,0.40690676387110614,0.8229166666666643,1
0.5118857974514992,0.29918396675302145,0.20912413692284465,0.5124445138758638,0.4176587440566423,0.8229166666666643,1
0.513606509865388,0.2983825178315595,0.2090364120309396,0.4848209625093657,0.42124367139146734,0.8229166666666501,1
0.5125784340488174,0.29918990695142217,0.20913556907075315,0.5158149572095968,0.41945050726931954,0.8124999999999716,1
0.5133641083103118,0.2983771607320121,0.20902642077968803,0.5354153061961064,0.42124367139146834,0.8125,1
0.5107556590048332,0.29919505882685904,0.20914394309341583,0.5076284282823917,0.4086985270837834,0.8124999999999964,1
0.51228675024765,0.2983719389932778,0.2090201586694671,0.49919355193528125,0.4194505072693182,0.8124999999999645,1
0.5113040107839035,0.29920058169366276,0.20914704106354615,0.5422880623607415,0.41765874405664183,0.8124999999999787,1
0.512676652642229,0.29836588936138403,0.2090224711501264,0.537877710802815,0.4176587440566427,0.8124999999999787,1
0.5110763331233711,0.2992074100686219,0.20913392871881553,0.48732455064238034,0.4140752176312854,0.8124999999999893,1
0.5133038693040206,0.29835796834541073,0.20906297351486758,0.5080954053671458,0.4140752176312862,0.8125,1
0.5106059893403749,0.29921684945745275,0.2089726259058845,0.5386285328304908,0.41407521763128585,0.8229166666666465,1
0.5110026861317237,0.29834639131208285,0.20821747640038146,0.5081850765031424,0.41407521763128496,0.8229166666666146,1
0.5107637970425504,0.29923152601445185,0.2093733395790855,0.48531889633041525,0.41407521763128563,0.822916666666643,1
0.513466118254867,0.2983270109892844,0.2088567684541361,0.5320715527332236,0.4158669808439641,0.8229166666666643,1
0.5110368195910534,0.2992585298393239,0.20926371636380853,0.5352571416134074,0.4122820535091377,0.8124999999999787,1
0.5130847056131509,0.2982864000773217,0.20958898474415077,0.4998634906174702,0.4122820535091374,0.812499999999968,1
0.5106527322746846,0.2993274284866553,0.20950835827057063,0.49245302577652555,0.41407521763128496,0.8124999999999858,1
0.5141067430957036,0.29813940230428787,0.20865597017715531,0.5382498073471753,0.41407521763128585,0.8124999999999716,1
0.5099278522833732,0.29998622870085845,0.20837871675929143,0.5289777578517275,0.4122820535091374,0.8124999999999574,1
0.5130952616320187,0.2994220228865053,0.2100085724883185,0.5029272579306174,0.4158669808439638,0.8124999999999716,1
0.5109366038730783,0.2989043120257305,0.20824050117010706,0.510123431395467,0.41407521763128585,0.8124999999999893,1
0.5133756306877956,0.29855346069260047,0.20910549482457502,0.5405242519177063,0.40869852708378185,0.8124999999999716,1
0.5098637364956035,0.299062665710886,0.2091515168088639,0.5031138738475494,0.4122820535091385,0.8229166666666572,1
0.513931139377061,0.2984814417401472,0.20897151961021027,0.49344133765961007,0.41049029029645967,0.8229166666666465,1
0.5108882311873412,0.29910433910519957,0.20922319316330829,0.5335049291163169,0.41049029029646067,0.8229166666666572,1
0.5124734118997211,0.2984543424938129,0.20892227621497883,0.5361373608481436,0.41049029029646034,0.822916666666643,1
0.5122972799951582,0.29912301332979474,0.20926196501068778,0.4966061780755944,0.4104902902964608,0.8229166666666536,1
0.5146248000423885,0.2984414244483045,0.2088888543110866,0.49517963613528587,0.41228205350913694,0.8229166666666217,1
0.5111112084714854,0.2991310109674842,0.20929278104557686,0.5262462963567267,0.4069067638711046,0.822916666666643,1
0.5138255294495337,0.298439356645133,0.20885877996032154,0.5246927651477663,0.40869852708378274,0.8229166666666394,1
0.5100401465280907,0.29912187254457984,0.2093238842623797,0.48895975588979246,0.4051135997489569,0.8229166666666536,1
0.5142355429823433,0.2984845634502217,0.20882405787493596,0.5086069981567543,0.41049029029646034,0.8229166666666394,1
0.5127724232004343,0.29872453377392216,0.20936816529835045,0.5520243122823213,0.39794514598877584,0.822916666666643,1
0.5138892920804252,0.2975846654263178,0.2095543243153356,0.5139054642820473,0.406906763871105,0.8229166666666394,1
0.5130563798232773,0.2988169828557551,0.21012939360246308,0.48670540104437826,0.4069067638711047,0.8124999999999716,1
0.5152040020224281,0.298484064777511,0.2089276243887947,0.525711023406852,0.4069067638711046,0.8124999999999787,1
0.5137160880119777,0.2991282412432155,0.20930499378295514,0.5351767971830831,0.4051135997489561,0.8124999999999716,1
0.5178379044551759,0.2976761880144251,0.20884648471729733,0.5054844335197324,0.40511359974895655,0.8124999999999787,1
0.5128073939473594,0.29915316055252494,0.21009501309310963,0.5058076029982216,0.4069067638711046,0.8229166666666181,1
0.5156838768276961,0.29841081006781467,0.2092774496024986,0.5343887834677973,0.4033218365362796,0.8229166666666643,1
0.5120788480122015,0.2991630714936848,0.21166050198787084,0.5113942985404598,0.4069067638711047,0.8229166666666359,1
0.5175613414166327,0.2984031597448635,0.2103059757823914,0.4744433891869666,0.4033218365362786,0.8229166666666394,1
0.5117424379497841,0.2991694469403382,0.2091184857867972,0.5210756737627825,0.4033218365362782,0.8124999999999787,1
0.5158008526816015,0.29839755626435405,0.2088868288276181,0.5676312005362212,0.4033218365362784,0.8125,1
0.5116961808950742,0.299174562300053,0.20934619957112416,0.5100396902260282,0.401530073323602,0.8124999999999787,1
0.5154711669030079,0.2983927554399661,0.20877951071818024,0.49410008545106054,0.4015300733236016,0.8124999999999787,1
0.5130757334542573,0.2991791620583114,0.20941878901246191,0.5260864877399833,0.39973831011092353,0.8124999999999787,1
0.5148644768662369,0.29838827825528436,0.2087192482802192,0.5226036138357465,0.40332183653627895,0.8124999999999822,1
0.5120857901294703,0.29918357360503445,0.20947647820379023,0.48289133691821534,0.40332183653627884,0.8124999999999893,1
0.5152045996054077,0.2983838895333493,0.20865658971212953,0.5232328910593093,0.401530073323602,0.8124999999999893,1
0.5145443245127252,0.29918797225466975,0.2095558157914335,0.5356003099181212,0.40153007332360124,0.8124999999999716,1
0.5154438085341221,0.29837945641827146,0.20852623573349527,0.5020461461166734,0.39794514598877617,0.8124999999999858,1
0.5102814913702324,0.299192456113239,0.20999907500688497,0.4917692014512501,0.3979451459887763,0.8125000000000071,1
0.5130231732672367,0.2983749161185376,0.20917952057193667,0.5366365477683414,0.39794514598877573,0.8124999999999716,1
0.5116972948560614,0.29919704197900826,0.2093466944326044,0.52148800348245,0.396153382776099,0.8124999999999929,1
0.5152397915026034,0.29837032524114,0.20873319354911113,0.4965341322020566,0.3979451459887754,0.8124999999999787,1
0.5093507091532791,0.2992015389982549,0.20948375522918428,0.514286979461111,0.3979451459887765,0.8124999999999893,1
0.5171304181095816,0.2983661456321239,0.20863866687664478,0.5508026453783463,0.3979451459887755,0.8124999999999787,1
0.5115578521221498,0.2992048825451687,0.2095921960184462,0.5096029784481704,0.39794514598877584,0.8229166666666607,1
0.5148355304875881,0.2983649637039817,0.20785552017509734,0.4990556489190398,0.39794514598877706,0.8229166666666643,1
0.5079800449329848,0.2991997953125893,0.20942848229102623,0.5256657261308955,0.39794514598877573,0.8229166666666501,1
0.5144971882201215,0.2983954975378651,0.20866374177298747,0.5230215480703995,0.3997383101109243,0.8229166666666714,1
0.51133185666956,0.2985468946654991,0.20953315634995112,0.48650399420305696,0.3979451459887752,0.8333333333333215,1
0.5159395603862257,0.298128368305037,0.20861543331079035,0.5157319507639119,0.3979451459887765,0.8333333333333499,1
0.5092106492560525,0.29855501870533163,0.20956221461548574,0.5386476188777141,0.39615338277609957,0.8333333333333321,1
0.5157912401075917,0.2983848827698791,0.20859759459301774,0.5187425146444503,0.39256985635074126,0.8333333333332966,1
0.5091479266337701,0.2991773531383116,0.20959361221942252,0.48333248998441153,0.39615338277609846,0.8229166666666607,1
0.5165505068892771,0.29678707425027323,0.21036978467729445,0.520270453701697,0.39436161956342086,0.8229166666666572,1
0.5106394240879604,0.2991457585141636,0.2101741224727866,0.5316375058775525,0.396153382776097,0.8229166666666359,1
0.5167756921354768,0.29658980883113617,0.21019979498488806,0.5059263123367564,0.3961533827760989,0.8229166666666501,1
0.5135681317555958,0.29712488650831614,0.2150871974037346,0.49543736570217534,0.3997383101109242,0.8229166666666288,1
0.5193302765833605,0.29877851156838753,0.21174112989242871,0.5457349769892501,0.4015300733236009,0.822916666666643,1
0.5114945160272598,0.2989786054041603,0.2111177510695223,0.5392043983320508,0.39973831011092376,0.8229166666666323,1
0.5174735689976808,0.2985185542715252,0.2077333925538818,0.5173929574605972,0.3979451459887752,0.8229166666666394,1
0.510895686063666,0.2990892364711522,0.21026849171965356,0.5244791953713298,0.39256985635074326,0.8229166666666572,1
0.5172946729281116,0.29845701652640666,0.20862973914798277,0.5021802741330217,0.39615338277609746,0.822916666666643,1
0.5113106313509834,0.29912836566845985,0.2104410938127404,0.44464391098534406,0.3907766922285951,0.8229166666666536,1
0.517433734728954,0.29843012551579834,0.20775394688691634,0.4829886092151113,0.39615338277609735,0.8229166666666394,1
0.5111415719754634,0.29914769955618076,0.21047862496438557,0.5483843602234738,0.3925698563507425,0.8229166666666536,1
0.5195377848502091,0.29841593697446,0.20856389851909896,0.5374765924262286,0.39794514598877595,0.8229166666666643,1
0.5116249058642987,0.299158066817093,0.21033592316485705,0.48942479642386577,0.3961533827760979,0.8229166666666323,1
0.5176135275098716,0.29840865236011804,0.2077481380305412,0.5115205505841344,0.39436161956342,0.8229166666666323,1
0.5099344445697288,0.2991626573816934,0.210481416933941,0.5503975513322384,0.3943616195634204,0.8333333333333286,1
0.5177532654254642,0.29840660075257747,0.20762302878662015,0.5248960824877811,0.3925698563507417,0.8333333333332966,1
0.5097145777096668,0.29916214905509914,0.2106093562490109,0.4985681628506648,0.39077669222859446,0.8333333333333002,1
0.5183066115469215,0.2984098416765101,0.20748589923268307,0.533003103297164,0.38898492901591597,0.8333333333332966,1
0.508986736123187,0.2991558540907922,0.21075938403145672,0.5422793301307495,0.39436161956342075,0.8333333333333179,1
0.5176634778693125,0.2984196749675184,0.20731887261546095,0.49075214390647076,0.3871931658032385,0.8333333333333108,1
0.5074185705791074,0.29914180465764745,0.21095100685210544,0.5039921546849064,0.39256985635074193,0.8333333333333108,1
0.5160777133550147,0.2984388621031894,0.207077147546248,0.5424139515729551,0.3907766922285948,0.8333333333332966,1
0.507776481691573,0.29911623834121714,0.2118965581025697,0.5237047983165951,0.38898492901591664,0.8229166666666501,1
0.5183447234243305,0.2984724824032401,0.2070498493951452,0.4889701811902389,0.3925698563507427,0.8229166666666536,1
0.5055884090081794,0.2990722863487097,0.21131049078572722,0.5163556028736563,0.3907766922285951,0.822916666666643,1
0.518878800009028,0.29852990448638733,0.20668708324088392,0.537248314873625,0.3943616195634204,0.8229166666666536,1
0.505918244704948,0.2989969934233636,0.21165998520029872,0.5153534525963577,0.3925698563507425,0.822916666666643,1
0.5222772375305477,0.29862937774421566,0.20630376701230996,0.491893660590757,0.39256985635074204,0.8229166666666252,1
0.5040119685097874,0.29886403781188375,0.21209747904736576,0.5069706984946108,0.39256985635074304,0.8229166666666643,1
0.5239069232478664,0.2988100260958815,0.2057905929995238,0.5349304010879616,0.39256985635074315,0.8229166666666607,1
0.5020511128628607,0.2986129440237775,0.21271755520001134,0.5104005210592191,0.3907766922285939,0.8333333333332966,1
0.5252272359995582,0.29917046955979903,0.2050101278094847,0.5006430537554136,0.3889849290159174,0.8333333333333144,1
0.49824458629816915,0.29806961999656434,0.2137672423443321,0.5088215892160434,0.39077669222859523,0.8333333333333321,1
0.5297912628009365,0.30006181012282096,0.20339723976729962,0.5465077999088283,0.38719316580323904,0.8333333333333179,1
0.4907418195297648,0.2963050903208843,0.2176706429967738,0.5040864844114964,0.38719316580323937,0.822916666666643,1
0.5576123712942141,0.30898799615027367,0.24245063972377928,0.49559328826475907,0.38719316580323937,0.8229166666666643,1
0.5270444708510554,0.36385730119563725,0.23391986292083772,0.5209650295490436,0.3889849290159171,0.8229166666666359,1
0.8090029408135098,0.413234856169899,0.2942291505930339,0.5303877837169739,0.38719316580323937,0.8229166666666465,1
0.7928451704227377,0.2655523209879272,0.4388179290372328,0.48007463769474357,0.3836082384684135,0.822916666666643,1
0.3044338770656738,0.21049267248073192,0.6527870993668413,0.5153621297009173,0.47849463871945674,0.8229166666666572,1
0.261254971262133,0.1668656999991439,0.7987197188833395,0.5038903295021212,0.47490971138463145,0.8229166666666679,1
0.2641454041400052,0.05964233858545509,0.742820979462022,0.5529526010968437,0.47311794817195363,0.822916666666643,1
0.19846266038252502,0.16712052826514479,0.8407826940034048,0.5178090188625452,0.4731179481719522,0.8333333333332895,1
0.35571579849444995,0.28235903464485584,0.6312569410915807,0.5182149343951765,0.47311794817195296,0.8333333333333215,1
0.657099649326381,0.40028166568771206,0.8471319465363164,0.511727572095095,0.4695344217465979,0.8333333333333179,1
0.6693626837814208,0.5228779265843666,0.6792886451301317,0.5117598331618353,0.47849463871945597,0.8333333333333037,1
0.6985654740160344,0.44373201360807624,0.49908421354140164,0.49740380224568576,0.49283154623981906,0.8229166666666536,1
0.6918639204673458,0.42304559252316065,0.5063420904516294,0.5992756785045856,0.4910397830271418,0.8229166666666572,1
0.6821725147661712,0.36299144377424786,0.6029099739912913,0.5782688843095419,0.48924661890499255,0.822916666666643,1
0.6307488617540001,0.303360585034283,0.7277444393742304,0.572124218545924,0.4820781651448116,0.8229166666666572,1
0.5935324427042279,0.1960719575012554,0.6630493539319569,0.3348952547328411,0.46415773119909487,0.8229166666666465,1
0.5321114643558965,0.14827733017324482,0.6617774889305603,0.4608838416027339,0.4516125868914098,0.8229166666666572,1
0.48871285047955626,0.10476751615074331,0.6250581349375512,0.4305529620447359,0.4408592057964035,0.8229166666666536,1
0.4951250262905079,0.09595248054369937,0.6121070987602476,0.4541569635411645,0.4390674425837249,0.822916666666643,1
0.5190263912305597,0.09395110244420007,0.5991213014303627,0.6208115881335072,0.43548391615837034,0.8229166666666536,1
0.5025712958954814,0.09803543928107789,0.5959213810526991,0.4890259031592374,0.4372756793710476,0.8229166666666323,1
0.5283145814580428,0.09548225456787457,0.5828366813259369,0.5645970983702955,0.43189898882354427,0.8229166666666394,1
0.5102363008529202,0.0968436138131758,0.5873593622273898,0.5663720849709036,0.43369075203622165,0.8229166666666394,1
0.5163523405096461,0.09334942826201753,0.5806752872331442,0.5074489320754354,0.43369075203622265,0.8333333333333215,1
0.5078134481498083,0.09529100907858579,0.58413922715902,0.5292490259951903,0.43010722561086734,0.8333333333333393,1
0.5147017307815465,0.09223165760775681,0.5779390415294574,0.5520517455142027,0.4301072256108658,0.8333333333333037,1
0.5061334330274514,0.09226829563809025,0.5865646589524017,0.4935027158262994,0.424730535063363,0.8333333333333144,1
0.5122580653771841,0.08858823567235119,0.5758320856923768,0.5265633629095684,0.42831546239818885,0.8385416666666465,1
0.5044158082199311,0.08962496248506574,0.5796866219696258,0.5380829773717483,0.4247305350633632,0.838541666666643,1
0.5120885893897168,0.08848641224790205,0.5749310057989026,0.4954289831161451,0.4265222982760408,0.8385416666666714,1
0.5052646622001452,0.08968228378125531,0.5795801130097291,0.5079630094975424,0.4157703180905039,0.838541666666643,1
0.5108998473363725,0.08813399990426257,0.573842364117082,0.5400575052286747,0.42473053506336356,0.8333333333333144,1
0.503290802625284,0.08674260631050135,0.5790569230723578,0.49655435751584814,0.42293877185068496,0.8333333333333073,1
0.5062413078053994,0.08514499072678666,0.5743977197002841,0.5054832076305504,0.4211470086380078,0.8333333333333286,1
0.5055256971309162,0.0845505286989609,0.5764856644330019,0.5383190900858674,0.4229387718506855,0.8333333333333179,1
0.5110889831905564,0.0881400549700036,0.5690465668227842,0.5136444731373374,0.41935384451586,0.8385416666666465,1
0.5045212948467991,0.08470743958745247,0.5728335166481525,0.48544523033101133,0.4211470086380076,0.8385416666666501,1
0.512168068903808,0.08341920516132822,0.5689008575875382,0.5261360834116651,0.4157703180905028,0.8385416666666252,1
0.5007126590526652,0.08477159235148174,0.5728997615328801,0.5305297369381197,0.41935384451585966,0.8385416666666643,1
0.5059129097632419,0.08299953432410695,0.5698494169532793,0.4977666386549342,0.4193538445158588,0.822916666666643,1
0.5011987223703492,0.08316674488001752,0.5724032325512405,0.49587427806139306,0.4175620813031813,0.8229166666666536,1
0.5051738906036053,0.08298469892278543,0.5692893508928398,0.5362694878915746,0.4157703180905047,0.8229166666666785,1
0.5008270445451874,0.08314113660521977,0.572482913041068,0.5185469000709476,0.41577031809050335,0.8229166666666288,1
0.5046515698336141,0.08302081134603762,0.5680351363587733,0.48944812396656195,0.41397855487782687,0.8385416666666572,1
0.4993234240826251,0.08309772289211342,0.5717270978034621,0.513954547548623,0.41577031809050424,0.8385416666666465,1
0.502605606791443,0.08307408618844464,0.5684943570486337,0.5341195093425799,0.41577031809050424,0.8385416666666501,1
0.5009036032127022,0.08302546820434026,0.5688161064632847,0.4925783746737703,0.4050169369954969,0.8385416666666217,1
0.5025642647775851,0.08319677833291289,0.5671557883320607,0.5039045545862578,0.41397855487782653,0.838541666666643,1
0.49902455600995854,0.08260868091994966,0.5714508441172148,0.5393061497873916,0.40860186433032286,0.8385416666666607,1
0.5020419006069061,0.08260297110889281,0.5669947558493569,0.510881323875441,0.4121853907556784,0.8385416666666465,1
0.4976390625630701,0.08318752609847141,0.568662405339467,0.4933571293669338,0.4121853907556793,0.8385416666666359,1
0.5026031308651288,0.08308818054286327,0.5676563162691491,0.5379418798739513,0.40860186433032286,0.8541666666666359,1
0.5005453276064743,0.08247867861054059,0.5694335675113205,0.5301740101857327,0.41039362754300057,0.8541666666666394,1
0.5005057016828139,0.08278323330903486,0.5693427737402349,0.48895549308541164,0.4086018643303234,0.8541666666666607,1
0.4966884347163064,0.08323692061877058,0.5721260681856376,0.5084057409920801,0.4103936275430017,0.8541666666666679,1
0.4988840986037455,0.08275810404017475,0.5712423598672206,0.5472594944182296,0.408601864330322,0.8385416666666501,1
0.4956519763828465,0.08065646558212364,0.5769667058126834,0.51889509851176,0.41039362754300157,0.838541666666643,1
0.4936159473126097,0.08094371271200212,0.5759529040228009,0.4938585586065648,0.4086018643303234,0.8385416666666501,1
0.49400052340558553,0.08014015662388829,0.5770589869764556,0.5240283400974142,0.4068101011176455,0.8385416666666643,1
0.4962844861169373,0.08001469897399838,0.5746099025673489,0.534755825431641,0.40322517378281897,0.838541666666643,1
0.4935213172969197,0.0796241512345493,0.5761263181635538,0.48966861556973257,0.4068101011176447,0.8385416666666323,1
0.497414009493397,0.08028436412795975,0.5746288410036597,0.5046104883707319,0.40501693699549735,0.8385416666666359,1
0.492930023537857,0.07822534885397492,0.5741969832456867,0.5397312967834147,0.40860186433032286,0.8385416666666394,1
0.49556410441839815,0.07924785072828627,0.5707082166197915,0.5152803836285011,0.4050169369954969,0.838541666666643,1
0.49200006457108036,0.07816701241384683,0.5727041547796518,0.4871738283826801,0.4068101011176446,0.8385416666666217,1
0.4963883396932225,0.07793405791914143,0.5705409595429597,0.5256825060257669,0.4032251737828201,0.8385416666666607,1
0.4951445367370426,0.0780300705773348,0.5730233550195151,0.5381210869977707,0.4032251737828194,0.838541666666643,1
0.4947205523401301,0.07987436303786793,0.5722954800155815,0.5047897390841394,0.4032251737828194,0.8541666666666465,1
0.4907966140508082,0.07934226470938971,0.5742731688186444,0.49028868873416115,0.4014334105701417,0.8541666666666572,1
0.49791091105133867,0.07869550846662388,0.5719445459130843,0.5367096989600726,0.40143341057014226,0.8541666666666572,1
0.49290009901083376,0.07944297302493142,0.5753231060569424,0.5340477315457778,0.39605672002263825,0.8541666666666465,1
0.4966541585706732,0.07876285389134374,0.5698304080647278,0.49499210961450485,0.4014334105701417,0.8385416666666359,1
0.4946084294273253,0.08009104147943402,0.5727804582159859,0.4922413576634472,0.3924731935972827,0.8385416666666288,1
0.49703110593179867,0.08075696566884522,0.5692493326104813,0.538627468226953,0.39964164735746355,0.8385416666666359,1
0.4932124719573858,0.07944066548267281,0.5723661909822686,0.5241885814470565,0.3978484832353154,0.838541666666643,1
0.49669134576004226,0.08005009778635491,0.5694186733115878,0.49032682247435555,0.39964164735746355,0.8385416666666465,1
0.4946848675972496,0.08167234523430617,0.5722606274557591,0.5191344673033936,0.3978484832353164,0.8385416666666536,1
0.49620528956574417,0.07919170442558493,0.5694913729855982,0.5408543714945646,0.3960567200226386,0.8385416666666501,1
0.49422806656322593,0.07868440918037728,0.5722121086382638,0.5065635919548765,0.39784848323531563,0.8385416666666323,1
0.49629228474270715,0.07981587573261106,0.5695146901513096,0.4881106442255625,0.3888882662624582,0.8385416666666536,1
0.4950784494266769,0.07774762072727687,0.5722282061954612,0.5301605433216007,0.3978484832353163,0.8385416666666536,1
0.4964546889765612,0.07818140847987015,0.5693965268143633,0.5355953797068368,0.3924731935972836,0.8385416666666536,1
0.49369962274357193,0.08019569149454209,0.5732044952413062,0.5056657244324961,0.3960567200226387,0.8385416666666572,1
0.4951184303027012,0.07975106422328182,0.5714122084231872,0.4889166243930203,0.3942649568099613,0.8385416666666536,1
0.4925087873112298,0.08180911829933424,0.5732761756955156,0.5287524270259658,0.3924731935972835,0.8385416666666572,1
0.49631174420018453,0.07943233433353558,0.5712218406863034,0.5370818281093718,0.3960567200226385,0.8385416666666536,1
0.49649815043331536,0.08072305154975423,0.5722048502690174,0.5072274424350742,0.38709650304978016,0.8385416666666785,1
0.4965371618787956,0.08175996397159385,0.5697110913094318,0.49048876469225866,0.39426495680996043,0.838541666666643,1
0.4961683382678834,0.08292163613727449,0.5719677976735668,0.5265208343678385,0.39426495680996076,0.8385416666666643,1
0.4982659517657597,0.08200747262386604,0.569775037789561,0.5272188781440352,0.385304739837102,0.838541666666643,1
0.49507526224576637,0.08177014359841916,0.5719337629012865,0.4912677924350267,0.3924731935972836,0.8385416666666572,1
0.49665273815260935,0.08136075730766068,0.5697977880659758,0.5108253141030686,0.3888882662624574,0.8541666666666394,1
0.49505348558398954,0.08351263538386172,0.5719180265094924,0.5383457034398692,0.3906800294751356,0.8541666666666607,1
0.4966013314580583,0.0813430312008333,0.569805835574949,0.5149930360972054,0.3835115757149542,0.8541666666666536,1
0.4951684974082149,0.08045179641902178,0.5719264640611725,0.48691105681482527,0.3888882662624571,0.8541666666666501,1
0.49835965994147746,0.08172925490054767,0.5697106381515246,0.5293492491261228,0.3906800294751358,0.8385416666666465,1
0.49392356881314015,0.08062456967884135,0.5708284058635359,0.5412703751318482,0.3888882662624581,0.8385416666666643,1
0.4976179161532748,0.07965875006809137,0.5686549289550008,0.5097527069939135,0.38888826626245665,0.8385416666666323,1
0.49505658850224854,0.08085545261498706,0.5713450921359577,0.486310765948718,0.38709650304978016,0.8385416666666536,1
0.4956867142159028,0.08207743560523151,0.5692655898632005,0.5325412132513286,0.3870965030497795,0.8385416666666536,1
0.4965486763001552,0.08032198203031488,0.5713375458033659,0.5408103410275252,0.3870965030497783,0.8385416666666465,1
0.49656239265493674,0.08121964349431027,0.5680793855039824,0.5094653241627655,0.3853047398371028,0.838541666666675,1
0.4967012310776635,0.08024398916305736,0.5699555791113851,0.48859494758175237,0.385304739837102,0.838541666666643,1
0.4968798399466068,0.08227171959295237,0.5694196664685619,0.5265649488287505,0.37992804928959856,0.8541666666666536,1
0.49772492338148333,0.08156252441102851,0.5720472860613635,0.5354241761121616,0.3853047398371018,0.8541666666666501,1
0.49891686128415047,0.0835982860787376,0.5685983159030032,0.49783373488493826,0.3853047398371018,0.8541666666666465,1
0.4987326506720958,0.08233142899506929,0.5712830465792847,0.49986899726295564,0.38530473983710134,0.8541666666666572,1
0.5003899249572138,0.08281207699406301,0.5710347949441782,0.5375708354904275,0.3835115757149541,0.838541666666643,1
0.4990379150466363,0.08303747428704678,0.5713619188114402,0.5249936892638818,0.3853047398371018,0.8385416666666536,1
0.4983605642007668,0.08315242017373231,0.5702544279092051,0.48959475956550536,0.38351157571495353,0.8385416666666323,1
0.5010673043968704,0.08297258745048841,0.5715151077446473,0.5073498768692224,0.3835115757149541,0.8385416666666572,1
0.500817115473884,0.08317840027623102,0.5701797660707844,0.538623134728436,0.3853047398371031,0.8385416666666643,1
0.49636208944358795,0.08295737822488564,0.5715591948477063,0.5205752551902995,0.3817198125022755,0.8385416666666288,1
0.5017810141288922,0.0831906985278506,0.570162630222937,0.49121857925005225,0.38351157571495387,0.838541666666643,1
0.49673509117366843,0.08294467259538524,0.5709451070719136,0.5000504033358849,0.3709678323167399,0.8385416666666359,1
0.5009648458534209,0.0832060063104686,0.5693963883147827,0.5426171966584262,0.3817198125022765,0.8385416666666536,1
0.498734401012221,0.08292431343197959,0.5713096307692719,0.5199387309794441,0.3817198125022774,0.8385416666666679,1
0.5011199432541347,0.08323556990214781,0.5696275127812079,0.4953943655788966,0.38171981250227605,0.8385416666666465,1
0.5007648469137235,0.08287601098603287,0.5711415917297995,0.503572158305174,0.3799280492895989,0.8385416666666536,1
0.5016247161344307,0.08333390461845186,0.5680314501169662,0.5476206042547184,0.3781362860769215,0.8385416666666536,1
0.5007472389195121,0.08248476164717455,0.5713096581312687,0.5071814094085891,0.3817198125022767,0.8385416666666572,1
0.49960669474944874,0.082711309605501,0.5704138845236717,0.4942338698061188,0.37096783231674035,0.8385416666666323,1
0.501273025824696,0.08310190988297822,0.5711586119228301,0.5254892564028464,0.3799280492895991,0.838541666666643,1
0.5008386405154386,0.08312105363147099,0.5685994474247136,0.5387572623820635,0.37992804928959856,0.8541666666666394,1
0.5008057596124005,0.08296294092991358,0.5713360840316662,0.4979023508216449,0.37813628607692085,0.854166666666643,1
0.5025082104229384,0.08326498072613042,0.5667002572684795,0.5055889885339034,0.37634312195477326,0.8541666666666501,1
0.5002164943623445,0.0825327928087195,0.5550061396819852,0.5387708899256887,0.37634312195477304,0.8541666666666465,1
0.5008941776991761,0.08271722885413413,0.5558080898199855,0.5292658328159103,0.3763431219547728,0.838541666666643,1
0.4996271503561708,0.08270499318467761,0.5575121212040741,0.4876328729037217,0.3691746681945913,0.8385416666666394,1
0.5008662488690577,0.08098663171238851,0.5568728150992703,0.5009817017292061,0.37992804928959856,0.8385416666666536,1
0.5020283932884668,0.08089683384419172,0.5584754698974806,0.5413359313282212,0.37813628607692085,0.8385416666666359,1
0.49837007309025905,0.0819162012001255,0.5575647891608795,0.5305330620578688,0.3763431219547724,0.8541666666666359,1
0.49925375015724616,0.08128140698400232,0.5581480215705581,0.5001165733842574,0.3763431219547726,0.8541666666666501,1
0.4967355274020241,0.0805434805712662,0.5569476809789835,0.48899592157803273,0.3781362860769204,0.8541666666666359,1
0.49839789199185647,0.08101207493451751,0.5580908360523531,0.5353404983502084,0.3763431219547726,0.8541666666666359,1
0.49829333615249916,0.08029257540183582,0.5580351364748072,0.5317430911300853,0.36738290498191406,0.8385416666666643,1
0.4980086896520738,0.07967738410438019,0.5574760794945756,0.4910838994351658,0.3727595955294183,0.8385416666666501,1
0.49991947746709464,0.07949709760051343,0.5581051592940548,0.5027210169535035,0.3763431219547726,0.8385416666666359,1
0.49939290104137257,0.07726408435863674,0.5540510216011248,0.5408131894257716,0.37275959552941795,0.8385416666666501,1
0.49583928000653177,0.07837880232353484,0.5545483404385042,0.517666808905424,0.3745513587420951,0.8541666666666288,1
0.49432051670005417,0.07899478990367004,0.5598038283020896,0.4855655758957904,0.3709678323167406,0.8541666666666465,1
0.5024118469203958,0.08178510394854793,0.5579454842097424,0.5266730865857746,0.37455135874209555,0.8541666666666359,1
0.5086910859627287,0.08372834574243032,0.5668955611449715,0.5414992008487657,0.3745513587420951,0.8541666666666359,1
0.5034111582027295,0.08387098246607982,0.5627844407839854,0.5039826575358798,0.3763431219547728,0.8541666666666501,1
0.5066205146165467,0.08571908851289062,0.5598689322540094,0.4669361607203528,0.3781362860769213,0.8541666666666714,1
0.5115429295940036,0.082947145105775,0.5456504487070262,0.4969304716303206,0.37813628607692085,0.8541666666666288,1
0.504470252274158,0.08327646758070784,0.5547401384557343,0.5221935354816523,0.37992804928959834,0.8541666666666572,1
0.5062784727830094,0.08268558443015811,0.5512157069502941,0.5521638183404258,0.3745513587420949,0.8645833333333037,1
0.49975722883094054,0.079327247099299,0.5589667033375931,0.5020723721613835,0.3781362860769213,0.864583333333325,1
0.4955925259914016,0.07868653338352755,0.5557981290812843,0.5280839860420258,0.3763431219547718,0.8645833333332966,1
0.4946028830107767,0.0784634532744401,0.5602002822987463,0.5732588846407674,0.37634312195477304,0.8645833333333428,1
0.4935138800357296,0.08146220098404072,0.5564521675647525,0.5328367364690824,0.3763431219547728,0.8541666666666607,1
0.49532222058328934,0.07778671768382589,0.560567271849206,0.4879963801252686,0.3745513587420949,0.854166666666643,1
0.501545463502722,0.08125964199614832,0.5550709442571345,0.5085600206136289,0.3745513587420949,0.8541666666666394,1
0.5031820736212915,0.07984270217540546,0.5598868324714152,0.5109106902301229,0.3727595955294172,0.8541666666666465,1
0.49549279333876706,0.08164984623339228,0.5623759968013069,0.48303234572472015,0.37455135874209466,0.8541666666666323,1
0.504748213637526,0.08413572091448857,0.5696637790047572,0.5241214541014586,0.3691746681945929,0.8541666666666572,1
0.5098478568579732,0.08753596457971258,0.5724182962288271,0.5322096400609434,0.3727595955294176,0.8541666666666572,1
0.5074997028628049,0.08632576331623798,0.5708180733552807,0.48820251214609206,0.3709678323167389,0.8541666666666465,1
0.5029885240974591,0.08418159937548148,0.5667895168123532,0.5172533634156864,0.3727595955294182,0.8541666666666643,1
0.5084300683618346,0.08453738502934399,0.5688371166449674,0.5294776462193317,0.3709678323167389,0.8541666666666536,1
0.5062016035688615,0.08393622869035039,0.5654740782462715,0.4933699178645692,0.37096783231674113,0.8541666666666679,1
0.5032988588791685,0.08286996690921694,0.5616070621261587,0.5252282845628322,0.3727595955294182,0.8541666666666501,1
0.5073802996479304,0.0832970681243137,0.5630849704320486,0.5408419541650425,0.3709678323167397,0.8645833333333108,1
0.5061305086356354,0.08373090092841473,0.5610293382795648,0.5017516821057698,0.37096783231674035,0.8645833333333215,1
0.5068903437933018,0.08303470785593664,0.5629632017982644,0.4852449471534999,0.37096783231674024,0.8645833333333179,1
0.5044575142804502,0.08308337084531936,0.5639293063425621,0.5347035734481962,0.37096783231674046,0.8645833333333108,1
0.5072505078051256,0.08306377752977784,0.5627183679394823,0.5338137007352961,0.3709678323167406,0.8541666666666607,1
0.5043802668595437,0.08307704691225365,0.5628786321687088,0.5005184329874877,0.3620062144344106,0.8541666666666679,1
0.5059269146584409,0.08306531056034977,0.5611069413205453,0.5085981316848646,0.360214451221733,0.854166666666643,1
0.5037816782481204,0.08307692396953031,0.5618358407138289,0.5419027620589595,0.36559114176923624,0.8541666666666323,1
0.5039418491997386,0.08306493864084763,0.5616471208577948,0.5169845511071424,0.36559114176923546,0.8541666666666217,1
0.5030625167119515,0.08307750311571949,0.5613669847840369,0.49329186586238555,0.3673829049819145,0.8541666666666359,1
0.5030769386099844,0.08306424658298073,0.5625125608986113,0.5132384286705963,0.36559114176923635,0.8541666666666501,1
0.5027761009055856,0.08307827908748522,0.5627529206134438,0.5350783358281195,0.36738290498191406,0.8541666666666572,1
0.504432395226386,0.0830633933699032,0.5620199182353386,0.5026625792225214,0.3673829049819154,0.8541666666666607,1
0.5035931790148065,0.08307920953054032,0.5640279576594409,0.494608030288165,0.3655911417692356,0.8541666666666465,1
0.5026415565105766,0.08306238508427255,0.5609065215259079,0.5268628532065045,0.3655911417692361,0.8541666666666359,1
0.5035551880891526,0.08308029439905251,0.5653024890392502,0.5317644847584012,0.36379937855655864,0.8541666666666394,1
0.5034261893781008,0.08306122800406213,0.5612685848028696,0.49788192680529175,0.3637993785565582,0.8385416666666359,1
0.5035959387639763,0.08308151528926261,0.5649276960609736,0.4938413124659728,0.3602144512217327,0.8385416666666536,1
0.5032554965222905,0.08305995677956757,0.5619883444009036,0.5281639316755434,0.3620062144344104,0.838541666666643,1
0.5044448405682236,0.08308281684739877,0.5636367770791906,0.5311848122718609,0.3620062144344107,0.8385416666666359,1
0.5034239526878429,0.08305865354411185,0.5602719905667772,0.4934246350966524,0.36200621443440995,0.8541666666666465,1
0.5043842774910506,0.08308408127714312,0.5634825682430279,0.5031234022748182,0.36200621443441083,0.8541666666666359,1
0.5049245317694939,0.08305748499612026,0.5604541415574976,0.5363558236342214,0.36200621443441094,0.854166666666643,1
0.5043240043988549,0.0830850729962499,0.5629879827599082,0.5138030385305684,0.3637993785565584,0.8541666666666394,1
0.5037279340158638,0.083056786303498,0.5580194590039987,0.4904598460759263,0.3637993785565581,0.8645833333332895,1
0.5035022825592355,0.08308530883085452,0.5621872716664752,0.5338763401619753,0.3637993785565593,0.8645833333333108,1
0.5038274982158129,0.08305726783321637,0.5603443637677491,0.5339520740187649,0.3620062144344104,0.8645833333332895,1
0.5047744667949042,0.08308371507164358,0.5587429606082948,0.509573853734654,0.36021445122173223,0.8645833333332966,1
0.5042764171710216,0.08306061791439284,0.5559814592524631,0.4875702076027545,0.35842268800905586,0.8541666666666501,1
0.5065361202643287,0.08307747322045561,0.558926893790508,0.5363579659798072,0.360214451221732,0.8541666666666465,1
0.506306051596719,0.08307203941893526,0.5569727619412478,0.5308249643593457,0.35842268800905497,0.8541666666666394,1
0.5027921244368554,0.08305486891585379,0.5595277947311165,0.5145262651183657,0.3584226880090555,0.8541666666666288,1
0.5056040191804196,0.08388454875083928,0.553619263406258,0.48689401072641236,0.3566309247963775,0.8645833333332966,1
0.5067583033022148,0.08388531828035956,0.5463787155131133,0.5313550321750612,0.3584226880090555,0.8645833333333037,1
0.5028380262955018,0.08180854510692387,0.5350000129062308,0.5342994041499277,0.3566309247963778,0.8645833333333286,1
0.5000008197078455,0.0778563513774771,0.5194194183541145,0.5227700168057703,0.35663092479637637,0.8645833333332966,1
0.49680186503734924,0.07614440203145278,0.5132987849247559,0.4887795895650423,0.35842268800905563,0.8541666666666501,1
0.4979548080117643,0.07735850755041651,0.5104498645659084,0.5048939657316149,0.3584226880090555,0.8541666666666394,1
0.49874752766096864,0.07692431025315727,0.5112280500846237,0.5306500486842556,0.35663092479637726,0.8541666666666394,1
0.5025205410241445,0.07733325064781388,0.5313360828461738,0.5266319781811655,0.35125423424887303,0.8541666666666359,1
0.4969554221830117,0.08364825468944803,0.528733940957434,0.5047991969699256,0.3530459974615514,0.8645833333333108,1
0.5306669932034561,0.09555961122843087,0.5309531582663485,0.49115859949328794,0.35304599746155174,0.8645833333333179,1
0.5329543624181533,0.10513585781429113,0.5919567148382294,0.527581179447534,0.35483776067422834,0.8645833333332789,1
0.542570188283455,0.16537281180616442,0.6886574490880004,0.5248963898724224,0.3458775437013716,0.8645833333333215,1
0.5720541756125271,0.16819643942374923,0.6761809743399237,0.4730058442231453,0.35842268800905497,0.8854166666666501,1
0.5682585250991486,0.1492233086327565,0.6376551498948728,0.46388487534589373,0.36200621443441017,0.8854166666666465,1
0.5601386597901941,0.1489086722843378,0.6333205356155626,0.5605248337120795,0.36379937855655875,0.8854166666666394,1
0.5576002105913039,0.140498660745675,0.6287932179197284,0.5635133172683469,0.3637993785565591,0.8854166666666643,1
0.5565226589927325,0.13701544876199728,0.6294163933687691,0.5326311248611155,0.3620062144344116,0.8645833333333321,1
0.5473927622698308,0.13204490097456717,0.6287258710784918,0.5191025375155439,0.3637993785565582,0.8645833333333108,1
0.545709506180884,0.13143512534928792,0.6285491583692511,0.5267005499760751,0.3584226880090555,0.8645833333333215,1
0.5459170244081538,0.128936721171037,0.6273140237976818,0.4993424705706474,0.3637993785565584,0.8645833333333179,1
0.5402776042182045,0.12508449467945554,0.6180091298521942,0.49285958721636386,0.3602144512217327,0.8749999999999751,1
0.5378867396615604,0.12308471748032179,0.6216572608712183,0.5263367580365587,0.3602144512217338,0.8749999999999822,1
0.5449058491035749,0.12476024585772971,0.622473786456026,0.5299660764872763,0.360214451221733,0.8749999999999858,1
0.5372759366089507,0.12501541216798867,0.6226786380258953,0.4950866915130107,0.3602144512217329,0.8749999999999751,1
0.541080269247305,0.1250597345437126,0.6186623354332867,0.503107990891382,0.3637993785565591,0.8749999999999858,1
0.5404521490522435,0.12438269610030656,0.6203035685579781,0.5380177769619895,0.3620062144344106,0.8749999999999893,1
0.5425311460643621,0.1233717205680483,0.6169199327860636,0.5235328416805062,0.36200621443441083,0.875,1
0.5374707980781067,0.12044564332502172,0.6161690047759875,0.4970416171741293,0.36200621443441106,0.8749999999999751,1
0.5413458554896519,0.12155961897130874,0.6158502989420912,0.5107195506098258,0.35842268800905497,0.8645833333333037,1
0.5384176933728136,0.12043099969708293,0.6163651404243649,0.5350276953481414,0.3566309247963768,0.8645833333333002,1
0.5395089175927062,0.12014048681962664,0.6158233500686559,0.5045355294298802,0.35842268800905597,0.8645833333333286,1
0.537578382271263,0.11881631280859706,0.61577808389642,0.5025418640952503,0.36021445122173334,0.8645833333333179,1
0.5400544087516754,0.11919245729207945,0.6127877806980989,0.5325765301322879,0.36021445122173334,0.8749999999999716,1
0.5387878388855624,0.11887361595601409,0.6098071335047945,0.5281127757061439,0.36200621443441083,0.8749999999999858,1
0.5409152065020556,0.11916067059515345,0.6096732886315726,0.49350163796753443,0.36021445122173357,0.8749999999999822,1
0.5374722466619665,0.11889458161827887,0.6106644374510175,0.5029759781559933,0.35842268800905586,0.8749999999999858,1
0.5396717202265462,0.11914645883186054,0.6088636170775641,0.5360390360561805,0.3602144512217331,0.8645833333333073,1
0.5376585499388025,0.11890308394501287,0.6103935956430198,0.5247613498615875,0.3584226880090554,0.8645833333333215,1
0.5396022143474007,0.11914463048467355,0.608732603635633,0.49481835999339335,0.3566309247963775,0.8645833333332931,1
0.5376745316718696,0.11889351583837376,0.6111004921123757,0.5024846635821988,0.35663092479637726,0.8645833333333144,1
0.5396486726176308,0.1191869933643605,0.6101647116102892,0.535134143014258,0.35483776067422923,0.8749999999999822,1
0.537324973173856,0.11821444709293233,0.6099223689226623,0.5216643129486512,0.3512542342488737,0.8749999999999822,1
0.5381535063917832,0.11824649928514014,0.609108313423752,0.49972728766019964,0.3566309247963776,0.8749999999999858,1
0.5365998655369676,0.1189969163406045,0.6104563788715345,0.5030805297475234,0.35842268800905563,0.8749999999999964,1
0.540046925423363,0.11906727424727176,0.6097304243051189,0.5402532099071202,0.35483776067422945,0.8749999999999858,1
0.5376212695920187,0.11896745502598255,0.6100703622610213,0.5138476370179347,0.3566309247963779,0.8749999999999787,1
0.5381978455086689,0.11909433477599946,0.6088705021625216,0.4967285240239112,0.35483776067423056,0.8750000000000249,1
0.5380929909248117,0.11892300902871578,0.6100556289324491,0.5170680204100517,0.3566309247963779,0.8750000000000071,1
0.5394856792482572,0.11920850508500852,0.6094097505659648,0.5368911947222188,0.35842268800905586,0.8645833333333179,1
0.5371344404969203,0.11820423205601333,0.60803202545582,0.4984937244168111,0.3566309247963777,0.8645833333333002,1
0.5383178117903631,0.11726721441238436,0.6081320418434986,0.4997686401883372,0.3566309247963775,0.8645833333333037,1
0.5376284271355597,0.11784580155160679,0.6088241349737186,0.5316560978781238,0.3530459974615525,0.8645833333333037,1
0.5353978886326436,0.1170335336265022,0.605170357139159,0.5305958936768536,0.35483776067422956,0.8749999999999964,1
0.5353855981887233,0.11465327507554518,0.6066975868290335,0.4948480142701348,0.35304599746155174,0.8749999999999893,1
0.5393165716171496,0.11382093412707173,0.6049638681815355,0.508288018336414,0.35125423424887403,0.874999999999968,1
0.5304239433247755,0.11611539226702844,0.6112321011225911,0.5353092192197477,0.3530459974615521,0.8749999999999822,1
0.5437226525474164,0.11367797618343256,0.5702532006737497,0.5251799977704951,0.35483776067423023,0.8645833333333037,1
0.5525849309228736,0.11179317225932184,0.5426559366049651,0.49439321293295396,0.35483776067422956,0.8645833333333144,1
0.5431556420483842,0.11097213011782542,0.5402626791726179,0.5119495320837435,0.3530459974615521,0.8645833333333179,1
0.548292118703223,0.10625806017200234,0.5371502466798319,0.5344616310910147,0.35125423424887403,0.8645833333333215,1
0.5342594126306741,0.10548508917280824,0.5585059850319937,0.5228253051741888,0.3494624710361959,0.8645833333333215,1
0.5265381830743057,0.10534679446687534,0.5785780627080055,0.5041959317942237,0.34946247103619654,0.8645833333333002,1
0.5305768836838044,0.10647593868697436,0.5866681993563712,0.5444004643795232,0.34587754370137047,0.8645833333333108,1
0.5275892561728673,0.10668717326056121,0.5915389659274788,0.5433613633914158,0.34766930691404774,0.8645833333333002,1
0.5276922980674666,0.10332196960182516,0.5761106263904903,0.47620705407077046,0.34408578048869287,0.8854166666666607,1
0.5320984907481356,0.10076767117705004,0.5696317941999193,0.4757833642385627,0.3422940172760156,0.8854166666666465,1
0.5297754580831929,0.1012227670186161,0.5705588849760198,0.5194512155271954,0.3422940172760156,0.8854166666666501,1
0.5290917968489068,0.10091949309911857,0.5715022139616823,0.527865640154459,0.34229401727601616,0.8854166666666501,1
0.5276667819767129,0.10114609727125734,0.5698264392802658,0.4903221116211273,0.34229401727601505,0.8854166666666607,1
0.5300074837558252,0.10096943138574388,0.574460981141101,0.506359899165663,0.34229401727601527,0.8854166666666536,1
0.53046425309113,0.10110642583816482,0.5718381647496362,0.5350947945126219,0.34229401727601594,0.8854166666666536,1
0.5257311142563387,0.10100818810348255,0.5722363176088451,0.5163357419285903,0.3405008531538677,0.8854166666666643,1
0.5249373623676494,0.10105714485383843,0.5734017258194768,0.4951120149173857,0.3387090899411891,0.8645833333332966,1
0.5264214746841362,0.10109942187692433,0.573471426864508,0.5243807621182108,0.33691732672851193,0.8645833333333073,1
0.5276541838866174,0.1006824581935235,0.5727792201260312,0.5400366037170354,0.3369173267285116,0.8645833333333002,1
0.5255483302024273,0.10044735097949437,0.5704565124234344,0.507649340808528,0.33691732672851227,0.8645833333333108,1
0.5276055846348715,0.10134923495155457,0.5722806551450494,0.4965282080388533,0.3387090899411902,0.8854166666666572,1
0.5277532644480257,0.10077282740731036,0.5714770421495942,0.5286777635310984,0.3405008531538679,0.8854166666666501,1
0.5262974308642792,0.1013150776143214,0.5714862072307252,0.52878110509624,0.33870908994118953,0.8854166666666465,1
0.5242071253458657,0.09776471625982097,0.5618234413715912,0.49561202974403457,0.3369173267285114,0.885416666666643,1
0.5238802312876872,0.09474826731074615,0.5539304036213332,0.5137396092924168,0.33870908994118964,0.8854166666666607,1
0.5236423917056484,0.09519650925000062,0.5507778144383788,0.5352565056490383,0.33870908994118964,0.8854166666666288,1
0.5215555972432596,0.09497520528178516,0.5524359224058184,0.5196516478133977,0.3387090899411893,0.8854166666666359,1
0.5182577791575324,0.09507905833210939,0.551439342587521,0.4953510307305165,0.3333323993936864,0.8854166666666465,1
0.519059493354081,0.09335932964626859,0.5528787895762654,0.5173337625846259,0.33333239939368575,0.8749999999999787,1
0.5185183258967766,0.09166786453012044,0.545867362525167,0.5297692194836267,0.33691732672851116,0.8749999999999538,1
0.5193574280583333,0.09206184706527637,0.5378696818383025,0.5121086876655822,0.33333239939368686,0.8749999999999929,1
0.5168118630937127,0.09046506989884184,0.5390250666288844,0.49396916646248173,0.33512556351583367,0.8749999999999751,1
0.520647402230587,0.0930095056495916,0.5382468711942444,0.5207353952358509,0.3333323993936862,0.8749999999999858,1
0.5210602832597465,0.09348507843882292,0.5381535939945097,0.5302300098070856,0.33512556351583367,0.8749999999999822,1
0.5208521955107386,0.09347020820523205,0.5376227952649265,0.5053207411047586,0.3297488729683312,0.8749999999999964,1
0.5194769150566297,0.09478048334845063,0.5370896415921743,0.49928231759399927,0.32974887296833055,0.8749999999999822,1
0.5226958495609223,0.09462074140801058,0.5384689509585405,0.5300046959973411,0.33154063618100893,0.895833333333325,1
0.5211659283792606,0.09407059956848307,0.5369097330654343,0.5173139288797206,0.3315406361810087,0.8958333333333108,1
0.51872028928039,0.09427283380758639,0.5357182293538958,0.49241295499061855,0.32974887296832966,0.8958333333333037,1
0.5202951326569655,0.09434406043183324,0.5364546339873443,0.5231939065286628,0.3243721824208283,0.8958333333333144,1
0.5195461146847865,0.09102233417423355,0.5351892748433283,0.5353279711648863,0.32974887296833155,0.8854166666666572,1
0.5163198384313447,0.08910639979890217,0.5381760920885326,0.49903138752904924,0.3279571097556524,0.8854166666666288,1
0.5179109919034733,0.08899491637723589,0.5369030185592489,0.5065933702355975,0.3315406361810085,0.8854166666666359,1
0.5163921833476589,0.08901127631428468,0.5368980166876923,0.5343196025401394,0.32974887296833055,0.8854166666666394,1
0.5166811298973956,0.08821589126202373,0.5361291171546311,0.5109169912268606,0.3279571097556533,0.8854166666666536,1
0.5165368328941042,0.08936915501366938,0.5385503041376198,0.4901872392308628,0.3297488729683318,0.8854166666666394,1
0.5158646973463585,0.08881902238596467,0.5381330896677076,0.5256309434514053,0.329748872968331,0.8854166666666607,1
0.5130772472106491,0.08928160677324698,0.5387506574096982,0.5392206497549498,0.32974887296833044,0.8854166666666465,1
0.5133124002037447,0.08886103877325147,0.5375546340787585,0.5049325085457947,0.3261639456335048,0.90625,1
0.5167767237083464,0.08924847195249064,0.5376575975283153,0.5016466197914984,0.3279571097556533,0.906249999999968,1
0.5148720269517497,0.08890813975145917,0.5377004222889893,0.5383126165543016,0.3136202022352913,0.9062499999999893,1
0.5144332280586692,0.08909939507005332,0.539145873007487,0.5226457165810335,0.3261639456335055,0.9062499999999822,1
0.5170708397007803,0.0881114702969294,0.5373056019460365,0.4954813668063888,0.32616394563350526,0.8854166666666394,1
0.5153077444544593,0.08949318182786659,0.5387948245337497,0.5190940147630382,0.32616394563350504,0.8854166666666288,1
0.5138442216984096,0.08752468682252218,0.5374237477054511,0.5383346278663159,0.324372182420828,0.885416666666643,1
0.5160358489964699,0.08899773809758776,0.5390289459292327,0.5025604929071895,0.3243721824208283,0.8854166666666679,1
0.5113501737005732,0.08758062077497775,0.5382993781628531,0.5017329973782523,0.32616394563350504,0.8854166666666359,1
0.5115186958052761,0.088290715777322,0.5382284115884671,0.5328398733838048,0.31899549187332443,0.8854166666666607,1
0.5158586299454769,0.08732708888895024,0.536617742800893,0.5227577432251342,0.3261639456335055,0.8854166666666679,1
0.5139894405708876,0.08831305117037913,0.5374513043236719,0.4930253439847133,0.3243721824208271,0.885416666666643,1
0.5138879390497394,0.08936245301419127,0.5401735783452674,0.5100083178805316,0.3243721824208281,0.8854166666666607,1
0.5180014610165168,0.08863265485915567,0.5437842737701122,0.5382444096660735,0.32258041920814895,0.8854166666666323,1
0.5125525348833625,0.09219409202145412,0.5642504624290291,0.5180950353371793,0.3225804192081496,0.8854166666666572,1
0.5130775581374635,0.09412930322041901,0.573820623370262,0.49291748076465536,0.32078865599547157,0.8854166666666394,1
0.5126002424025352,0.09263236191953689,0.5703053920441855,0.5189645444242875,0.3118270381131435,0.8750000000000071,1
0.5169464586797688,0.09456172324192158,0.5762513236149757,0.5359557814965202,0.3207886559954719,0.8749999999999751,1
0.5172457532174954,0.09475653717827459,0.5720523944995489,0.5002101100587262,0.3207886559954727,0.8749999999999858,1
0.5140656660686177,0.09542077522104397,0.5774310819527672,0.4909589357208472,0.320788655995472,0.8749999999999893,1
0.5158882592346077,0.09462200829345041,0.5735812443122934,0.5245441208432637,0.32078865599547124,0.8854166666666359,1
0.5181177185193382,0.09627700498772712,0.5795717341955138,0.528493719928855,0.32078865599547257,0.8854166666666572,1
0.5194928226888743,0.0993428098663035,0.5848306697302359,0.5033438750031918,0.32078865599547157,0.8854166666666252,1
0.522433679149924,0.10165681810722871,0.5907338150580205,0.5208307462283472,0.31899549187332366,0.8854166666666536,1
0.5207982804317315,0.10055306699079686,0.5896845280064983,0.5390219759974445,0.31720372866064717,0.8854166666666465,1
0.5220222790111948,0.10149492325043719,0.5908485332748615,0.5061677357359626,0.318995491873323,0.8854166666666394,1
0.5213211616364686,0.10065730815855506,0.5895676493951907,0.49631602746353415,0.3172037286606465,0.8854166666666465,1
0.5205384949532833,0.10112380299177792,0.5910730009194375,0.5307651530191067,0.3172037286606464,0.885416666666643,1
0.51604125213752,0.09758226799788339,0.5882984983373366,0.5224237297975364,0.3172037286606457,0.8958333333333073,1
0.5182348702005747,0.09828765670339273,0.5865645008914948,0.4923275063797244,0.31720372866064594,0.8958333333333073,1
0.5163065720269299,0.09581809520579021,0.589448054833059,0.5145911314855716,0.31182703811314394,0.8958333333333393,1
0.5181782695292696,0.09611390095107863,0.5881587962468111,0.5382582342093815,0.315411965447968,0.8958333333333037,1
0.5162445094152871,0.09594347141247117,0.5891605542980356,0.5134917800855653,0.3154119654479687,0.8958333333333037,1
0.5186046398085044,0.09653441926325818,0.5894520336180858,0.49025229253410874,0.3154119654479689,0.8958333333333002,1
0.5170581802485165,0.09411373838298354,0.5861862388882223,0.5232070241349163,0.31541196544796857,0.8958333333333144,1
0.5174715210692453,0.0959660443696681,0.5879358386006635,0.5319122740680463,0.31362020223529163,0.8958333333333179,1
0.5157361919490407,0.09412623414282906,0.5862956702332053,0.4958404926006782,0.3154119654479691,0.8854166666666679,1
0.5185137482971846,0.09602289061984542,0.5856894614374573,0.5082059179707309,0.31362020223529163,0.8854166666666643,1
0.5147223398726476,0.09403274139241669,0.5853716947212906,0.538420889227464,0.31541196544796823,0.8854166666666501,1
0.5177391268570771,0.09615022615861757,0.5872966462009603,0.5143660470762162,0.315411965447969,0.8854166666666501,1
0.5163962738613881,0.09385739814640975,0.5851237938877374,0.49263661238921785,0.3136202022352911,0.895833333333325,1
0.5178125187073902,0.0964607801153809,0.5862741577755717,0.5262568595564028,0.3154119654479678,0.8958333333333144,1
0.5156300612868895,0.09446986086741566,0.5852189359468281,0.5341804525170741,0.31362020223529086,0.8958333333333073,1
0.5205728169159471,0.09803873642495564,0.5870160986416747,0.4999565134044875,0.3154119654479691,0.8958333333333286,1
0.5140989426173793,0.09505350706998766,0.5877510782732243,0.49804325247719605,0.315411965447968,0.8854166666666501,1
0.5199095997250088,0.0962421164856862,0.5894343969893416,0.5346535532585888,0.315411965447968,0.8854166666666394,1
0.5120627047155867,0.09618480763181991,0.5865937603820928,0.5291414606510582,0.31182703811314283,0.8854166666666394,1
0.5322853671595753,0.10559692629474604,0.5897062583640457,0.49837916625923173,0.31182703811314283,0.8854166666666607,1
0.528869104194171,0.10465822009939535,0.582875620881393,0.4998857870682375,0.30465858435296145,0.8958333333333108,1
0.5353286008920273,0.11019817117325198,0.5772551123759276,0.536083308632906,0.3136202022352911,0.8958333333333108,1
0.5354806041390634,0.10609408222262462,0.5788158805278001,0.5205415082236943,0.31182703811314283,0.8958333333333144,1
0.5598364108021524,0.1347735143641389,0.6286978323401768,0.4821690125394584,0.31182703811314305,0.8958333333333144,1
0.5567465377230462,0.15518061685692558,0.6235830042411712,0.5115740168903896,0.3136202022352914,0.8958333333333179,1
0.5880693517980976,0.1405692855647005,0.6165666213554725,0.5607245591656349,0.31362020223529175,0.8958333333333144,1
0.5353017121705728,0.13063671672624655,0.6402206248561662,0.507252624786727,0.31362020223529063,0.8958333333333037,1
0.5634582098887345,0.18361328823501,0.697936777666774,0.464429286587438,0.3118270381131424,0.8958333333333144,1
0.5178581945758197,0.26370177063776856,0.8181928069993064,0.5055715411964785,0.3172037286606457,0.8854166666666146,1
0.45746310119238504,0.2573247742048058,0.8199961186355801,0.5507268527952817,0.32258041920814895,0.8854166666666394,1
0.5309700383639381,0.23488320289119638,0.8044937843206652,0.50397876036578,0.32616394563350626,0.8854166666666607,1
0.5180131799717717,0.23906493935849552,0.7894884514578686,0.4984946963050307,0.32078865599547146,0.8854166666666359,1
0.5413237898334248,0.23751487687792497,0.7765335367183721,0.5720242427123441,0.3207886559954718,0.8958333333333073,1
0.5076528290142311,0.24622941061933237,0.7990021069462219,0.606437725208938,0.31899549187332377,0.8958333333333037,1
0.5079979635053264,0.23723711897601865,0.784408570845395,0.43767925013775105,0.3189954918733242,0.8958333333333108,1
0.5916219726862878,0.2709418562940008,0.7668675262209739,0.46227858929621435,0.31899549187332454,0.8958333333332966,1
0.6249575693759613,0.23514363994175033,0.6980809344127383,0.5441202671856531,0.3172037286606455,0.8854166666666394,1
0.5297971388247238,0.1424214436323508,0.6256999381305354,0.49956902774939,0.31362020223529063,0.8854166666666394,1
0.5381597996814176,0.12126351865946017,0.6242814012052654,0.5114078803059889,0.3082435116877872,0.8854166666666501,1
0.55286676959718,0.1350293236316866,0.6430109559997332,0.5260439625206248,0.31003527490046534,0.8854166666666501,1
0.5674028970492977,0.14393958764129258,0.6071891073504041,0.539800351806314,0.30465858435296156,0.8854166666666323,1
0.578324807959798,0.13669362076226738,0.5820132216110377,0.5718453265629664,0.3100352749004651,0.8854166666666501,1
0.5873978219326146,0.13985529696838675,0.5687140491139991,0.44975045734368,0.30824351168778785,0.8854166666666465,1
0.5530909747802093,0.12205511984262823,0.5707326693797423,0.48193186514413106,0.30824351168778674,0.8854166666666323,1
0.5418103815126731,0.11413829025782857,0.5725087713680578,0.505486681654408,0.3046585843529622,0.8749999999999858,1
0.5366454113984214,0.10529480867894137,0.5724619432881072,0.564484451829232,0.304658584352962,0.8749999999999751,1
0.5331269252677331,0.10570250717962754,0.570761510159706,0.5344050013591338,0.3046585843529611,0.8749999999999751,1
0.5277763775537402,0.09964327004275692,0.5711825737325561,0.48459618922553904,0.3028668211402842,0.8749999999999787,1
0.5317929719068168,0.10283833924974922,0.5666074591496931,0.5185923844354481,0.3064517484751099,0.8958333333333215,1
0.5269023806353195,0.09931416505727958,0.5676180239237292,0.5381949945740571,0.30645174847511036,0.8958333333333286,1
0.5280880938842559,0.10057316276335976,0.5670284779444944,0.4967276325952601,0.3046585843529618,0.8958333333333179,1
0.5270428120824012,0.09799262612233878,0.5700276940309761,0.49299172779110334,0.3028668211402833,0.8958333333333179,1
0.5224165687133843,0.0968840178910193,0.5683221244613953,0.5252190435893058,0.30465858435296134,0.8854166666666252,1
0.5195106305457384,0.0945269968961655,0.5718111936187465,0.5109775207918617,0.30465858435296167,0.8854166666666501,1
0.5195743832486346,0.09690075114573332,0.577810004095492,0.48882467579375555,0.30286682114028385,0.8854166666666394,1
0.5179472321271689,0.09379758472579358,0.5781727530130125,0.5306438335885973,0.3046585843529612,0.8854166666666288,1
0.5167876057147576,0.09647528689496071,0.5777621826095423,0.5350995711630762,0.30465858435296245,0.8958333333333215,1
0.5185909989959744,0.0946022148674347,0.5775042210022884,0.5014637298118061,0.3064517484751099,0.8958333333333037,1
0.5175044775528861,0.09594679921090499,0.5769881919395744,0.511373769059166,0.3046585843529609,0.8958333333333002,1
0.5141685229007742,0.09373344245613136,0.5778047415143818,0.5371277273938204,0.3028668211402846,0.8958333333333393,1
0.5155478664616598,0.09537871758071015,0.5765664419088756,0.508080838884228,0.30286682114028496,0.895833333333325,1
0.5146565661018588,0.09462581269482978,0.5759596091137248,0.4942125342584427,0.3010750579276066,0.8958333333333215,1
0.5122870696152216,0.09237388327391383,0.5776663977869062,0.5275629620528787,0.2992832947149283,0.8958333333333144,1
0.504829821437429,0.08879287872715458,0.5783777323330683,0.5255468186835677,0.3046585843529619,0.8958333333333286,1
0.5109060816961056,0.09092384455515878,0.5770074897089036,0.4892639296879643,0.3010750579276068,0.8958333333332966,1
0.5057069910869751,0.0923472994790272,0.598505418769252,0.5175957091015926,0.30286682114028407,0.8958333333332966,1
0.5041568337434753,0.10233059747740492,0.6200237740454031,0.5369614483542412,0.30107505792760747,0.8958333333333073,1
0.5330822002014081,0.10065251705143624,0.5777024628252988,0.4943883685877034,0.30107505792760647,0.895833333333325,1
0.5215874065000536,0.10085908752863082,0.5855411863774005,0.5004882998781373,0.29928329471492954,0.895833333333325,1
0.513719766859776,0.0933060591271534,0.5822572869927595,0.5385909167895068,0.30286682114028474,0.8958333333333144,1
0.5176745309851214,0.09622287237001187,0.5787403986876489,0.4899329921042174,0.3028668211402843,0.8958333333333144,1
0.511158459743212,0.09267477628720461,0.5765358278084677,0.4997128207180855,0.3010750579276068,0.8958333333333179,1
0.5132245128288365,0.09353313976485766,0.5766067452255034,0.5434387792474644,0.2992832947149293,0.8958333333333179,1
0.5114171470023443,0.08930515294611563,0.5735588059128437,0.5687573355946719,0.295698367380102,0.8958333333332966,1
0.5155109432105538,0.09093787685550792,0.5737719414882173,0.4819683376506837,0.2992832947149292,0.895833333333325,1
0.5101335030625207,0.08959509607307109,0.5710767200220916,0.5047733690867114,0.29749013059278095,0.8958333333333037,1
0.5123102629793047,0.08958165663271445,0.5712502619413808,0.5240142838911647,0.29928329471492765,0.8958333333332931,1
0.5102067232427585,0.08932347853005118,0.5699272540155126,0.5060532167538001,0.29569836738010324,0.8958333333333286,1
0.5118333928824448,0.08935723461347672,0.5711989946386667,0.5118281340011165,0.299283294714929,0.8958333333333215,1
0.509371938083565,0.08781267987854835,0.569973214688895,0.5280325951808361,0.2992832947149284,0.895833333333325,1
0.5115244612837715,0.08989901594932403,0.5696716249459944,0.5150811524561635,0.2974901305927803,0.8854166666666394,1
0.5098878908553885,0.0882869710156749,0.5697029634075819,0.49712755190481384,0.29928329471492887,0.8854166666666394,1
0.5110268724182537,0.08979768890393613,0.5687366193456277,0.5454558214706409,0.29211484095474705,0.8854166666666465,1
0.5109100996065608,0.08791659956149767,0.567193561028047,0.5287014016638472,0.2974901305927812,0.8854166666666679,1
0.513088946305277,0.09100567493252404,0.5614284757020414,0.49036996033591107,0.2939066041674263,0.8958333333333357,1
0.517040964955824,0.08811783379811022,0.5479953558268527,0.519146908727089,0.2992832947149283,0.8958333333333108,1
0.519292582973427,0.09483354120655668,0.5465792560645041,0.532601586502028,0.29749013059278073,0.8958333333333073,1
0.5191972500797027,0.091929688332682,0.5417328204339819,0.4994806780586172,0.2974901305927812,0.8958333333333179,1
0.5226921763919236,0.09346570977584351,0.5434220895625687,0.4935344171970684,0.29569836738010324,0.8854166666666501,1
0.5242169127762064,0.09474726774107128,0.5447899859022112,0.5326791581497652,0.2956983673801038,0.8854166666666572,1
0.5212990429725934,0.09543227307030322,0.5563932592078449,0.5173596960852912,0.29569836738010313,0.885416666666643,1
0.5167788137349153,0.094614479027331,0.5668489150321568,0.5242872490388933,0.293906604167425,0.8854166666666607,1
0.5182101879891433,0.0955497180845375,0.565880708230042,0.5249545395006844,0.29569836738010247,0.8958333333332931,1
0.516621636762601,0.09450098646014055,0.5681093249866531,0.521629007509113,0.2956983673801029,0.895833333333325,1
0.5175644915784908,0.09570293239045474,0.5660374772701409,0.5040843629276986,0.29390660416742476,0.8958333333333002,1
0.5160210381164044,0.09412603892918597,0.5666130586314885,0.48913708681343787,0.2831532230724182,0.8958333333333037,1
0.5186374919569161,0.09518578145826095,0.5664015224402001,0.5249119585785753,0.29390660416742564,0.9062499999999929,1
0.5167600642344233,0.09385185040672356,0.5654897178291669,0.5305260196314818,0.2921148409547468,0.9062499999999716,1
0.5163280877818367,0.09275137615376772,0.5649025298901574,0.5011136337643157,0.2921148409547478,0.9062499999999751,1
0.5166465869124699,0.09536779968580716,0.5655571758284897,0.49402125748048137,0.29211484095474793,0.9062499999999822,1
0.5176233327107348,0.09469519054751113,0.5636473067552336,0.5304196356583065,0.29032167683259924,0.9062499999999716,1
0.5143195896086978,0.09448156718917228,0.566817203645221,0.5283228473532515,0.2921148409547478,0.9062499999999787,1
0.5167148824871172,0.09435399113052112,0.5649072363059818,0.49424004990326265,0.2903216768326,0.9062499999999787,1
0.5167610416811499,0.09311314217073607,0.5642956181537565,0.5036658070986628,0.2939066041674252,0.9062499999999893,1
0.5177130752023443,0.09431897070978312,0.5644242380880211,0.5371329337066116,0.2903216768325997,0.8958333333333037,1
0.5167993053327724,0.09385592179444907,0.5643887458902522,0.510823682101,0.29032167683260013,0.895833333333325,1
0.5176431257467599,0.09544591143646397,0.5644697743994851,0.4960745494813464,0.28673815040724404,0.8958333333333179,1
0.5169043999888087,0.0939747681998504,0.563644662633558,0.5302153583586023,0.2867381504072447,0.8958333333333179,1
0.5174597518938479,0.0953055719460531,0.5621730467669673,0.5248878574227942,0.2885299136199222,0.9062499999999787,1
0.517475984984352,0.09475308436403046,0.5638307175207504,0.49020793325811396,0.288529913619922,0.9062499999999787,1
0.5179793192814518,0.09536558212346458,0.563666134802437,0.5177657661597909,0.28852991361992175,0.9062499999999751,1
0.5177778662586628,0.09475069181238627,0.5647922203054814,0.5409035818593961,0.2813614598597416,0.9062499999999964,1
0.5188758691226663,0.0953397092769816,0.5636077171660646,0.4997835450478271,0.28852991361992175,0.8958333333332931,1
0.5162897870686649,0.0948212522862632,0.5641546941975382,0.503291561665396,0.2867381504072436,0.8958333333333037,1
0.5179943478878493,0.09507134249735949,0.5644304356763947,0.5392383579298168,0.28852991361992275,0.895833333333325,1
0.5155040238495734,0.09410237830269536,0.5644024515812451,0.5207874828069657,0.28673815040724326,0.8958333333332966,1
0.518532118930876,0.09557257587867085,0.5630885466593735,0.4912502925508444,0.2849463871945658,0.8958333333332966,1
0.517173290419949,0.09463007297326198,0.5634308409160202,0.5234144447060933,0.28673815040724504,0.8958333333333179,1
0.5176388025130714,0.09529871634623621,0.5641012393988675,0.5353154344350705,0.2867381504072438,0.8958333333332966,1
0.5168076166494276,0.09356976387589205,0.5625735633985343,0.4976746403631283,0.28673815040724504,0.8958333333333286,1
0.5176808584865449,0.0951492215203189,0.5635785040077818,0.5081475955029856,0.28673815040724426,0.9062499999999893,1
0.516771200485648,0.0947183427270995,0.5627435265661891,0.5382965025787674,0.2849463871945652,0.9062499999999645,1
0.5167189080272413,0.09542199193169687,0.5615019327270536,0.5087837803097337,0.2867381504072446,0.9062499999999822,1
0.5201760092911086,0.09468108070840092,0.5586309004491551,0.49674869232342206,0.2849463871945671,0.90625,1
0.5195182455707144,0.09543054835769749,0.5575891070330585,0.5317922750621018,0.2831532230724185,0.9062499999999893,1
0.5197843671197898,0.09468061348073181,0.5582947845749556,0.5263239504348864,0.28673815040724426,0.906249999999968,1
0.520292812290027,0.09542788210440756,0.5572779012703654,0.49103819051402786,0.2867381504072438,0.906249999999968,1
0.5221189500033575,0.09468478066195019,0.5565342760876183,0.5064525002198995,0.2849463871945661,0.9062499999999858,1
0.52326110715263,0.09542282821319037,0.5577628764745236,0.5432589705355105,0.28315322307241864,0.9062499999999822,1
0.5229417186823425,0.09469050044066585,0.5584117956469392,0.5219647123914115,0.2831532230724183,0.9062499999999893,1
0.5208317436430393,0.09541647523991104,0.5580222109001928,0.488864316162853,0.28136145985974004,0.9062499999999432,1
0.5205640450875035,0.09544657867507172,0.5587815585541281,0.5201191894132374,0.28494638719456633,0.9062499999999645,1
0.5236114684862392,0.09540849172740362,0.5576729392549411,0.5350232969609489,0.28315322307241875,0.90625,1
0.521597158019791,0.0947067913258347,0.5583850552333093,0.49669278301469955,0.2831532230724181,0.9062499999999893,1
0.5243284283019793,0.09539751279409192,0.5589508912552557,0.5032319347226935,0.2813614598597409,0.906249999999968,1
0.5193864639783498,0.09472040666029247,0.556757844563752,0.5338735598508939,0.28315322307241886,0.9062499999999787,1
0.5207924050983332,0.09537969503018712,0.5577315042868419,0.5116520757370805,0.2849463871945658,0.9166666666666252,1
0.5185008675698289,0.09474555139252622,0.5579876468313292,0.495560560338462,0.2849463871945658,0.9166666666666288,1
0.5205240678611737,0.09533971997065183,0.5580665835599021,0.5297061488357292,0.2831532230724184,0.9166666666666465,1
0.5177104561608394,0.09482687356531389,0.5584106207826381,0.5299465357586919,0.27956969664706366,0.9166666666666501,1
0.5180271148390189,0.09460049879702442,0.5578816735155671,0.49420311309761034,0.28136145985974015,0.9062499999999787,1
0.5162945968499363,0.09476155737934633,0.558364981240569,0.509937977135847,0.28136145985974004,0.9062499999999822,1
0.5179164950347976,0.09482564546470207,0.5577179234753883,0.5406816889506968,0.28315322307241864,0.9062499999999751,1
0.5181171601216484,0.0930832111355841,0.5579419125442652,0.5141522901155456,0.27956969664706366,0.9062499999999929,1
0.5209860287586807,0.09533587562498763,0.5570648416779034,0.4918962736093524,0.28136145985974137,0.9166666666666607,1
0.5177385894877553,0.09453813136183781,0.556962118435208,0.5253534530577596,0.2724012428868816,0.916666666666643,1
0.519394908566521,0.09474214453229773,0.5571444137466522,0.534807447450789,0.2813614598597405,0.9166666666666465,1
0.5194532057436065,0.09472631195857445,0.5585577853691465,0.496187347813566,0.2813614598597409,0.9166666666666572,1
0.5208668064751948,0.09541409299085962,0.5561653821822115,0.5104696598256598,0.2777779334343853,0.906249999999968,1
0.5193290887120093,0.09469107425929657,0.5574052167598168,0.5364632503598733,0.28136145985974037,0.906249999999968,1
0.5182570174930604,0.09541563467040037,0.5570485073573774,0.5047993382531522,0.2777779334343857,0.9062499999999858,1
0.5190761990934146,0.09470853167175791,0.5576396745290776,0.4964067756115148,0.279569696647062,0.9062499999999538,1
0.5190329899201885,0.09534907034184381,0.5577653049953571,0.5345428256199984,0.2759847693122366,0.9062499999999787,1
0.5169439601352889,0.09392392263528032,0.5564592097680916,0.5234702737557817,0.27956969664706366,0.9062499999999822,1
0.5185262549721537,0.0955398159151537,0.5578995533946269,0.49178365007989466,0.27956969664706177,0.9062499999999467,1
0.5163424287403121,0.09462011827094607,0.55802765719414,0.5186985564816515,0.2795696966470623,0.9062499999999822,1
0.5186585911793752,0.09506212394417513,0.5578364918414677,0.5382223628807141,0.2777779334343853,0.9062499999999822,1
0.5169704312874596,0.09319198694941672,0.5580534720494624,0.5056098789080328,0.27598476931223737,0.906249999999968,1
0.5176000567477481,0.09494378730100445,0.5578182346967059,0.495733975310492,0.2777779334343856,0.9062499999999893,1
0.516928170800375,0.0948624933529208,0.5580825398563073,0.5314485344255571,0.2777779334343856,0.9062499999999787,1
0.5174066541819219,0.09531191644653719,0.5577030143962495,0.5203328300078056,0.27777793343438595,0.90625,1
0.517771685628511,0.09477534463874415,0.5557153549141439,0.4879780533810005,0.2741930060995602,0.9062499999999858,1
0.51865242873007,0.09534257412508168,0.5575672001879234,0.524783548079023,0.27060947967420534,0.9062499999999929,1
0.518065766491038,0.09477022034914268,0.5556661370906818,0.5384192570249086,0.2741930060995593,0.906249999999968,1
0.521109503581978,0.0953251815241738,0.5547304278592978,0.4987420922544737,0.27598476931223825,0.9062500000000036,1
0.5187650808397316,0.0948293678711648,0.5553330294174923,0.5046043404217357,0.27777793343438617,0.9062499999999787,1
0.5195019515371858,0.09507185065292917,0.5573446522732349,0.5389044751727826,0.27419300609956,0.906249999999968,1
0.5170001349045056,0.0940890518235597,0.5580781676094093,0.5120707619903567,0.2759847693122366,0.9062499999999751,1
0.5198682224412653,0.0956081005830483,0.5554110277229833,0.49090932194758413,0.27419300609955977,0.8958333333333179,1
0.5191552154133452,0.09454454990243039,0.5581412859364014,0.5283721968632388,0.27777793343438506,0.8958333333333073,1
0.5185734218926635,0.09560147865736102,0.5577700985509331,0.535211866581498,0.27419300609955977,0.8958333333333286,1
0.5171081479980181,0.09397709056341447,0.558083355654794,0.4961524962485726,0.2741930060995599,0.8958333333333144,1
0.5175314861465194,0.09524758563775032,0.5578218243841193,0.504589197723361,0.2724012428868803,0.9062499999999751,1
0.5167847642576024,0.09458998229331728,0.5580327459734572,0.5409904881948453,0.2759847693122379,0.9062499999999858,1
0.5184900095260297,0.0942887043923577,0.5578793865308369,0.5160233500958796,0.2741930060995593,0.906249999999968,1
0.5178842677400112,0.09443555551115562,0.5558165545403594,0.4912968352058566,0.27419300609955966,0.9062499999999751,1
0.5193633377879328,0.09541535292092107,0.5560064186896344,0.5237385685896989,0.2741930060995593,0.9062499999999822,1
0.5187372898482021,0.09477271444468383,0.5561751226514225,0.5360915310668,0.2741930060995601,0.9062499999999822,1
0.5179722441930829,0.09482813893066272,0.5574175655524445,0.49716911652366214,0.27419300609955954,0.9062499999999822,1
0.5195193781822257,0.09373278750508185,0.5533873137834047,0.5068889080623357,0.2724012428868827,0.9062499999999822,1
0.5182586785161961,0.09543775764585699,0.5558157149238807,0.5386172060897039,0.27598476931223725,0.9062499999999751,1
0.5165812614505343,0.0932799978390782,0.5566490564856107,0.5190065576038517,0.27240124288688183,0.9062499999999787,1
0.5183239890551967,0.09518007740466888,0.5565624689528924,0.48763955450682633,0.2741930060995603,0.9062499999999787,1
0.5181660906906808,0.0940464741676042,0.5563078346289514,0.5169615548724246,0.2706094796742039,0.90625,1
0.518242815495434,0.09439375510425657,0.5565811309903839,0.5388508333017484,0.26881631555205665,0.9062499999999787,1
0.5192624546090553,0.09267146839246454,0.5566878385838238,0.507703397689695,0.27240124288688194,0.9062499999999751,1
0.5190002356152467,0.09499612293306775,0.5570893438375509,0.491830427697398,0.27060947967420446,0.9062499999999929,1
0.5201503616871271,0.09429764954528469,0.5598502348995017,0.5287862103292335,0.27060947967420346,0.9062499999999645,1
0.5177343162664484,0.09565902858228365,0.5571392356666135,0.5329563032722793,0.26881631555205665,0.9166666666666572,1
0.5172143012477886,0.09449509404386619,0.5585191183652898,0.4971373746598748,0.2724012428868816,0.9166666666666359,1
0.519588555754805,0.09559702655606944,0.5574580803315781,0.5001005791350936,0.26881631555205665,0.9166666666666465,1
0.518341825310978,0.09452204877637371,0.5583712305500329,0.5356292403474573,0.27060947967420446,0.9166666666666394,1
0.5183490569341523,0.09557944311325745,0.5575369096870451,0.5196946965051741,0.2688163155520552,0.9166666666666288,1
0.5194864913459247,0.09456497226320765,0.5583375983813313,0.48998572593238204,0.26881631555205665,0.9166666666666572,1
0.5203876327874914,0.09504821224984716,0.5575094541245073,0.5250388769991239,0.2652327891267001,0.9166666666666465,1
0.5197749503778311,0.09409008331844859,0.5590941415606236,0.5322716323179033,0.2706094796742047,0.9166666666666572,1
0.5201348376515218,0.09604695414398501,0.5570015213517974,0.49147674556142223,0.2688163155520552,0.9166666666666288,1
0.5176520275702605,0.09333214341686391,0.5580269615373002,0.512128106797889,0.2670245523393776,0.9166666666666359,1
0.5178309287502859,0.09463601417016482,0.5577872035093054,0.5431907943614475,0.2688163155520561,0.9166666666666607,1
0.5160970182307109,0.0917693362785304,0.5581100955279129,0.5055723747037572,0.26523278912670056,0.9166666666666288,1
0.5172708747896096,0.09364310419093874,0.557766795691738,0.49706150558955503,0.2670245523393794,0.9166666666666607,1
0.5169548939872055,0.09207341193580537,0.5581126881916184,0.5364943506209384,0.2598560985791969,0.9166666666666465,1
0.5175915777587597,0.09190484729479081,0.5577726470243655,0.5235777756856992,0.26881631555205643,0.916666666666643,1
0.5153759194846371,0.09378273192153341,0.5581009905458304,0.49035145492383103,0.26702455233937894,0.9166666666666501,1
0.517220809307782,0.09453510233902895,0.5577903078558518,0.5217479365533083,0.2652327891267007,0.9062499999999751,1
0.5170520130492313,0.09351601759927436,0.5580747774250217,0.5372893591391804,0.2634410259140232,0.9062499999999787,1
0.5174722880813135,0.09362576467281514,0.5578326833614091,0.5009715449524079,0.2634410259140232,0.9062499999999787,1
0.5170002830462913,0.09480015132731356,0.5579908139931002,0.49639491506184,0.26523278912670023,0.906249999999968,1
0.5174829592875005,0.09458826977201135,0.5581254305470376,0.5344615005700478,0.26344102591402296,0.9062499999999787,1
0.5170118293028793,0.09395328765522437,0.5587672031026258,0.5184486103898779,0.2652327891267009,0.9062499999999858,1
0.5174451094018294,0.09267223538957597,0.557575467666557,0.4941703723827731,0.25627257215384147,0.9062499999999787,1
0.5171229428281165,0.09164151449869512,0.5582316156081593,0.5286166266929986,0.2652327891267007,0.9062499999999787,1
0.5182913872777308,0.09305923407657624,0.5576795586250778,0.528301057654657,0.2652327891267008,0.9166666666666394,1
0.5159624952123769,0.09301272177383901,0.5581848905096236,0.4941840750797117,0.2670245523393785,0.9166666666666643,1
0.5177425501318292,0.09310582095868536,0.5585133150930116,0.5158957499295076,0.2652327891267001,0.9166666666666217,1
0.5162368490452651,0.09284629209369111,0.5581691976544564,0.5380863608407594,0.2616478617918757,0.9166666666666394,1
0.5167740119131491,0.0928695885499185,0.5577143999157687,0.5021093853733488,0.2580643353665195,0.8958333333333144,1
0.5164341220256595,0.09285102224566139,0.5581668456377042,0.4976575213593865,0.26344102591402274,0.8958333333333037,1
0.5177084199215352,0.09317185873189299,0.5577092118245339,0.5352839289440764,0.25447940803169455,0.8958333333333144,1
0.5168270700639489,0.09205590314775675,0.5581843840455007,0.5260207733475457,0.26164786179187494,0.8958333333333108,1
0.5167780528207255,0.09369748575671283,0.5576631385817071,0.49275329470188,0.259856098579198,0.9062499999999858,1
0.5151740945569114,0.09245322321589722,0.5583520074450443,0.5088541560053116,0.2634410259140225,0.9062499999999574,1
0.5174026325444028,0.0915399172659842,0.5585021822597043,0.5390184060165262,0.2598560985791972,0.9062499999999787,1
0.5170437470382889,0.09265296932317557,0.557956446743782,0.5093034965712965,0.26164786179187516,0.9062499999999751,1
0.5174107852807527,0.09470941231329189,0.5578635223221989,0.49357036603056836,0.2616478617918757,0.9166666666666394,1
0.5172238362226714,0.09387405230935203,0.558038423980605,0.5289843344757063,0.26164786179187494,0.916666666666643,1
0.518328664900718,0.09432563747694839,0.5578330255867102,0.5250605820153067,0.25985609857919734,0.916666666666643,1
0.5168018951377693,0.09396033676094523,0.5580520847561377,0.48974897699039893,0.2580643353665193,0.916666666666643,1
0.5176039336265751,0.09457984596068786,0.5578272374545201,0.5196007665289726,0.2598560985791969,0.9166666666666217,1
0.5169175215626516,0.09226870872687754,0.5580533300609741,0.5387655408384232,0.26164786179187516,0.9166666666666394,1
0.5175369036463757,0.09122687454972928,0.5578291041050273,0.49921797610590113,0.259856098579197,0.916666666666643,1
0.5169807499561566,0.09269322697747928,0.5580489371761508,0.5014071990326999,0.25985609857919756,0.9166666666666359,1
0.5174501781105729,0.09327956897596568,0.5578359431861253,0.5401331103333439,0.25806433536651885,0.9062499999999787,1
0.518050666767157,0.09155440500867185,0.5580392792272817,0.5200995428734628,0.25806433536652096,0.90625,1
0.5156407025756432,0.09312062907283225,0.5578494219838961,0.49025360528066786,0.2598560985791968,0.906249999999968,1
0.5143464331457553,0.09088575253323361,0.5580197459640132,0.5230316554894056,0.2598560985791982,0.90625,1
0.5169250489239511,0.0909083689422196,0.5578803979632081,0.5403014713707581,0.2598560985791968,0.9166666666666181,1
0.5144112304695836,0.09290161770732441,0.5579607607089268,0.5043095343555494,0.25985609857919745,0.9166666666666607,1
0.5169022593571333,0.09243685176678079,0.5580606872804025,0.49457363808637866,0.25447940803169433,0.9166666666666536,1
0.5171332236474129,0.09162136751455674,0.5587871567460642,0.5357184442441721,0.2580643353665196,0.9166666666666394,1
0.5168451923370009,0.09079119171607047,0.5576779638124703,0.5276263248787497,0.2562725721538436,0.9166666666666714,1
0.5160897476592107,0.09267212971828925,0.5581352585217927,0.492650647394352,0.2562725721538416,0.9166666666666146,1
0.5165447392878872,0.09173467944252439,0.5577738172150695,0.5110112150031448,0.25089588160633847,0.916666666666643,1
0.5160393389530077,0.09148815629156104,0.5580899605107976,0.5379071601714179,0.2562725721538416,0.9166666666666288,1
0.5171709709710137,0.09139274701153433,0.5578035761290869,0.50435067574901,0.24731095427151306,0.9218749999999716,1
0.5162756826470242,0.09028986402423145,0.5580662688952579,0.49809277589403594,0.2580643353665205,0.9218749999999929,1
0.5155153339240434,0.09062293107783592,0.5578252623744367,0.533904242238749,0.25806433536651996,0.9218749999999645,1
0.5154980360347473,0.09138572400675343,0.5580440456331855,0.5215143163981699,0.2562725721538419,0.9218749999999716,1
0.5147564093734365,0.09022540962495745,0.5578504016086132,0.4897506427715324,0.2562725721538427,0.9166666666666359,1
0.5148934036372719,0.09024435734994213,0.5580127883408762,0.5185878629800782,0.250895881606338,0.9166666666666394,1
0.5144589648654031,0.09137683833571031,0.5578934374867354,0.5373539131717743,0.2544794080316942,0.9166666666666359,1
0.5134168635661686,0.0902770861796297,0.5579453040962548,0.5012844599038105,0.2544794080316939,0.9166666666666607,1
0.5151248383714475,0.09021926232883509,0.5580245415909333,0.4935253030133736,0.25627257215384236,0.90625,1
0.5164218728242287,0.08909491494913369,0.557473568464028,0.5344443620847877,0.24551919105883435,0.906249999999968,1
0.5160690069941362,0.09139904793581866,0.5574895151231083,0.5245731090021031,0.2526876448190165,0.9062499999999787,1
0.5151318543673491,0.09085805787902818,0.5570725435633311,0.4945605165980426,0.25268764481901573,0.9062499999999787,1
0.5183586024068523,0.09265418739759279,0.5564559848055638,0.5242503156626759,0.250895881606338,0.9166666666666288,1
0.5159811390732896,0.09257232539772398,0.557854619761155,0.5353761935762058,0.2544794080316932,0.916666666666643,1
0.5160386674518391,0.09262512349039675,0.5564187894612719,0.49752134162749,0.2526876448190165,0.9166666666666607,1
0.5170678858809605,0.09152522876666086,0.5580080540710526,0.5078112571813979,0.2526876448190163,0.9166666666666501,1
0.5165619302808762,0.09251830334703265,0.5576808178646059,0.5382610532014612,0.24731095427151228,0.9218749999999432,1
0.5162907593167178,0.09136066825953798,0.5583575435472932,0.5141138496343806,0.25447940803169344,0.9218749999999574,1
0.5157341529855911,0.09082029871206848,0.5584896471695611,0.4923857943298576,0.25089588160633824,0.9218749999999538,1
0.5135881336196222,0.09027215596938537,0.5579722705249918,0.5252088350394779,0.25089588160633824,0.9218749999999787,1
0.5138872054202769,0.0925637437319573,0.5578452348157162,0.5338019987485414,0.2508958816063386,0.9166666666666288,1
0.5141115831232494,0.08887062938576706,0.558059289309569,0.49929545548562787,0.2491041183936611,0.9166666666666501,1
0.5162145459400054,0.09074080387306016,0.5578090644858854,0.4994500068280634,0.24910411839366053,0.9166666666666359,1
0.5162183608466037,0.09043421385485262,0.5580799067782793,0.5347221242556768,0.2491041183936603,0.9166666666666394,1
0.5165901503511481,0.09182481579099644,0.5577945641616361,0.5163654039361688,0.2508958816063378,0.9166666666666359,1
0.5165370387046697,0.08993742957117173,0.5580921174095018,0.49280193366800906,0.2491041183936612,0.9166666666666572,1
0.5174877072449927,0.0904705984168595,0.5577825604031048,0.5256063461086572,0.25089588160633924,0.916666666666643,1
0.5139029182540533,0.08867209364279538,0.5581054449091716,0.529943786196678,0.24731095427151173,0.9166666666666181,1
0.5166397576140217,0.08954436089272944,0.5577663921900834,0.4947041243874173,0.24910411839366142,0.916666666666643,1
0.5135561947197862,0.0895750425642674,0.5581262763559409,0.5049656134472446,0.2491041183936603,0.9166666666666359,1
0.5154560324203581,0.09099304500926692,0.5577391196277234,0.5394027650261092,0.24731095427151228,0.9166666666666146,1
0.5150258331824128,0.08935130256841856,0.5581528169389743,0.5163103498897895,0.24910411839366242,0.9166666666666643,1
0.5125308657586889,0.08904281702229033,0.5581224476499078,0.49104308292848137,0.2491041183936612,0.9218749999999787,1
0.5144727638783658,0.08914209558629421,0.5626160695550169,0.5227941663018227,0.25089588160633824,0.9218749999999574,1
0.5138700110148111,0.08990742341669333,0.560631357519128,0.5391362959131337,0.2491041183936621,0.9218749999999787,1
0.5118744252009878,0.08876169030705106,0.5592625980786455,0.5012170245900633,0.24910411839366164,0.9218749999999787,1
0.5159072949240416,0.08925008504450133,0.5577717159498412,0.49828325412996294,0.2473109542715125,0.9166666666666536,1
0.5164766880763096,0.0896764942176757,0.5580915981060212,0.5366288075265289,0.24731095427151406,0.9166666666666607,1
0.5151937404027122,0.0912633792319042,0.5577719895860084,0.518347391979808,0.24551919105883535,0.9166666666666536,1
0.5171568722946401,0.08965324078790055,0.5581444482061279,0.4915970138530307,0.2473109542715115,0.9166666666666288,1
0.5166047010830276,0.09203359343509848,0.557665330329923,0.5306637829696249,0.2455191910588358,0.9218749999999893,1
0.5155324040621277,0.09057663321516779,0.5584707543953655,0.5265973080191614,0.24910411839366142,0.9218749999999858,1
0.5163753354152862,0.09059747305087723,0.5583914801409693,0.4912322538211432,0.24551919105883468,0.9218749999999538,1
0.5165295788349595,0.08903797575825784,0.5580033279857922,0.5182134201906052,0.24731095427151162,0.9218749999999609,1
0.516831397185185,0.09080510497516614,0.5576932174460142,0.5386585819857875,0.24551919105883557,0.9166666666666465,1
0.5149244352394421,0.09037108733102006,0.558633853635665,0.49909594207953445,0.24551919105883468,0.9166666666666536,1
0.5186422309893866,0.09239008950259253,0.5615651752891607,0.5013078144082048,0.2455191910588339,0.9166666666666394,1
0.5160762347225463,0.09192585153704647,0.5579710365579996,0.5374893147519205,0.2473109542715125,0.9166666666666181,1
0.5160873756439692,0.09267628799848637,0.5596567053102863,0.5234008944919247,0.23655897408597581,0.916666666666611,1
0.5165069909008602,0.09094524096900058,0.5583530221145241,0.49149429278457046,0.24551919105883557,0.9166666666666394,1
0.518292951594654,0.09264145783519379,0.558816308501259,0.5238747646672824,0.24551919105883602,0.9166666666666536,1
0.5172268299463445,0.09365225133102484,0.5592471474262366,0.5373269225522512,0.24372742784615764,0.9166666666666465,1
0.5175315521110753,0.09207555091157282,0.5592631931330833,0.49817680043233714,0.24372742784615764,0.9166666666666536,1
0.517733389052519,0.09355998126888848,0.557584319977362,0.505063823650058,0.24372742784615764,0.9166666666666572,1
0.5173762870371915,0.09446533020253256,0.5573195896627626,0.5400638202196821,0.24551919105883457,0.9166666666666394,1
0.5159282326320774,0.0919178830762934,0.5580007829757838,0.5103742324707717,0.24372742784615886,0.9166666666666643,1
0.5167418730226162,0.09183460471369098,0.5579228935380545,0.4939526889491495,0.2455191910588358,0.9218749999999822,1
0.5173691482571895,0.09266253364195548,0.5579578538753952,0.5301720902367072,0.24551919105883502,0.9218749999999822,1
0.5174653398134686,0.09443657780506787,0.5579023895060498,0.5296134851823173,0.24372742784615697,0.9218749999999716,1
0.5169083928612224,0.09337501020412975,0.5580279372632682,0.49031689901727993,0.24551919105883535,0.9218749999999893,1
0.5173853913991735,0.09181477813302946,0.5577211911548956,0.5098315126655122,0.24014250051133224,0.9166666666666501,1
0.5170889810232828,0.09218679667049201,0.5589525051127732,0.5379837665682303,0.24372742784615808,0.9166666666666536,1
0.5165945597926833,0.09210771669900003,0.5589782010385403,0.5118481691203635,0.2419356646334806,0.9166666666666679,1
0.5156218584466037,0.09154903261011871,0.5575211843322825,0.4912828235852598,0.24551919105883446,0.9166666666666394,1
0.516715092272055,0.09262090193395611,0.5596068087336586,0.5261551844999945,0.24193566463348037,0.9166666666666536,1
0.5184080838919659,0.09335318718936647,0.5576997946975388,0.5333943125556964,0.24551919105883535,0.916666666666643,1
0.5167333274269021,0.09496404290446858,0.5574215876273467,0.4970970367199778,0.24193566463347915,0.9166666666666288,1
0.5166940732448431,0.09408275095383517,0.5579653068853941,0.499296098727223,0.24193566463348015,0.9166666666666252,1
0.5172561189246283,0.09336445894508077,0.5580066552516121,0.5384790607702435,0.24372742784615786,0.9322916666666536,1
0.5162276391304019,0.09140415888063441,0.5578118584856694,0.5125510808315256,0.24014250051133135,0.9322916666666359,1
0.5176064184518853,0.09205589521920837,0.5582150791966154,0.49309135482459,0.24014250051133224,0.9322916666666359,1
0.5167837105600352,0.0913964590859806,0.5586379014002224,0.5324786363378263,0.23835073729865375,0.9322916666666359,1
0.5163009960903265,0.09188892732177706,0.5578101522063291,0.5311450390281978,0.2419356646334796,0.9218749999999645,1
0.5147832491498437,0.09044681625406642,0.5580427058184083,0.48929463465675543,0.24014250051133113,0.9218749999999574,1
0.5173751133462108,0.09160684732282548,0.5577574720401132,0.5165511393559707,0.240142500511332,0.9218749999999822,1
0.5165482487455579,0.09171089259841281,0.5589083993462782,0.5415396155210673,0.24193566463348015,0.9218749999999645,1
0.5147764938529128,0.09189417897272395,0.5589764570207927,0.5074188431032552,0.23835073729865375,0.9218749999999645,1
0.5152073995537281,0.09138711750462875,0.5588801164606632,0.4934531574119091,0.2437274278461573,0.9218749999999787,1
0.5165743285819353,0.09182232403470098,0.5594211520514024,0.5335356541950684,0.23655897408597615,0.9218749999999822,1
0.5151218493315171,0.09184428639755648,0.5585418591148167,0.5282343611938658,0.24014250051133157,0.9218749999999893,1
0.5162404540852352,0.0926306291252435,0.5579006218794184,0.49251557828415293,0.2401425005113318,0.9218749999999716,1
0.5165056572851388,0.09125464904589414,0.5578885145349561,0.51302688635508,0.23835073729865408,0.9218749999999964,1
0.5159014099070867,0.09316987195808951,0.5580293049739373,0.5392651731354532,0.2365589740859766,0.9218749999999787,1
0.5164300069712097,0.09279745039665671,0.5578308600176356,0.5036110529803594,0.23835073729865375,0.9218749999999751,1
0.5177572281373085,0.09099650690427324,0.5580637913124167,0.49974465041056193,0.23655897408597593,0.9218749999999538,1
0.5167824865332206,0.09184720034137134,0.5578070171579429,0.5343992907877834,0.23835073729865464,0.9218749999999574,1
0.5176952946672441,0.09464658658780883,0.5580806043054835,0.5258271661277152,0.23835073729865452,0.9218749999999893,1
0.5167643700565044,0.09059358523753408,0.5577986006403729,0.4915823510435691,0.22939052032579554,0.9218749999999822,1
0.5177970476233343,0.0930266853606127,0.5580690145664309,0.508679163816414,0.23655897408597615,0.932291666666643,1
0.5160480585085842,0.09155627008079298,0.5579127595426243,0.5388589249578023,0.23655897408597681,0.932291666666643,1
