wrist_ACC_1,wrist_ACC_2,wrist_ACC_3,wrist_BVP_1,wrist_EDA_1,wrist_TEMP_1,label
0.8577377318954233,0.45340293730471404,0.4604819371324348,0.6244397509782831,0.198975002627209,0.7677966101694924,1
0.8613413761484154,0.4498489201651279,0.4646499687565869,0.7418602648053838,0.20011375665930667,0.7677966101694942,1
0.8560226737714506,0.4478792446689127,0.4636777448602909,0.3391752220870452,0.20011375665930672,0.7677966101694951,1
0.8621214147523825,0.44988899342370364,0.4659919633041503,0.285930777963317,0.1997343698884461,0.7677966101694924,1
0.8624060800142918,0.45138656156585105,0.4593176904590567,0.41822653918064007,0.19935468625782785,0.7677966101694951,1
0.8636308122409164,0.4501359630712909,0.4644944400878306,0.48470766617913325,0.1985953189965898,0.7677966101694942,1
0.8597045683742864,0.4469748543064038,0.4590733723635057,0.6757973707022551,0.1993546862578278,0.7677966101694951,1
0.8610009914062163,0.4517987713146916,0.4641013442412216,0.6263022893717218,0.19745626810473463,0.7677966101694924,1
0.8603135704980381,0.45121577676023666,0.460509637792401,0.49953537513748714,0.19821563536597178,0.7677966101694951,1
0.8600236463907807,0.45421555552151294,0.46771196423246597,0.54971285220065,0.19555784995164152,0.772881355932201,1
0.8600318804365341,0.44672805402009785,0.4599355309643889,0.5299234299868276,0.19859531899659041,0.7728813559322001,1
0.8616095188675094,0.4530680135791292,0.4660612439833388,0.5151938502375982,0.19631721721287868,0.7728813559321983,1
0.8592117993291574,0.4451880580681137,0.4573658919513083,0.5155099980708554,0.1970765844741161,0.772881355932201,1
0.8626079666986879,0.4549021394792929,0.4678386251230764,0.5530910985245439,0.19555784995164113,0.7677966101694924,1
0.8585305411121459,0.4476416847656393,0.458562356060274,0.4993499303958812,0.19745626810473474,0.7677966101694924,1
0.8602016814170055,0.4574994208522873,0.46759445418893286,0.5589133381835433,0.19517816632102294,0.7677966101694924,1
0.8588656673131112,0.4485235356099364,0.45787378165381026,0.5616820832961077,0.19555784995164185,0.7677966101694924,1
0.8618844386084996,0.4628115813899134,0.4711229962861797,0.7346673463179442,0.19593753358226026,0.7677966101694924,1
0.8745893433158886,0.44742210190937687,0.451935314939047,0.7107187527547927,0.19631721721287917,0.7677966101694942,1
0.9015357704139042,0.5306456123369248,0.5497878146816367,0.46401973107713956,0.19328004502768834,0.7677966101694924,1
0.6950016295690082,0.595209089436351,0.6653056287821384,0.31548100068478263,0.19138162687459528,0.7677966101694924,1
0.5568948769620384,0.6182526586757451,0.7678231738661655,0.3784030263358431,0.18340856749136267,0.7677966101694906,1
0.45601511169849596,0.6073372056590769,0.8190114729751865,0.3940933589768467,0.18226951659950716,0.7677966101694915,1
0.33653747445353,0.5423635228638355,0.8727266812411035,0.4403679813158642,0.18948320872150257,0.7677966101694915,1
0.3887112499360117,0.5855985649466919,0.8941873750057303,0.6424104909606967,0.18758479056840985,0.7677966101694915,1
0.3493136390434496,0.6044226012671522,0.8630644747305538,0.47965218258519754,0.1739167735856564,0.7677966101694906,1
0.35310403697265513,0.6106072073997479,0.8759303951164771,0.45749371086456453,0.17505582447751186,0.7677966101694924,1
0.3340107986386098,0.592243594002052,0.8698744231676446,0.662765869999383,0.17201865229232136,0.7677966101694906,1
0.3356822371816179,0.6157835682997482,0.8704406986452564,0.8438467419593125,0.17467614084689373,0.7677966101694924,1
0.33399554088267897,0.593025003636728,0.8818307776341989,0.506554727365653,0.17619487536936776,0.7661016949152524,1
0.34169174605153607,0.6046939991153605,0.8722044891776553,0.4497199376804858,0.1761948753693682,0.7661016949152524,1
0.3221323395217173,0.5935648767700601,0.8832650118762009,0.4890616626558266,0.17733392626122366,0.7661016949152506,1
0.32615724882989167,0.6025008011330548,0.874630090122198,0.5626276395217258,0.18037109844641439,0.7661016949152533,1
0.36000530625486316,0.5952691681442682,0.871429353234821,0.5220894315341709,0.18188983296888847,0.7661016949152506,1
0.3228006586129275,0.5972330642293383,0.8730322057608282,0.512392633411041,0.18302888386074465,0.7661016949152533,1
0.3101395052169392,0.5837402803756153,0.891915956665456,0.5297249043834475,0.18340856749136278,0.7661016949152533,1
0.3239151630305458,0.5939421995251639,0.8760524160646468,0.5400091768091004,0.18226951659950733,0.7661016949152533,1
0.323002282559469,0.5852939264853231,0.8900882465625997,0.5575558889495126,0.17999171167555375,0.7593220338983029,1
0.327539241643672,0.5938825264583023,0.8689403394784958,0.5367393959119964,0.17049991776984738,0.7593220338983029,1
0.31379511360222273,0.5872174692487163,0.8978509135459907,0.4972794983776049,0.17012023413922836,0.7593220338983029,1
0.331047590483389,0.560426938790364,0.8871783156267512,0.5174594253787457,0.16936086687799143,0.7593220338983029,1
0.572627698821409,0.6289717675482459,0.8025410011561075,0.5152904320627414,0.1704999177698471,0.7593220338983047,1
0.5828475889364525,0.6902516906915059,0.6985735206470931,0.54118620040876,0.13063491771344396,0.7593220338983055,1
0.6152997729598577,0.6932865593796742,0.6619151028617203,0.5011974496317594,0.07292538073748275,0.7593220338983055,1
0.7865297302815086,0.8018245914001919,0.46427442967856836,0.5388095224354166,0.0474583758090171,0.7593220338983055,1
0.5368027934991438,0.591201078137071,0.7675614136015037,0.6405581940139244,0.03151255390231056,0.7559322033898344,1
0.3009881674021687,0.5036100479433295,0.9451846720962451,0.5287433733303161,0.08542525457208563,0.7559322033898361,1
0.29464499269918804,0.5900394046325506,0.8700714134683099,0.361192032408409,0.15186692133275817,0.7559322033898352,1
0.3138610631285075,0.5798216718649454,0.8998367837185293,0.5195681821944637,0.16173810200932473,0.7559322033898352,1
0.3439899475801526,0.5850807036041105,0.8706295201716192,0.48889856895300754,0.16705367283798536,0.7559322033898317,1
0.35505083526597947,0.5837004893426789,0.885741749427468,0.7036778797795842,0.16743335646860383,0.7559322033898326,1
0.35328904175408526,0.5802209995443797,0.869378586027371,0.3885941438776668,0.17009084502317565,0.7559322033898317,1
0.3897944431291232,0.5737014438115393,0.8846188901490606,0.5883198516317069,0.1697111613925575,0.7559322033898344,1
0.4706833810859842,0.6006577801146621,0.7846457058286744,0.3568732186994975,0.17274863043750574,0.7525423728813552,1
0.8300758080606299,0.5904382997249793,0.5739510818279316,0.5759292977486469,0.18110107659159871,0.7525423728813543,1
0.8046045868515221,0.6034565812828138,0.526346021999144,0.6034664713172061,0.1495888195490465,0.7525423728813543,1
0.823938980480311,0.6521921196676821,0.5009992069668883,0.5382692789874972,0.14427354558014452,0.7525423728813552,1
0.8531095081654367,0.653450225625845,0.6937780600872591,0.4218420151760021,0.1613584183787066,0.7491525423728795,1
0.394408428676582,0.622932559183404,0.6834549789527413,0.72009879468884,0.15832124619351592,0.7491525423728804,1
0.4243314957591764,0.4392034508396595,0.8658083780466743,0.5765852170505357,0.17085021228441297,0.7491525423728804,1
0.49410890056807727,0.4487923466571043,0.9669140358740065,0.4579688669347284,0.1818604438528362,0.7491525423728795,1
0.15229566404084693,0.5373643467498133,0.8697648335037773,0.541567870294636,0.18489791289778443,0.7406779661016918,1
0.012355909098844986,0.4796411300094881,0.9015548014229313,0.5503921959593188,0.1867963310508777,0.7406779661016918,1
0.0888808819761075,0.5223947299763192,0.8872944595222378,0.5245469899092058,0.19401002317287255,0.7406779661016918,1
0.057376709638895684,0.5123109875463008,0.908445578060421,0.45659444634539254,0.19287097228101704,0.7406779661016936,1
0.0,0.5436339595842096,0.8852188392129545,0.6114546901153797,0.19818624624991912,0.7406779661016945,1
0.098682287007439,0.49084637112849117,0.8536643578478682,0.6564764702626699,0.1974268789886822,0.7406779661016953,1
0.4000501385039412,0.4631278298394375,0.9379479869568421,0.4949362237751308,0.19135223775854263,0.7406779661016945,1
0.30522998228286,0.49606024281002015,0.9211510823876892,0.37857139719449373,0.18299949474469177,0.7406779661016945,1
0.2706576251988165,0.4943295816376263,0.9212751816966354,0.5091359491481668,0.1852775965284034,0.7457627118644004,1
0.2899319285754709,0.6006667246686849,0.8813152419728654,0.6583670809034865,0.18755540145235663,0.745762711864403,1
0.12567260970084954,0.6656914968750225,0.8060032785660978,0.25921470132614627,0.18869445234421242,0.7457627118644012,1
0.22136677411361183,0.5965298543356047,0.9202496946463234,0.5754476020015367,0.1875554014523567,0.7457627118644012,1
0.15101560549939072,0.5751633917121649,0.885425749750048,0.8343472208882785,0.1867963310508776,0.737288135593217,1
0.12645702314588847,0.548047768271742,0.9059202271063476,0.5664442239814348,0.18907413597483083,0.7372881355932179,1
0.21090556238630295,0.545418762798535,0.8810867005652366,0.4446663125292195,0.18983350323606815,0.737288135593217,1
0.18732312738264217,0.5080968992124394,0.9307448400557774,0.4393315937059115,0.19704719535806356,0.7372881355932197,1
0.16313201791049328,0.5295949356828519,0.8870635190095617,0.5450065823288199,0.19666751172744448,0.7288135593220346,1
0.020342870462602303,0.5046742579764922,0.90875588195954,0.6973367146483143,0.19856592988053776,0.7288135593220346,1
0.18693202339248427,0.48051002617437444,0.8940534701196687,0.37606421639049753,0.19742687898868208,0.7288135593220346,1
0.14742997009697822,0.4865662285723592,0.9457277110757565,0.20727862121035706,0.19135223775854268,0.7288135593220355,1
0.18296901058635723,0.5142502833419679,0.8785130321092087,0.5953628805993018,0.1947690935743516,0.7322033898305076,1
0.3790146057762473,0.5786633196954089,0.8905557401514068,0.7133879076851654,0.19325065591163568,0.7322033898305094,1
0.25830111231069164,0.5497187914278614,0.8899736468148505,0.5517045405214075,0.19894561351115628,0.7322033898305094,1
0.39905322263981735,0.5542613746168359,0.8869015326170684,0.6055334371225591,0.2004643480336307,0.7322033898305094,1
0.3809101585772093,0.5514075030049894,0.8625981101812237,0.4657517626803639,0.19856592988053776,0.7288135593220337,1
0.5158677489120644,0.567685213372994,0.8458882613875386,0.4941925079068901,0.19704719535806323,0.7288135593220346,1
0.22821827169616127,0.5097697500071097,0.916711669034797,0.6047318963534878,0.19590814446620766,0.7288135593220337,1
0.29314823264793427,0.49413546024371646,0.9202894235598993,0.45685700043526695,0.19476909357435176,0.7288135593220346,1
0.26400516910277133,0.524834063942193,0.8941580264227627,0.6906308502178273,0.19135223775854263,0.728813559322032,1
0.2864583318587538,0.5017246711137525,0.9095711304544392,0.30573028483349757,0.1913522377585429,0.7288135593220337,1
0.2602660467339314,0.5175232639135183,0.900602371113528,0.46792105035675546,0.18869445234421248,0.728813559322032,1
0.23334494108334247,0.4849225330615189,0.914992631962962,0.49719245152853897,0.1890741359748311,0.7288135593220337,1
0.3028863115976212,0.4925720368614128,0.9061499663299668,0.6311447103942531,0.18793508508297516,0.7288135593220346,1
0.28338028038429386,0.48088906632121337,0.9151031250603874,0.6305979734325275,0.188314768713594,0.7288135593220346,1
0.29351578749286306,0.49265850791830457,0.9018233569589551,0.653730952069395,0.18717601468149633,0.7288135593220346,1
0.2758069065051166,0.4826360678019844,0.9152145538736258,0.49661587262705115,0.1879350850829752,0.7288135593220346,1
0.2758448861260594,0.49466647379885587,0.9020496518232457,0.4096377600213831,0.1856572801590217,0.7186440677966122,1
0.2642845867307948,0.4813318978738367,0.918697994798706,0.540927808056104,0.1894538196054499,0.718644067796613,1
0.26655542543543065,0.49028502917230793,0.9034093513366377,0.5950238804729768,0.1871760146814961,0.7186440677966104,1
0.2674028108959393,0.47630320176285307,0.9190406929153658,0.5243646973799561,0.18717601468149644,0.718644067796613,1
0.2651650832436989,0.49121328799235187,0.9007883957474034,0.49831526926620145,0.1864166474202589,0.7152542372881321,1
0.23566890907581425,0.47587792019672337,0.9358097230495677,0.526521091518504,0.18679633105087776,0.7152542372881321,1
0.2561973795286183,0.5132140301753222,0.8843024741372811,0.5522172760881328,0.18337917837531045,0.7152542372881303,1
0.2754392310778353,0.4913884161202251,0.9314810180275193,0.518494721215984,0.18413854563654783,0.7152542372881321,1
0.17832838753810615,0.5690691631992159,0.8955405705130366,0.49958225752781277,0.18527759652840334,0.7152542372881339,1
0.5397261139552676,0.5802094434153275,0.7769542467512965,0.5302211104973795,0.1886944523442127,0.7152542372881356,1
0.8477222518809082,0.6543511115659504,0.44217786268545595,0.4633305145684493,0.13136489585862818,0.7152542372881339,1
0.7392294415745669,0.7055384854990135,0.3556239946117271,0.7013114186128445,0.10023202558693625,0.7152542372881356,1
0.8005649674967569,0.7245069109574803,0.3494494874562539,0.6733106584024345,0.08694369223480189,0.7101694915254235,1
0.6134053169568792,0.606018790818581,0.7323448166683333,0.5845411042172975,0.027336033965506185,0.7101694915254244,1
0.31019350982926375,0.5615631410980462,0.9054576113002741,0.28925747394011947,0.003037469044948643,0.7101694915254235,1
0.006805719450272835,0.5110834165362945,0.874499710064185,0.40203476072329214,0.11314097216821026,0.7101694915254244,1
0.08832791347712557,0.5600033314458149,0.9021257235996041,0.6373607570583727,0.16629430557674826,0.7152542372881356,1
0.07289308164068303,0.5664212386027311,0.8846827076199855,0.5474290155862622,0.12187310195292175,0.7152542372881365,1
0.10553705066662353,0.5680288573501613,0.8628238937641559,0.5560185032954996,0.09985234195631768,0.7152542372881365,1
0.07974705367844634,0.5672663045661177,0.8944717477592998,0.6618918096319149,0.16325683653179948,0.7152542372881365,1
0.09865698831782094,0.5670633391452596,0.9101279389173351,0.611290115822085,0.1776842207757892,0.7084745762711853,1
0.3849541078022043,0.735237306948383,0.7880153103315027,0.5225266648872195,0.1085847686007875,0.7084745762711862,1
0.5509840715366523,0.8010027683237353,0.6888447542120167,0.27266195012875566,0.04480088725444514,0.7084745762711862,1
0.5258427088648792,0.8147299541010482,0.5864356495962664,0.26969090323925476,0.041763418209496445,0.7084745762711862,1
0.5994876252117295,0.725806090137993,0.6076836209798262,0.7247860630309924,0.08732337586542041,0.7101694915254235,1
0.8434223329609073,0.6314019441827963,0.5474249634513038,0.6652974916407959,0.10668664730745223,0.7101694915254235,1
0.8253260083358538,0.6421230284436675,0.3882479824972165,0.320774233378045,0.1154187770921635,0.7101694915254235,1
0.8184184884440997,0.661761267979331,0.43023334166786825,0.36222741380098966,0.12149341832230318,0.7101694915254244,1
0.852197082458692,0.560368670958382,0.4875648725507155,0.6522309727074912,0.11769687887587507,0.7084745762711844,1
0.8247406537218887,0.5912571875512237,0.48615269075228,0.6357908908598469,0.11845624613711256,0.7084745762711844,1
0.8342384885520958,0.5706985209456452,0.48443970108879375,0.576619594646146,0.11921561339834955,0.7084745762711844,1
0.8188966414899164,0.5897110079894037,0.48871168714785684,0.6210627487483307,0.11959529702896829,0.7084745762711844,1
0.8273997852814612,0.5682948008930547,0.4926546611470758,0.5987185718004244,0.11997498065958676,0.7016949152542349,1
0.8231737886884196,0.5842769173732855,0.48975183582036036,0.17622998739528478,0.12035436743044739,0.7016949152542376,1
0.836672694301713,0.5684955935173992,0.49245775540480763,0.4352075530352193,0.12111373469168449,0.7016949152542367,1
0.8111512366909971,0.5821533385048301,0.5124891441763758,0.7517168085322423,0.12035436743044728,0.7016949152542376,1
0.8339172408938775,0.5686005904349162,0.5075058046970375,0.5993389417096535,0.11959529702896829,0.7016949152542367,1
0.8097676586268564,0.5809450716319304,0.522481426780687,0.5789466417677266,0.1199749806595872,0.7016949152542367,1
0.8252064997062604,0.5685783654574241,0.5133786295278697,0.5117290624595177,0.11883592976773141,0.7016949152542367,1
0.8056834066708504,0.583900445377465,0.523754255657762,0.5193170778327281,0.11807656250649393,0.7016949152542367,1
0.8290707032330745,0.566680859799742,0.5140117061860578,0.5437676880634311,0.1173171952452565,0.698305084745761,1
0.8026534673476549,0.5839733245029722,0.5291727825097496,0.5412828570640071,0.11769687887587557,0.6983050847457628,1
0.8391000468955504,0.5715446188132683,0.5117795166581134,0.5124020124200217,0.11655782798401929,0.6983050847457628,1
0.780546383555484,0.5851029066183651,0.5380183385908461,0.5582490391914885,0.11617814435340088,0.6983050847457628,1
0.8871775594546707,0.5709241493391952,0.49247412671683444,0.5400245468900051,0.11427972620030777,0.6949152542372872,1
0.7227939600935308,0.6129676258006449,0.6815052971265256,0.5165121054858636,0.11503909346154531,0.694915254237289,1
0.19181677817162768,0.6032423867671401,0.8304756461167153,0.508130258861108,0.13440206804381874,0.6949152542372872,1
0.29080671073839076,0.49388388399067223,0.8967174221977756,0.5499263479783737,0.1419954437964324,0.6949152542372872,1
0.23254633728691093,0.5352238268644126,0.9302055051073439,0.5453157254353067,0.1480700850265723,0.6881355932203395,1
0.26867716213228265,0.530903811526141,0.8835674641566468,0.5096704168108951,0.14958881954904638,0.6881355932203395,1
0.32404698316176517,0.5324756622809357,0.9104566024020255,0.5902299859295216,0.14996850317966479,0.6881355932203395,1
0.44769677841149863,0.5534234207259419,0.8532857092517807,0.4441282051682177,0.1511075540715209,0.6881355932203403,1
0.46764759148736534,0.5424723102666228,0.864616014467581,0.4484407848778726,0.1397176388724792,0.6915254237288142,1
0.489304813315508,0.5405958422156943,0.8552231309155089,0.6352524217995197,0.14199544379643295,0.6915254237288142,1
0.48169795611442284,0.5395536964431458,0.8550449892277888,0.5801835031846746,0.14579228010261866,0.6915254237288133,1
0.500755240390514,0.5454427369860013,0.8440622587695177,0.6266601153412648,0.14807008502657212,0.6915254237288142,1
0.49572735534801626,0.540159504532545,0.848283068472419,0.4555684567438855,0.1518669213327579,0.6881355932203386,1
0.5048903661142327,0.5440025546134686,0.8440474148315436,0.47276386118321906,0.1545244098873302,0.6881355932203395,1
0.503306995145951,0.5404271951986188,0.847311756773069,0.5340822337119169,0.15680251167104123,0.6881355932203395,1
0.5047168918465674,0.5453443495234577,0.8432240308637932,0.5237027880089384,0.15908061345475302,0.6881355932203395,1
0.5072274799038767,0.5381772454518037,0.847624867648138,0.5377775073900414,0.16021966434660875,0.6881355932203368,1
0.5032895939034685,0.5446410398849703,0.8421463201725857,0.5025295560178842,0.16021966434660903,0.6881355932203368,1
0.5078321518559833,0.535609132597412,0.8471954822763632,0.541951590399214,0.15983998071599034,0.6881355932203368,1
0.5066332619067732,0.5646219189706749,0.8430722379222297,0.5353541731103304,0.15908061345475308,0.6881355932203368,1
0.5039414819975809,0.5328087216462821,0.8607628925744449,0.5443598512648663,0.15718219530165964,0.6949152542372872,1
0.46439342318456645,0.5315620149203812,0.8255227500654816,0.5028250349610611,0.15794156256289735,0.694915254237289,1
0.8114934616937856,0.6412157882184439,0.6192846973661528,0.5489803011798698,0.15946029708537132,0.6949152542372872,1
0.6648370213001068,0.6348007741206076,0.7550766336436774,0.5174106715275477,0.15566346077918583,0.6949152542372872,1
0.23693856039958341,0.4868660091358584,0.8700565472046715,0.5462455773368696,0.1564228280404227,0.6915254237288142,1
0.6071447971099369,0.57005130337206,0.8092789672454195,0.47057499785743717,0.16097873474808785,0.691525423728816,1
0.8274243361112812,0.621572768331103,0.6156071040995982,0.5506575530524368,0.16135841837870632,0.6915254237288142,1
0.7253100114606573,0.5763486606519894,0.5899842765949459,0.5807440878545808,0.15338565585523226,0.6915254237288142,1
0.8117850439132488,0.5643092869341323,0.5857877526382878,0.5407345164301024,0.15870092982413456,0.6915254237288124,1
0.8829326705972614,0.5220088029694989,0.4781552793918814,0.5063518413651686,0.15490409351794862,0.6915254237288133,1
0.8405775447418563,0.5806823849666842,0.4745615286355503,0.6465790317590918,0.14617196373323707,0.6915254237288124,1
0.7906311505472715,0.5936790822652167,0.44863222726351576,0.4725614829141507,0.14920913591842802,0.6915254237288133,1
0.8613768419752057,0.5571381367703507,0.41004428147357846,0.47074675939896626,0.15186692133275728,0.6949152542372898,1
0.8503843133306939,0.5546767643177951,0.351909988530371,0.6208481703174084,0.15300597222461368,0.6949152542372898,1
0.8226962994887644,0.5776887234880028,0.3223920182640487,0.5942435261609418,0.15718219530166008,0.694915254237289,1
0.8534835881996938,0.5872989723240525,0.3087886980303952,0.4689164217991265,0.15148723770213943,0.6949152542372907,1
0.8212502343334226,0.5893299108594021,0.3269830964067867,0.22756815013067588,0.14161576016581404,0.6915254237288107,1
0.8351874694157099,0.5843655695739439,0.30201398192817275,0.7720220191071976,0.1366801698275306,0.6915254237288124,1
0.837310286554726,0.5879704161074004,0.3059150600522544,0.7002936217162777,0.13781922071938604,0.6915254237288107,1
0.8495970057071146,0.6093897284842572,0.34978680185438293,0.11288481670593281,0.14085639290457694,0.6915254237288124,1
0.8330044538077398,0.625570843773922,0.4283243283098853,0.3860949946647446,0.1423751274270508,0.6949152542372872,1
0.7717315371745768,0.6640920836585174,0.4678718198428004,0.9069190945525976,0.14275481105766993,0.694915254237289,1
0.7617677787625955,0.7216949025273942,0.4352438054737713,0.5497183608952009,0.15110755407152046,0.6949152542372872,1
0.7468954495780449,0.6945527929370381,0.3740861065176887,0.739861327180618,0.15680251167104173,0.694915254237289,1
0.7535229165820211,0.7306726742403741,0.29059871148476707,0.4372437149789512,0.1560431444098043,0.6915254237288133,1
0.7241167676293842,0.7693759935228757,0.35864487122462835,0.5344505943808576,0.14882945228780955,0.6915254237288142,1
0.7237112097077236,0.7611574353592512,0.4703302941149129,0.23437189609010967,0.148070085026572,0.6915254237288142,1
0.62810258098727,0.7804500276727561,0.5702448927184046,0.21205268886196432,0.16173810200932512,0.6915254237288142,1
0.6060881829577542,0.7830349017040172,0.5931037825824911,0.6768871319356394,0.16553493831551078,0.6881355932203386,1
0.6215523579303619,0.7996894786304873,0.5877102106275978,0.8049339549741642,0.16591462194612958,0.6881355932203395,1
0.612931981784892,0.7998947779813195,0.5763629785429817,0.7170427418508832,0.16591462194612952,0.6881355932203395,1
0.6236768213933783,0.8047352731471249,0.5759652655402883,0.44113738210294523,0.16515525468489248,0.6881355932203395,1
0.6095879729336561,0.8032086124234752,0.5651891733056951,0.5630302163345816,0.1655349383155111,0.6830508474576265,1
0.6275215570885126,0.8041442668560325,0.5665210706611548,0.5700078728756682,0.16477557105427357,0.6830508474576247,1
0.612793357661445,0.8043502695704481,0.5617096485540284,0.5782726235878104,0.1647755710542735,0.6830508474576247,1
0.6349076800754823,0.8104272213775394,0.5483264781293082,0.529078053460285,0.16211778563994392,0.6830508474576273,1
0.6243002999057483,0.8081673751770526,0.5438190679491488,0.4860005788796125,0.16363652016241784,0.6881355932203324,1
0.6288308830644938,0.8112130831452155,0.5452894955778108,0.24349666237614853,0.16211778563994403,0.6881355932203324,1
0.6271257785571516,0.8098943353186627,0.5433089698225492,0.26111129866861144,0.16173810200932523,0.6881355932203315,1
0.6299701148445819,0.8102918219467657,0.5421080962410767,0.5532367535685216,0.16021966434660914,0.6881355932203324,1
0.6253261333460989,0.8088301513490082,0.5471214735409938,0.603099090268729,0.15983998071599012,0.6779661016949134,1
0.6250977745726474,0.8092659649660436,0.5559828559216373,0.5350208101185957,0.15832124619351592,0.6779661016949152,1
0.6273336635501361,0.8105672707250945,0.5405638123024055,0.6660909587197305,0.15870092982413428,0.6779661016949143,1
0.6104954513824794,0.8179127170038485,0.5469114777957257,0.721377839176061,0.1598399807159903,0.6779661016949152,1
0.6114702730017594,0.8159274744580024,0.5528558113224055,0.511673650130246,0.1579415625628973,0.6813559322033891,1
0.6086031298610062,0.8186937821521315,0.5524624578511856,0.5718671480547879,0.15528377714856725,0.6813559322033909,1
0.6107074044486784,0.8180759799261845,0.5488214031719756,0.4733340992121359,0.1549040935179484,0.6813559322033891,1
0.6182179440046751,0.8166403930437329,0.5463872192376543,0.6538119306781187,0.15528377714856714,0.6813559322033909,1
0.6190258877112529,0.8130999825671411,0.5433959840404998,0.5362122578954197,0.15528377714856714,0.6779661016949179,1
0.6175588465638152,0.8158861172337895,0.5449085436027168,0.5242059185015542,0.15490409351794857,0.6779661016949179,1
0.6166193358142775,0.8136076062701119,0.5422754821553417,0.531996766801184,0.15376533948585056,0.6779661016949179,1
0.6190593885311277,0.8198992250153998,0.5423268454600478,0.4615682648485421,0.15300597222461362,0.6779661016949179,1
0.616830872736918,0.8148524527391094,0.5406163953563754,0.5343014290969024,0.15262628859399488,0.6745762711864405,1
0.6163077525888148,0.8210688442521957,0.5409546377677394,0.546392478332151,0.1526262885939951,0.6745762711864414,1
0.6202663316078996,0.8147491274033442,0.5400620737333138,0.46693243129435047,0.15148723770213937,0.6745762711864414,1
0.6140964034993741,0.8198534161709252,0.5392484973092597,0.5686576603846332,0.15072787044090188,0.6745762711864414,1
0.6158183411243292,0.8181734013992216,0.5343451645877528,0.5838764180063676,0.15034818681028359,0.677966101694917,1
0.6147096864432674,0.8238992213289871,0.5374896480230632,0.6031624513499505,0.14844976865719064,0.6779661016949179,1
0.6182025025920304,0.8171280616611076,0.5322605294793818,0.4611032716493996,0.1495888195490461,0.677966101694917,1
0.6144530152966199,0.8239663640794639,0.5356429107401113,0.4594613553212475,0.1488294522878094,0.6779661016949179,1
0.6165297346672899,0.8165635085557987,0.5307950302486288,0.5329703151946501,0.1488294522878089,0.6745762711864405,1
0.6173682539925667,0.8251944340075478,0.5363719592719178,0.5392858351119671,0.14882945228780906,0.6745762711864405,1
0.615996294407549,0.8133391902954916,0.5325614975257282,0.5160687628293165,0.1484497686571907,0.6745762711864396,1
0.610304973867279,0.832914621524699,0.5485585831229427,0.5173253287214569,0.14769040139595366,0.6745762711864414,1
0.6768670646450339,0.8286830305971813,0.46586133864648027,0.5466237468177318,0.14693133099447445,0.6677966101694892,1
0.5997925359389913,0.6742819385000242,0.21059401472521122,0.527582786708822,0.14617196373323751,0.6677966101694901,1
0.7702580023932327,0.5421117001202524,0.010630911164550727,0.5774916397048678,0.1412360765351954,0.6677966101694901,1
0.7721083049021632,0.4953977710611463,0.106703653649739,0.4284524598339927,0.12870711044429842,0.6677966101694901,1
0.8680007473424353,0.5040279792615934,0.18188138158086908,0.6419372972156924,0.11503909346154487,0.6745762711864369,1
0.8596697601083109,0.5717611915689431,0.34969088232766204,0.4977961393615842,0.09415738435679702,0.6745762711864369,1
0.7178073577820625,0.7005335456708133,0.48550507994234626,0.42306168382445797,0.12491057099787053,0.6745762711864369,1
0.6868232597548463,0.7547770568687531,0.5235647516082662,0.6184139980147446,0.13174457948924703,0.6745762711864369,1
0.6989313925347005,0.7522945763991548,0.5252023322109425,0.5345073447259282,0.13250394675048424,0.6745762711864396,1
0.7033307186104472,0.756753262766642,0.5192497499452132,0.5675779379965609,0.1313648958586285,0.6745762711864414,1
0.7015834114366414,0.7523624138538026,0.5165501473310967,0.5130248399971481,0.13098521222800988,0.6745762711864405,1
0.7029500030621814,0.7550104939466753,0.5203286124944484,0.4914005708694416,0.13136489585862834,0.6745762711864405,1
0.7052867539660689,0.7499888527319343,0.5159295305319237,0.48961348411767497,0.13098521222800988,0.6711864406779631,1
0.7033110054432881,0.75629169995558,0.5203309205390929,0.5738757206987464,0.13098521222800977,0.671186440677964,1
0.6882877904025171,0.7408811602987816,0.5042747664214992,0.5289772549796471,0.13136489585862823,0.6711864406779631,1
0.7606550766222656,0.6876563730261325,0.3638805907093809,0.5496074827424395,0.13402238441320033,0.6711864406779631,1
0.798102458941069,0.5656729036856347,0.15714022270977637,0.5334041025988475,0.13212426311986555,0.6745762711864369,1
0.9235646256528728,0.47106469185909944,0.2558981669369732,0.5519596143304119,0.11693751161463786,0.6745762711864378,1
0.7652385103361568,0.5160212178570118,0.5907298328895636,0.39859717379970205,0.10213044374002925,0.6745762711864369,1
0.6487197351044709,0.5284718064849021,0.765475054240701,0.6144020636043972,0.11390004256968958,0.6745762711864396,1
0.30794289531662883,0.5163554487984882,0.8875389723768929,0.4556691195688991,0.12756805955244224,0.667796610169491,1
0.31541065712181215,0.46175687336356996,0.9130696759657466,0.5316294572075714,0.12908679407491705,0.667796610169491,1
0.26586831936229227,0.45682635337564387,0.9052307273292559,0.6143599288070734,0.12984616133615426,0.6677966101694901,1
0.3750681641296588,0.5046344816000675,0.89243451692867,0.4991627798644736,0.13288363038110282,0.667796610169491,1
0.47242843098611653,0.4800896200854602,0.8852464613572282,0.41654062138258513,0.13212426311986544,0.6711864406779631,1
0.22654419584636423,0.5033331468813655,0.914397501411552,0.43142173033090386,0.13478175167443782,0.6711864406779666,1
0.5033881861944725,0.46773839619779317,0.8057820329519847,0.5600698138777075,0.13212426311986544,0.6711864406779657,1
0.7466640324213314,0.5101131657923538,0.8282329246889804,0.8275124996488528,0.13705985345814917,0.6711864406779666,1
0.48099216259828165,0.7856949821645318,0.5379089031455263,0.8015205981689959,0.12984616133615398,0.6711864406779666,1
0.6109177139202131,0.7577507307920998,0.3370911425566529,0.36870290945693146,0.13098521222800966,0.6711864406779675,1
0.9367483412464729,0.5655868632498183,0.46321011263629874,0.48790641333547946,0.11959529702896823,0.6711864406779666,1
0.8102925098633099,0.6447120843224262,0.09961510306240284,0.6832272614348405,0.13136489585862846,0.6711864406779675,1
0.8374682041633131,0.5378635206674615,0.205979215440282,0.4877076235023141,0.13478175167443754,0.6677966101694937,1
0.7673168634626657,0.5193117159547218,0.6771843952319514,0.22332642162900734,0.13895827161124222,0.6677966101694954,1
0.5805026523535781,0.6048184752731139,0.8025821495188793,0.40717031861735375,0.1431344946882883,0.6677966101694937,1
0.525266519784426,0.5414038527909747,0.7707697075296238,0.8053093834507383,0.13668016982753048,0.6677966101694937,1
0.5493952173502902,0.6056353550564508,0.8232988492220222,0.30583565815137004,0.13060552859739097,0.6677966101694901,1
0.6065278913287819,0.586684293370938,0.7702834379274988,0.3625305005532167,0.12263246921415907,0.667796610169491,1
0.5794215206471617,0.5855213709056031,0.8013461995444147,0.7422457819576673,0.1264293055203448,0.667796610169491,1
0.6187404024226845,0.5885362220368505,0.7622357901392455,0.44205159587734977,0.12680869229120525,0.667796610169491,1
0.5678030008397428,0.5570600016666146,0.834507695068423,0.5025886217117668,0.12756805955244235,0.6677966101694928,1
0.6547495868368154,0.5755216008007344,0.720730595817792,0.5524793663940636,0.12946647770553568,0.6677966101694937,1
0.7694522702519591,0.6665697959732104,0.5086001235496849,0.5945111252518686,0.1055475964155966,0.6677966101694928,1
0.7853921379451837,0.6352751183900213,0.5565708175139072,0.5391331345990957,0.035309093348738774,0.6677966101694937,1
0.7846817639160397,0.6274075095900473,0.5734078560104668,0.5521784691142904,0.005315273968902162,0.6644067796610127,1
0.7737367670968266,0.6136909328721654,0.5736850484853042,0.590687447890978,0.008352743013851083,0.6644067796610127,1
0.7884307187387818,0.6218887243352071,0.5766145090836646,0.5856925785276127,0.01290864972151623,0.6644067796610127,1
0.7751871066336319,0.6283896904505464,0.5697917852549843,0.49722547423935576,0.022780127257841648,0.6644067796610136,1
0.7669428272384722,0.6345755861379564,0.5626941792373885,0.5328130615804167,0.03379035882626405,0.6644067796610127,1
0.778611386603024,0.6451428488242992,0.5511311969702173,0.5500370466614579,0.04556025451568246,0.6644067796610127,1
0.7919061834987594,0.64772957920834,0.5274479971658134,0.516193397267362,0.06644166676067234,0.6644067796610127,1
0.7666350398741856,0.6982549036584236,0.5669314606871774,0.5513631481807766,0.07441472614390457,0.6644067796610127,1
0.5540004775657597,0.631984265684624,0.7693917498591889,0.5527678937042375,0.10402886189312241,0.6559322033898303,1
0.6054681738187644,0.6153680553120308,0.7436111441761102,0.5220450532118095,0.1180765625064942,0.655932203389832,1
0.7006414578648198,0.6482599025735482,0.6811661431909577,0.5155590778995134,0.10099139284817368,0.6559322033898303,1
0.718209205554375,0.6826277113271688,0.5799271658391638,0.38494124464926605,0.09187957943284367,0.655932203389832,1
0.7017375615640778,0.679465712245275,0.6500196244444698,0.5292045951999576,0.09149989580222526,0.6559322033898303,1
0.6807527272961937,0.6353857326055091,0.6744531474269382,0.7264107621999311,0.09036084491036953,0.655932203389832,1
0.7087450062453083,0.63925295754282,0.6710519266232516,0.5386024117986422,0.08960147764913204,0.6559322033898303,1
0.7289377871351157,0.6280519340839609,0.6559922505206413,0.4727308328865505,0.09415738435679707,0.6559322033898303,1
0.7281753617317169,0.6231756304311655,0.6359097039503072,0.5301441556677612,0.09795422066298257,0.6559322033898276,1
0.7605720267428402,0.6231010067892,0.6254243899470735,0.5560007055790881,0.10023202558693647,0.6559322033898303,1
0.7439509522199748,0.6232205435631637,0.6192675766819177,0.49570183535972323,0.10023202558693659,0.6559322033898294,1
0.7505396035919865,0.6260896752019552,0.6174334167187248,0.5277271199914189,0.10175076010941073,0.6559322033898294,1
0.7471881785977802,0.6250202660746161,0.6192217845183791,0.5234928460711921,0.10175076010941067,0.6644067796610118,1
0.7581334372595186,0.6236803622117073,0.6084138208803572,0.5515968019740094,0.10326949463188509,0.6644067796610127,1
0.7557014623792425,0.6260358655528071,0.6035007297152895,0.49908931327560163,0.10213044374002914,0.6644067796610127,1
0.7668089507061867,0.6233741885548836,0.5957311097342941,0.5231962219420002,0.10288981100126668,0.6644067796610127,1
0.7565801097398098,0.6212523821465226,0.5969719027414802,0.543164373487047,0.10175076010941067,0.6677966101694892,1
0.7747070315225731,0.6146719068843112,0.5889002234298879,0.5458937324577586,0.10251012737064805,0.6677966101694892,1
0.7740129702827826,0.6099108183717504,0.5868872447146821,0.5044561318397246,0.10023202558693647,0.6677966101694892,1
0.7864113410326535,0.61022672555886,0.5715151868122118,0.5286401115383927,0.10137107647879226,0.6677966101694901,1
0.7821032264466093,0.6097803695012939,0.5621628112235338,0.521893728961051,0.10061170921755505,0.6644067796610136,1
0.7922442703514601,0.6099589466038708,0.5609096707450865,0.510446271468928,0.10061170921755505,0.6644067796610162,1
0.7907393166550853,0.6094684901952813,0.5415402469847106,0.5151273763339627,0.10023202558693647,0.6644067796610154,1
0.8119639977203357,0.6093205809588915,0.5160046537206431,0.5616225448115818,0.10023202558693642,0.6644067796610162,1
0.8049372069791141,0.6091785787535493,0.509868017165041,0.5179901338976012,0.09909327155483874,0.6677966101694901,1
0.8192756103608216,0.6088282717663656,0.5010483996710955,0.5263098269181431,0.09985234195631812,0.667796610169491,1
0.8069950967723161,0.6068960222960715,0.5066246299839403,0.5882602916793707,0.09947295518545748,0.6677966101694901,1
0.8146453602543882,0.6053042385137144,0.5002156605774728,0.5494697332164145,0.09909327155483902,0.667796610169491,1
0.8089297377207394,0.6067531460805532,0.5049219403165537,0.4862892934042646,0.09833390429360142,0.6711864406779657,1
0.8176860053193208,0.6043546677916254,0.500917427055617,0.49653101858963034,0.0975745370323646,0.6711864406779675,1
0.8092414566512552,0.5985350224630036,0.5041087158975278,0.5379295892739544,0.0979542206629829,0.6711864406779666,1
0.8187390896919345,0.6004653155042746,0.5108392691805878,0.5572317713740275,0.09757453703236443,0.6711864406779666,1
0.8054437653340398,0.5993968311463309,0.5163283327650529,0.5172869142020566,0.09719485340174558,0.6711864406779657,1
0.8083966401108501,0.6078195122038216,0.5193396073217146,0.5458989753269444,0.09757453703236454,0.6711864406779675,1
0.7991508393715089,0.6060762584814949,0.5315741309165471,0.5017591829023811,0.09719485340174575,0.6711864406779666,1
0.8084974124409899,0.601279882328555,0.5320842838292743,0.5161572196931961,0.09719485340174569,0.6711864406779657,1
0.8012741210777385,0.5991723605523034,0.5331992438913604,0.5747889788591956,0.09871358792422044,0.6779661016949134,1
0.8089794190075411,0.6053758441682515,0.5302207835494961,0.5600177509478691,0.1009913928481738,0.6779661016949143,1
0.8004439393950982,0.5995020905648214,0.5332133162348185,0.4797945131466981,0.09985234195631779,0.6779661016949134,1
0.8089016164295812,0.6019359259036882,0.5273078258608015,0.5209820813712485,0.10023202558693664,0.6779661016949152,1
0.7990262613734621,0.5994661564835939,0.5307438150868475,0.5387698813183642,0.0983339042936017,0.6779661016949152,1
0.809466667289094,0.6018076139981415,0.5260599236232875,0.5215713675824514,0.09985234195631812,0.6779661016949152,1
0.8021047651588736,0.5984119539024175,0.5300094713489941,0.5355172506698697,0.09909327155483896,0.6779661016949152,1
0.8098532618438004,0.6019521296520914,0.527909650444032,0.5498271034799065,0.09909327155483891,0.677966101694917,1
0.8025751928271178,0.5983152538584784,0.5338254716459437,0.5371792696581247,0.09909327155483874,0.6813559322033882,1
0.8088504313329112,0.6020333588620546,0.528103709875791,0.5385030054200627,0.09833390429360198,0.6813559322033891,1
0.7989239251872217,0.5982420490496745,0.5317171100108282,0.5186350749039993,0.09871358792421989,0.6813559322033882,1
0.8091868524839323,0.602100938946595,0.5251081159750625,0.5135910776335624,0.09871358792422016,0.6813559322033891,1
0.8000886759421884,0.5981784163342121,0.5314147691352333,0.539532530176071,0.09871358792422016,0.6813559322033873,1
0.8122598062008094,0.6021660793629716,0.5260535410397859,0.5586988029848979,0.0983339042936017,0.6813559322033882,1
0.799672094513682,0.5980756382043394,0.5309137622127859,0.5130634935784927,0.09795422066298307,0.6813559322033873,1
0.8116329700319318,0.6053444801242371,0.5181811897936501,0.5498070035613991,0.09605580250989007,0.6813559322033882,1
0.8072071431828873,0.5905484846000368,0.527198465804337,0.5255474741809754,0.09757453703236393,0.6830508474576291,1
0.8157795345716156,0.5917683642452539,0.5293113610721515,0.5367265495679427,0.09681516977112761,0.68305084745763,1
0.7998474154787679,0.5919206725720821,0.5297989937349078,0.511274675893705,0.09719485340174541,0.6830508474576291,1
0.8201153545250895,0.5969999628500222,0.5248280334527926,0.5461820054271546,0.0971948534017458,0.6830508474576291,1
0.7946547332937799,0.5952031861240211,0.5275284649152412,0.5301058931764616,0.09757453703236427,0.6813559322033917,1
0.8252748563122685,0.5881167163160875,0.5282951316396745,0.5352229558786212,0.09795422066298295,0.6813559322033926,1
0.8613682232817913,0.6015212497511173,0.5407531684909355,0.49912812081995467,0.09947295518545721,0.6813559322033917,1
0.620131329775248,0.6389291384668103,0.6355066614539338,0.568777508219082,0.10061170921755488,0.6813559322033917,1
0.7436601675848661,0.6117447455487733,0.6963002670005088,0.5032137885034527,0.1188359297677313,0.6915254237288142,1
0.7194280751584692,0.6083013123665374,0.6258380214545094,0.5352891014090724,0.11731719524525716,0.691525423728816,1
0.7901143953237149,0.6511074092745941,0.603949149832432,0.5162499858042668,0.11617814435340104,0.6915254237288142,1
0.7784464706915765,0.47969373941296356,0.6010179679782376,0.6584458893228214,0.11124255401511765,0.6915254237288169,1
0.8715308038599874,0.4937899911009176,0.5072087531315987,0.4045606833469485,0.10478822915435906,0.6830508474576309,1
0.9501489828638386,0.5793391617395502,0.5276757503613113,0.5003141837669685,0.0949167516180345,0.68305084745763,1
0.7413697216136726,0.5699814535177452,0.5129356159849804,0.5773347559551514,0.1108628703844988,0.68305084745763,1
0.7305130722001224,0.6865801774934199,0.3241806570381083,0.6547842274253005,0.11807656250649415,0.6830508474576309,1
0.7755798503284058,0.6785065717429584,0.4085953474313856,0.5290774832039246,0.12984616133615398,0.688135593220335,1
0.8618230793298381,0.5338051332815819,0.4221206690017826,0.49241385368553287,0.12680869229120553,0.6881355932203359,1
0.908024007130285,0.47212808901315273,0.5438406163918093,0.43298789686603845,0.12491057099787026,0.688135593220335,1
0.7415318700059005,0.5834717788025469,0.6995150505947161,0.3123336936315626,0.12756805955244263,0.6881355932203359,1
0.4390309325918867,0.5310924625163806,0.7714021279478537,0.7105913186303201,0.1366801698275302,0.6881355932203368,1
0.11830804713581201,0.2517604160309397,0.989251805946233,0.5321349093873766,0.1370598534581494,0.6881355932203368,1
0.1914456152326091,0.4717919927241182,0.8962349855843148,0.5693804385030486,0.13857858798062336,0.6881355932203368,1
0.21510875417695904,0.4471383751031901,0.91006707887613,0.6626440596341217,0.13971763887247965,0.6881355932203368,1
0.2640224678668632,0.40067765401373456,1.0,0.26362244405901825,0.13895827161124216,0.6881355932203395,1
0.24594932834567476,0.6565053408297163,0.7305047360648567,0.40021797361081035,0.1385785879806238,0.6881355932203403,1
0.6630060266238365,0.6740219839485184,0.5748958387527155,0.7675069516607895,0.13022584496677284,0.6881355932203403,1
0.9332559262545966,0.5650755189080692,0.6162001180422709,0.6164564824328438,0.06416386183671904,0.6881355932203403,1
0.7428878078807893,0.5499875564596999,0.5258933713480455,0.4898801271204891,0.07251660485056963,0.6830508474576247,1
0.9927663758051788,0.6447346786807442,0.42275815445038195,0.6133448463572801,0.09074052854098782,0.6830508474576265,1
0.8520145938570673,0.6736621113236805,0.5661020925742075,0.3634350105359187,0.09263894669408099,0.6830508474576265,1
0.11466654874430843,0.8196823320396436,0.5531185319521877,0.4485654315363156,0.11352065579882922,0.6830508474576265,1
0.17796693811646863,0.9159748830524687,0.5698110759660583,0.6239308069550471,0.12339183647539617,0.6830508474576265,1
0.2611577403820075,0.9409551376489587,0.5669994286807428,0.4960801664295549,0.1298461613361541,0.6830508474576273,1
0.1816830213373723,0.9030216212880025,0.5321876237553491,0.5555917479364852,0.13288363038110243,0.6830508474576265,1
0.31603291339937745,0.9042430876535532,0.46188019243467393,0.6367310395153509,0.13440206804381924,0.6830508474576291,1
0.40649299540049066,0.5562467542104201,0.9374464142358656,0.5527549502144571,0.13516143530505617,0.6779661016949134,1
0.06441863214032231,0.3678214258083813,0.9527932821895342,0.4656425393957633,0.1252902546284894,0.6779661016949134,1
0.16501033353983222,0.4896550637007993,0.9006765355435029,0.5906293588277258,0.12794774318306126,0.6779661016949117,1
0.1202768505068373,0.44209620277899064,0.9289534976070155,0.4708609571089728,0.1260496218897266,0.6779661016949143,1
0.2967196706816004,0.5404165162392913,0.8890516831832815,0.2939824359765124,0.12263246921415902,0.6813559322033855,1
0.43021996477135954,0.523419117909894,0.8744103778527383,0.5676715575387715,0.12301215284477782,0.6813559322033873,1
0.5752969983115181,0.5732735013238003,0.7923844352297746,0.7050001698740567,0.12453088736725168,0.6813559322033873,1
0.6100929604743908,0.5833518796008536,0.7668313524055024,0.5559375679560523,0.11807656250649409,0.6813559322033882,1
0.5666671097520897,0.4647213523974986,0.8515079741240001,0.5244858498116006,0.1127612885375919,0.6745762711864405,1
0.6747024641360975,0.4637609581474364,0.7264184810838699,0.6750843335848932,0.11238160490697344,0.6745762711864414,1
0.7960052674487756,0.6162406979655836,0.6386111576869185,0.4948489817939123,0.10288981100126651,0.6745762711864405,1
0.6508884230973914,0.4576072770787565,0.7499460973998009,0.4019669035288428,0.052014579376440356,0.6745762711864414,1
0.8551529069562566,0.45268728901571875,0.6038020125531396,0.5260987088175717,0.07821156245009078,0.677966101694917,1
0.8016619174760605,0.49161713813178143,0.5444768128863637,0.5490529763663303,0.08276746915775565,0.6779661016949179,1
0.8799745102863097,0.4935489380598601,0.42963542955241224,0.6130619171461563,0.08846242675727609,0.6779661016949179,1
0.8845290753716336,0.4982456269828629,0.38560089414300347,0.45719641781590714,0.09491675161803417,0.6779661016949179,1
0.859608464281527,0.47689889916629974,0.3953478781789296,0.5758407900188315,0.10402886189312213,0.6779661016949152,1
0.8648619839383109,0.4833324627456632,0.3775760539059886,0.5171634121704376,0.1066866473074525,0.6779661016949179,1
0.8739050006626845,0.48466325686842426,0.3612360504707307,0.6150463339035626,0.11427972620030821,0.677966101694917,1
0.8500221416566249,0.4785379676400173,0.44096588355283095,0.595782126626232,0.11731719524525655,0.677966101694917,1
0.8750061850316297,0.48449907660291125,0.3961449420927576,0.4782035754055324,0.11769687887587546,0.6779661016949152,1
0.8601598882442137,0.4848380396269066,0.36717472663973444,0.4900023367406254,0.11997498065958692,0.6779661016949152,1
0.8576884605210575,0.4958440030134395,0.32048950474647486,0.46853438261107977,0.12149341832230268,0.6779661016949143,1
0.8579123211590052,0.4887667644799059,0.30049493368563646,0.1797090848488046,0.12187310195292192,0.677966101694917,1
0.8584625387120677,0.49355809306713616,0.30819301198111554,0.6709689840190386,0.12339183647539584,0.6745762711864396,1
0.8551327912590182,0.4872136102679611,0.3076257641021196,0.6856604536913283,0.12377152010601447,0.6745762711864396,1
0.8578282286129799,0.49266807395859424,0.30970687942326197,0.5326453099380303,0.12491057099787065,0.6745762711864369,1
0.8541723206469551,0.4873780396542498,0.3088819403005673,0.5984578997953551,0.1241512037366336,0.6745762711864396,1
0.857120033522804,0.49345321806331055,0.31074289280671863,0.45120618278873015,0.12491057099787053,0.6745762711864396,1
0.854370264412674,0.4878236278459887,0.3089873146265676,0.41787881811026767,0.12339183647539634,0.6745762711864396,1
0.8569815097220524,0.49212554168864586,0.3110222652641226,0.39627891950553773,0.12491057099787026,0.6745762711864396,1
0.8551097003226898,0.4883152206859558,0.3125808332340025,0.5620062738181533,0.12491057099787065,0.6745762711864396,1
0.8597443724293012,0.49316976902367893,0.31575502541224626,0.6203836581045269,0.12491057099787015,0.6745762711864369,1
0.8559381971886726,0.48860396469331785,0.31200899800158993,0.5501014192026925,0.12263246921415902,0.6745762711864369,1
0.859301291759258,0.49202139052462535,0.31079328472650825,0.5945500570748964,0.12491057099787031,0.6745762711864369,1
0.8551872896895889,0.48798436337290985,0.31196489325236443,0.49378642681053175,0.1245308873672519,0.6745762711864378,1
0.8563185756814047,0.49198127950295767,0.3106517818124318,0.6056647478313194,0.12453088736725168,0.6745762711864414,1
0.855337121701132,0.48806442638004216,0.3110088001413758,0.5596160483201338,0.12566993825910774,0.674576271186444,1
0.8575614730356982,0.49189418305049676,0.3104345632466802,0.5055290824628412,0.12453088736725162,0.6745762711864431,1
0.8550908561425979,0.48815179903300404,0.31112131864330794,0.46919500192628405,0.12453088736725168,0.6745762711864431,1
0.855685506268261,0.4918085567922007,0.30809032780477763,0.6241124968542306,0.12301215284477737,0.6711864406779631,1
0.8541674551364736,0.4882349706895083,0.31028692527955204,0.4850799718139134,0.12491057099787015,0.6711864406779657,1
0.8566100806108636,0.49172808750362806,0.30978604071778243,0.5301928834637197,0.12453088736725168,0.6711864406779631,1
0.8550719761027361,0.4883126763609874,0.3101200265092917,0.5122443625034063,0.12377152010601453,0.671186440677964,1
0.8559711386236982,0.49165312405598793,0.31040916125878165,0.6203824292092658,0.1241512037366331,0.6677966101694892,1
0.8575406635516819,0.488384957092318,0.3112845701040616,0.5853117455989244,0.12491057099787026,0.6677966101694901,1
0.8586377804566011,0.49158344941948207,0.31223762414806466,0.5316886798717093,0.12377152010601442,0.6677966101694892,1
0.8554417254867023,0.4884521086570742,0.310314012488842,0.510440355911159,0.12377152010601475,0.667796610169491,1
0.8569772680436727,0.4915187373568398,0.30951890554406003,0.5485554922254835,0.12415120373663288,0.667796610169491,1
0.8545867408958988,0.488514461909444,0.31288962797452224,0.5275426161088569,0.12415120373663333,0.667796610169491,1
0.8567447337016256,0.491458667268176,0.31355890394366387,0.515868876847473,0.12339183647539628,0.667796610169491,1
0.8547426413831921,0.48857231788119404,0.312397117204931,0.5070990933930315,0.12225278558354033,0.6677966101694928,1
0.8566263256571682,0.4914029644497755,0.3117522951017024,0.5590131181326203,0.123391836475396,0.6677966101694892,1
0.8548401227454221,0.4886259178649468,0.31017286575027686,0.5335219785923571,0.12301215284477765,0.6677966101694928,1
0.8565411454256493,0.4913514357502113,0.3113980044396548,0.5204354679636233,0.12187310195292142,0.667796610169491,1
0.8549184118162869,0.4886753526180687,0.31074900050536014,0.5089080682159154,0.12225278558354022,0.6677966101694928,1
0.8564655081748227,0.4913043620637018,0.3112550500424601,0.5317060707820687,0.12149341832230284,0.6677966101694928,1
0.8549958101320874,0.4887181935047405,0.31422347216580676,0.5346997732285818,0.12149341832230284,0.6677966101694928,1
0.8563800701225834,0.4912872077758373,0.31370504219874007,0.5371597984735402,0.12187310195292159,0.667796610169491,1
0.8551013491820109,0.4901858339238592,0.315537710107089,0.5077290588666974,0.12187310195292186,0.6677966101694928,1
0.8562220922800404,0.4921481563221461,0.3163234103878032,0.5372699164749386,0.12111373469168438,0.667796610169491,1
0.8554741019351708,0.4895278677736515,0.3166274679464082,0.55178448192708,0.12073405106106624,0.6677966101694937,1
0.8573989080612692,0.49205406946924746,0.315257706798787,0.5185659296463908,0.11655782798401929,0.6677966101694928,1
0.8553363541849174,0.4911554058492221,0.3151480627006472,0.503299482976342,0.11959529702896829,0.6677966101694928,1
0.8575979115537828,0.4912050578246332,0.3155763795077484,0.5492741715693038,0.11921561339834943,0.6711864406779657,1
0.8546018459349218,0.488890966892423,0.3162992289399032,0.5537960362403976,0.12035436743044745,0.6711864406779675,1
0.856688398236353,0.4910895073098689,0.3143991058514081,0.5467469319929998,0.11883592976773114,0.6711864406779666,1
0.8547706257822371,0.48892702857093656,0.3145715914499959,0.4800069467497067,0.11921561339834943,0.6711864406779657,1
0.8567083074680916,0.49106412377960285,0.31179155114238,0.5085678426268173,0.1184562461371125,0.6711864406779675,1
0.8561764164576549,0.4889481931861551,0.31256764043954516,0.5474917142801917,0.11845624613711273,0.6711864406779675,1
0.8563515621066636,0.4910466730267664,0.31440671687480626,0.5245069961974498,0.11845624613711239,0.6711864406779693,1
0.8550071134533564,0.4889609602182128,0.3147695579151817,0.5162620012608113,0.11845624613711273,0.6711864406779702,1
0.8564487041413529,0.4910407005910348,0.3130527256971656,0.5320761831813728,0.11769687887587502,0.6711864406779631,1
0.8549245300764874,0.48895593737461596,0.31505586491097304,0.557713406027497,0.1176968788758754,0.6711864406779631,1
0.8566266094383106,0.4910664413471554,0.31618743060541005,0.531945860514517,0.11731719524525683,0.6711864406779613,1
0.8561524062107669,0.4888788794642707,0.3139287219449321,0.5372153826273077,0.11845624613711273,0.6711864406779631,1
0.8567558456684378,0.4914002150779579,0.3156496394975635,0.5406766827880871,0.1173171952452566,0.6711864406779657,1
0.8562282208578071,0.49008130234994457,0.3168018906518095,0.5216269033948919,0.11769687887587546,0.6711864406779675,1
0.8559482291119649,0.4934527778423023,0.3148918729774126,0.4935834644918587,0.1165578279840194,0.6711864406779666,1
0.8553498052919144,0.4907473973956039,0.3148727278804278,0.5212940622197761,0.11655782798401956,0.6711864406779657,1
0.8561227158427398,0.49050894494269853,0.31318183255583015,0.5532839813142845,0.11579846072278224,0.6711864406779657,1
0.8552705653670366,0.4893619658868499,0.31380040747668514,0.5388927516877476,0.11731719524525677,0.6711864406779666,1
0.8561702813318071,0.49066460651665383,0.3114699131074105,0.5118145292273618,0.11541877709216389,0.6711864406779657,1
0.8552351631483108,0.4894464900850336,0.3123399911667815,0.539829783567002,0.1150390934615452,0.6711864406779666,1
0.856203417483983,0.492018601720114,0.3121048769724727,0.5516471711758558,0.11352065579882917,0.667796610169491,1
0.8551952388502132,0.49002877057009414,0.31334484613935065,0.5220993160525048,0.11541877709216411,0.6677966101694928,1
0.8562695009009341,0.4905555413511737,0.3133592108267099,0.5166017001464978,0.11352065579882889,0.667796610169491,1
0.8533848718344925,0.48915905249581115,0.3141647499927698,0.5433832587789862,0.11390004256968947,0.6677966101694928,1
0.8595241580386188,0.4948431192348452,0.31385714621909744,0.5558767343338891,0.11314097216820998,0.6711864406779657,1
0.8578489830200742,0.4916728172661962,0.31320594088475673,0.536035686715372,0.11390004256968936,0.6711864406779666,1
0.8541470793478283,0.49498555369139075,0.31760924827421994,0.6038929824480367,0.11276128853759185,0.6711864406779657,1
0.8568006145538031,0.4940122228412463,0.313137830405554,0.7191223387257447,0.11238160490697316,0.6711864406779657,1
0.8578052462119765,0.49110745877897377,0.31453726802765836,0.5435746590164034,0.11086287038449857,0.6711864406779657,1
0.8551661966899463,0.49139332182376416,0.3110626445937372,0.20198047223701943,0.11162223764573595,0.6711864406779666,1
0.8588804954498114,0.4905508233333148,0.3126943127568164,0.38194546090656506,0.1112425540151171,0.6711864406779657,1
0.8547637626484423,0.491411030987708,0.31056003541062893,0.670753272388186,0.10972381949264312,0.6711864406779675,1
0.8585006671877777,0.49091333051873803,0.3102185311058256,0.5704807531441923,0.11086287038449869,0.6711864406779657,1
0.8559746208087311,0.49007396375622425,0.31049737367207875,0.7042358663223267,0.11010350312326175,0.6711864406779657,1
0.8559997417150697,0.49187526131595966,0.31286948940066295,0.4085573996528977,0.11010350312326159,0.671186440677964,1
0.8580434076974399,0.4902967233987426,0.3148189155824076,0.28666274551563176,0.11086287038449891,0.6711864406779657,1
0.8558401426487808,0.4915712872130004,0.31409180945145326,0.5386879247831192,0.11048318675388022,0.6711864406779666,1
0.8554849532537334,0.4922651862191767,0.31516629329504514,0.5957208768438684,0.1097238194926429,0.6711864406779693,1
0.8559847130162466,0.4920507645206902,0.31556625771540914,0.5614517475711095,0.11048318675388005,0.6711864406779675,1
0.855398489048104,0.49058831267709085,0.3150243999712006,0.5725907354673466,0.10972381949264295,0.6711864406779693,1
0.856070620872571,0.4916991920168846,0.31563024760895164,0.647961395107424,0.10934413586202443,0.6711864406779675,1
0.8552472314061357,0.49047359620490116,0.31312293296112875,0.5342234741891482,0.10896445223140619,0.6711864406779675,1
0.857096705617151,0.4909524870838237,0.30963254204117086,0.4681464080998614,0.10744571770893166,0.6711864406779666,1
0.8559009238806794,0.48936628145469596,0.3100131092423092,0.3795370289054486,0.10858476860078756,0.6711864406779675,1
0.8556723709843879,0.4905107512941831,0.3069182564880843,0.5096127204946892,0.10820508497016826,0.6745762711864396,1
0.8560352835884597,0.4914796455293194,0.3089034254206844,0.5671736763053394,0.10744571770893177,0.6745762711864405,1
0.8557915935559866,0.4926501939051425,0.30715508445833045,0.5552643633544991,0.10744571770893144,0.6745762711864396,1
0.8549484088637246,0.4900547833480209,0.3089007980669569,0.5649268716524463,0.10706603407831292,0.6745762711864396,1
0.8569156554137494,0.4924647828166845,0.30687561526134527,0.5230245549726589,0.1070660340783127,0.6813559322033891,1
0.8561922189584998,0.4908780920625917,0.31115171584234774,0.46911304705479845,0.1066866473074525,0.6813559322033917,1
0.8557564730848276,0.49222923349022873,0.30949053077415417,0.47024238605883184,0.10668664730745223,0.6813559322033909,1
0.8555689678370312,0.48918269325232366,0.3109906396347335,0.6249974325237253,0.10592728004621518,0.6813559322033909,1
0.8558897513633724,0.4913255140474512,0.3127320142835723,0.584421244374675,0.10630696367683404,0.6813559322033882,1
0.8555137659745783,0.49273236371292944,0.3107971288718888,0.5539276474217694,0.1047882291543594,0.6813559322033891,1
0.8559171663638934,0.49287596614407936,0.31180148312853573,0.5434925889490877,0.10554759641559655,0.6813559322033882,1
0.8555000385078593,0.4895454190472364,0.31074008983141077,0.524401844857114,0.10440854552374115,0.6813559322033891,1
0.8559224384962686,0.4905207173263481,0.308214107559507,0.5057095239367924,0.1051679127849782,0.6779661016949152,1
0.8555011675800762,0.48948321384233034,0.3090366497982452,0.515897378951384,0.10440854552374099,0.6779661016949143,1
0.8559154086414783,0.4905139557703906,0.3077614908196762,0.5429710168500137,0.10516791278497814,0.6779661016949143,1
0.8555147192270985,0.489492283997944,0.3081359230629753,0.5345847435015824,0.1047882291543594,0.6779661016949152,1
0.8558934322806927,0.49051072313468447,0.3079372188331231,0.5343894811919353,0.10402886189312219,0.6779661016949143,1
0.8555491519381759,0.48948370281836634,0.3079979060239094,0.5651925671273376,0.10402886189312258,0.6779661016949152,1
0.855837957704025,0.49054610424711975,0.30820804604448626,0.5192133427512959,0.10402886189312202,0.6779661016949134,1
0.8556464963998955,0.48935848441954466,0.3090505004052923,0.5039317172458462,0.10326949463188514,0.6779661016949152,1
0.8556324385213402,0.4925525516222694,0.30772815097351464,0.503175959995044,0.10251012737064794,0.6813559322033891,1
0.8563742996779893,0.4923109613961356,0.30818362541646954,0.5606380982838872,0.10326949463188514,0.6813559322033891,1
0.8582418456734593,0.4923058577696253,0.3078736213146971,0.5762985108972225,0.1055475964155966,0.6813559322033891,1
0.8547813991775324,0.49104785764026837,0.3080893605698782,0.6103802601562833,0.10592728004621524,0.6813559322033891,1
0.8572505445622157,0.4917407155136154,0.308010854667995,0.6547266777099425,0.10592728004621502,0.6881355932203359,1
0.8567378559223248,0.49200201995078274,0.30713822497075594,0.4431133078933205,0.10516791278497808,0.6881355932203368,1
0.8564126939306794,0.49120772666402546,0.3032455423675776,0.444339879879106,0.10554759641559616,0.6881355932203368,1
0.8551970736222549,0.4899328536284733,0.30208198711159073,0.4646689104916987,0.10516791278497814,0.6881355932203368,1
0.8548803407717234,0.49141939387614353,0.3000683175001736,0.4692076223179404,0.10516791278497781,0.6830508474576291,1
0.8552819062043054,0.48923187053875195,0.2995793335218819,0.5320670204079204,0.10516791278497797,0.68305084745763,1
0.8560682755471528,0.49115468798558576,0.299538173930393,0.5392773082502624,0.10516791278497792,0.6830508474576291,1
0.8538101389587842,0.4902100820454215,0.29965282390102815,0.5011636199637739,0.10326949463188498,0.6830508474576291,1
0.8537891277604642,0.4902474131355946,0.2994979315866807,0.5116841304002602,0.10364917826250372,0.6881355932203403,1
0.8551922079705186,0.4896447920360812,0.2997080516829428,0.5629956334819793,0.10440854552374099,0.6881355932203421,1
0.8569756040306917,0.4904387406665766,0.29934858997651276,0.5384098529301112,0.10061170921755494,0.6881355932203403,1
0.8561207484067557,0.4894493361284654,0.301238864742167,0.5230578071773904,0.10288981100126668,0.688135593220343,1
0.8554544292644252,0.4909128760375042,0.30309253214339904,0.5335815235556363,0.10251012737064738,0.6881355932203395,1
0.8543277924868129,0.49031665895152216,0.3023465282979713,0.5487111915427407,0.10364917826250394,0.6881355932203395,1
0.8562004097638184,0.4923676343242723,0.302546226856077,0.4989688835817641,0.10251012737064771,0.6881355932203386,1
0.8540129201691965,0.4927466300789679,0.30457703489946913,0.5275478186711171,0.10326949463188526,0.6881355932203395,1
0.8560864241548317,0.4932684474574256,0.30539369112425396,0.5254070987148676,0.10175076010941056,0.6915254237288098,1
0.8540597980600905,0.4916309540569997,0.30213622090191317,0.5231237475734998,0.10288981100126651,0.6915254237288107,1
0.8560551925571784,0.4917826320340387,0.3009599749196648,0.5362185966959305,0.10061170921755466,0.6915254237288098,1
0.8553818581526202,0.4910364970064275,0.2993044921955772,0.5358991977254588,0.10175076010941089,0.6915254237288107,1
0.8560191787242156,0.49089726368897646,0.2997309271556523,0.5795653669388247,0.10099139284817335,0.6881355932203368,1
0.8554339275144179,0.4906872085534872,0.2994909911811603,0.5458285368967092,0.10213044374002941,0.6881355932203395,1
0.8559310634015694,0.4907904481788984,0.2996504108487248,0.484136881627935,0.10099139284817346,0.6881355932203368,1
0.8556233830113897,0.48958060902992906,0.29954003196964163,0.5143772822989279,0.10137107647879254,0.6881355932203368,1
0.8550266301558014,0.4904277209451648,0.2996118423935401,0.5639790156339598,0.10099139284817346,0.694915254237289,1
0.8548703175133199,0.48944265305505347,0.29957879973653895,0.5385424086235904,0.10023202558693675,0.6949152542372907,1
0.8552542555261309,0.4911316997190964,0.2995622285352194,0.5350177678408737,0.10099139284817368,0.6949152542372898,1
0.8546930094974969,0.4926290543335626,0.2996602556702942,0.5203043117832089,0.10023202558693659,0.6949152542372898,1
0.8564902970152509,0.4897101114419182,0.2993721814498299,0.5539661300615554,0.09947295518545715,0.6983050847457601,1
0.8549318518916622,0.49097426013066453,0.301466677721008,0.537342620421726,0.09871358792422016,0.698305084745761,1
0.8549758990707622,0.4912296731853014,0.3001401551727168,0.5135480963945973,0.0998523419563179,0.6983050847457601,1
0.8554473298741381,0.4913529454434137,0.29928682972073617,0.5388728111263121,0.09871358792422028,0.6983050847457601,1
0.8551004621548675,0.489402481280788,0.2998122853533027,0.5487379060650585,0.09909327155483874,0.6983050847457601,1
0.8547490380250847,0.491361804184425,0.29938999948171463,0.5102962374891216,0.09871358792422011,0.6983050847457601,1
0.8564639890356195,0.48988682516194604,0.2997625027432017,0.5008997988153684,0.0983339042936012,0.6983050847457601,1
0.8550065706604887,0.49016009094955093,0.29941805186399784,0.5401629993804592,0.09795422066298318,0.698305084745761,1
0.8563985677443382,0.48983672003934897,0.2997456109285581,0.552056654819442,0.09795422066298262,0.7016949152542367,1
0.8550263408743088,0.49016936242438613,0.29942837365523267,0.50269594878721,0.09795422066298323,0.7016949152542367,1
0.8563994990788106,0.4898271617483087,0.2997395299190898,0.5137427877112977,0.09795422066298307,0.7016949152542349,1
0.855011977516432,0.4901854713803454,0.2994315253527983,0.5459900906587013,0.09719485340174591,0.7016949152542367,1
0.8564254303294999,0.4898021747107113,0.29973851197666823,0.5382131949406234,0.0960558025098899,0.701694915254234,1
0.8549733585614833,0.4902217185279612,0.29943091971611974,0.5136974083939755,0.09643548614050881,0.7016949152542367,1
0.8564812150620621,0.4897508865569027,0.2997403998690811,0.5365971761306946,0.09681516977112695,0.7016949152542349,1
0.854889119866981,0.49029389782689614,0.2994279854665054,0.558112594975139,0.09491675161803423,0.7016949152542367,1
0.8566265784413528,0.48966288249047046,0.299744213370277,0.538830772957755,0.09681516977112722,0.7050847457627114,1
0.8545176847558409,0.4919157989647431,0.2994234132388567,0.503217005214637,0.09681516977112745,0.7050847457627123,1
0.8554719029173146,0.49012626578911184,0.2997494563459906,0.5359875907299214,0.09643548614050848,0.7050847457627114,1
0.8544592404738721,0.49183669580969525,0.29941756413526305,0.561764275524063,0.0964354861405087,0.7050847457627123,1
0.8554326226177643,0.4906058023305874,0.2997558641017688,0.5294854885050764,0.09567611887927138,0.7084745762711862,1
0.8553863800667446,0.4901879203652632,0.2994106323937894,0.5040397940231104,0.09567611887927127,0.7084745762711879,1
0.8561827463002314,0.49212807011657933,0.299763294844946,0.5356957352008327,0.09567611887927127,0.7084745762711862,1
0.8551580667942242,0.49111302184260985,0.2994027202960097,0.5605584589867636,0.09415738435679702,0.7084745762711862,1
0.8563262553900677,0.49095081902201765,0.29977167613497624,0.5202664507504823,0.09529643524865264,0.7101694915254244,1
0.8550291734015529,0.48968974112902375,0.29939387805831275,0.48438252145624383,0.09529643524865297,0.7101694915254262,1
0.8564973546702533,0.49017724004592944,0.299780973543851,0.5212706122254733,0.09415738435679724,0.7101694915254262,1
0.8545458472326216,0.4899063341125057,0.2993841302751412,0.5573759862259151,0.09415738435679669,0.7101694915254262,1
0.855237093968896,0.4900198819458067,0.29979116618614554,0.5312040489164774,0.0937777007261785,0.7186440677966104,1
0.8555296148406767,0.49011537737855637,0.29937350113004296,0.5206814210013182,0.09415738435679702,0.7186440677966104,1
0.8550973042312322,0.49097756536683723,0.29980221778515925,0.5401385194937636,0.09263894669408032,0.7186440677966077,1
0.8547068279484225,0.4903584708585844,0.29936205085964546,0.5587334635980014,0.09339801709556003,0.7186440677966104,1
0.8552433536002046,0.4911684878801968,0.2998140272408578,0.5245312826483614,0.09225926306346197,0.715254237288133,1
0.8549155238884364,0.4910383680297071,0.2993499465460454,0.5142638839810638,0.09301863032469918,0.715254237288133,1
0.8564992306586529,0.490996338738001,0.2998263227706874,0.5379212994657591,0.09074052854098794,0.7152542372881321,1
0.8549288285014451,0.4906739444731325,0.2993376265317596,0.5540279887425867,0.09149989580222509,0.7152542372881339,1
0.8564696143374215,0.49002408184857127,0.2998383967182227,0.513195193258294,0.08960147764913198,0.7186440677966077,1
0.8550407031817743,0.48990846330303917,0.2993262463959224,0.5088045215355758,0.09112021217160668,0.7186440677966077,1
0.8556742004023747,0.49014509133351103,0.2998483173666908,0.5329709017256021,0.09036084491036903,0.7186440677966077,1
0.8540924916107172,0.48976839828269103,0.2993191615258705,0.5615611426136689,0.09074052854098816,0.7186440677966077,1
0.856991026775881,0.49056379925919613,0.2998499006409833,0.49842937364040435,0.09036084491036897,0.7186440677966068,1
0.8544799851784732,0.4907316271491708,0.2993288793553085,0.4711681342851792,0.09074052854098799,0.7186440677966077,1
0.856945707419991,0.48992451697709777,0.2998134663953847,0.44957261891694794,0.09112021217160651,0.7186440677966068,1
0.85444849822444,0.4902280914917593,0.3005089814786626,0.5828490344307212,0.08998116127975073,0.7186440677966077,1
0.8570176390301063,0.49335321137239607,0.3008030253077318,0.6099872750036389,0.08960147764913204,0.7220338983050834,1
0.8543382657967253,0.49486002320626243,0.303609132533763,0.5513763984263321,0.08846242675727653,0.7220338983050842,1
0.8571944166929911,0.490710364956365,0.30295430995202177,0.5732810795163884,0.08922179401851335,0.7220338983050834,1
0.8538634793093953,0.4947945242710944,0.3015692770424301,0.546344807698785,0.08884211038789488,0.7220338983050834,1
0.8555673463989355,0.49090102289356946,0.30245078214524135,0.49211167680538964,0.08884211038789494,0.7220338983050807,1
0.8526524930779631,0.4924213344209032,0.30067276335940135,0.5235366570888644,0.08808274312665773,0.7220338983050825,1
0.8568394134477505,0.49008333937951204,0.30005734467833733,0.5336742191620282,0.08808274312665768,0.7220338983050807,1
0.8539664676340388,0.4911481394379787,0.29903272524383856,0.5381606948749537,0.08770305949603904,0.7220338983050807,1
0.8573947248819997,0.4901101458462073,0.3001852586526,0.5017665373498618,0.08808274312665756,0.7254237288135581,1
0.8539462114495515,0.49091769561562576,0.297889600335927,0.5241406698721803,0.08770305949603893,0.7254237288135599,1
0.8560005355292116,0.4890386163591278,0.30027208494575175,0.5536441510684472,0.08808274312665756,0.7254237288135581,1
0.8546430190366731,0.49148890777331256,0.29885031731889167,0.5933298185683668,0.0873233758654208,0.7254237288135608,1
0.8554438357085743,0.4902660991624077,0.3003727164917377,0.49521190968163004,0.0865640086041832,0.7288135593220355,1
0.8530983993405572,0.49143187641360964,0.2987377860174893,0.49512057071422033,0.08656400860418359,0.7288135593220355,1
0.8567783486872421,0.48889145856205773,0.3005000255850691,0.5369758894915982,0.08656400860418348,0.7288135593220346,1
0.8530452937826825,0.4911316945381621,0.2985924377987892,0.517033889386926,0.08618462183332296,0.7288135593220373,1
0.8569944199221818,0.4887709434519876,0.30066738901232937,0.5121106369925329,0.08656400860418326,0.728813559322032,1
0.8529350239009867,0.49149950145486765,0.2983980187064381,0.5592003129017415,0.0839065200496116,0.7288135593220346,1
0.8585160576919992,0.4906839215234765,0.30089542430877136,0.5376455797867542,0.08352683641899253,0.7288135593220346,1
0.8527677597801804,0.49165882585885934,0.29812763140694093,0.5089326243231336,0.08542525457208575,0.7288135593220346,1
0.858842366871895,0.489537932377926,0.30122006916364286,0.5205710917183696,0.08542525457208541,0.7322033898305085,1
0.852347384213422,0.49204206601846157,0.2977320787716585,0.5682748406100396,0.08504557094146711,0.7322033898305085,1
0.8593521263405209,0.4893559413749578,0.3017105276202289,0.520914514019676,0.08542525457208563,0.7322033898305085,1
0.8517372954057439,0.49222416750661946,0.2971108513062906,0.5134286672161483,0.08390652004961138,0.7322033898305085,1
0.8600838374817159,0.4878038703556782,0.30251856257569754,0.5290776923665196,0.085045570941467,0.7322033898305085,1
0.8508497190441021,0.49247546411988563,0.29602336756952075,0.5417139363031825,0.08466588731084876,0.7322033898305094,1
0.86119567900395,0.4870813267146301,0.30405026844043215,0.49443286389016294,0.08466588731084837,0.7322033898305094,1
0.8476758084073773,0.4943916254780982,0.2937248267291486,0.524683793242421,0.08428620368022996,0.7322033898305094,1
0.8609633968604672,0.4859968376392332,0.3078205024193038,0.5544853513695825,0.08352683641899258,0.7355932203389832,1
0.8559845172005791,0.4956972497701432,0.287746275159945,0.5601757388523516,0.0839065200496115,0.735593220338985,1
0.9070196857650694,0.4960418599469625,0.42073136301960434,0.5112046349085596,0.08352683641899275,0.7355932203389832,1
0.8190974568397718,0.6102309682294866,0.5528496672122385,0.5363050627111068,0.08466588731084854,0.7355932203389832,1
0.6991952576941965,0.5937319695813414,0.6249314116147525,0.5408620305850379,0.08428620368022996,0.7355932203389832,1
0.6025182352136229,0.6392339641534546,0.6438939513847237,0.5818744130424042,0.07973000011280698,0.735593220338985,1
0.8243636508467155,0.681074705755637,0.4134614779926121,0.44308019551676603,0.06682135039129092,0.7355932203389832,1
0.8901542369887813,0.5701529784841886,0.3768706750744471,0.4400479438667857,0.056570486084105726,0.7355932203389859,1
0.8423701360793028,0.5673072256861604,0.42127869895243136,0.6805863885881479,0.06682135039129075,0.7372881355932162,1
0.8499649546073441,0.5494961364059716,0.4466904995445733,0.5371736561680343,0.0675807176525283,0.7372881355932162,1
0.844405672241472,0.5837698528040455,0.48624544948179843,0.4977596553683871,0.06530291272857483,0.7372881355932144,1
0.7340759961788823,0.5808659446378733,0.5987243771184327,0.5378611183615641,0.06682135039129114,0.737288135593217,1
0.7976164834809049,0.5938723234118928,0.4580070291685037,0.4869553313304021,0.06416386183671882,0.737288135593217,1
0.8900839250396475,0.5577226892705472,0.3584713404320121,0.5332575376169884,0.06568259635919357,0.7372881355932179,1
0.8220172188177787,0.5660714886046456,0.3256654317712654,0.4420605329818904,0.0690994521750026,0.737288135593217,1
0.8537182468095457,0.5699709855859005,0.31193678532204167,0.5749674544502792,0.0725166048505699,0.7372881355932179,1
0.8292800786928695,0.565605531445585,0.32194901390453307,0.7080456228141383,0.07441472614390474,0.7457627118644066,1
0.8497089236083978,0.5600879920018843,0.3126173720469018,0.5687972409579714,0.07555377703576074,0.7457627118644075,1
0.8249781337767363,0.571146803692172,0.3030822460864768,0.3806096066864844,0.07897092971132794,0.7457627118644066,1
0.8464716214654829,0.5633621970612076,0.3088571123527,0.5552742285646155,0.08010968374342561,0.7457627118644075,1
0.8241296209070621,0.572000670858468,0.27371034506796743,0.5698325351814997,0.08200810189651839,0.7491525423728813,1
0.8619610834788123,0.5331620007808594,0.31779512878571464,0.3656735579528272,0.08390652004961172,0.7491525423728831,1
0.7475011001507397,0.5986926472786059,0.187196038314485,0.5661305125841232,0.08580493820270432,0.7491525423728813,1
0.7513076452789383,0.598311304713651,0.07140745917797497,0.5295603307251663,0.08466588731084859,0.7491525423728813,1
0.7189813666946449,0.5727252797177744,0.12002416985573516,0.5546851581762539,0.08618462183332257,0.7491525423728795,1
0.7471181948228752,0.586214760037806,0.06394490489831495,0.5852871665985724,0.08732337586542069,0.7491525423728813,1
0.7533804291749594,0.6140430200640989,0.14993441969122773,0.4775211969976739,0.08808274312665768,0.7491525423728804,1
0.8249747351314901,0.5476509849220286,0.4471412210181299,0.3511323707153865,0.08732337586542052,0.7491525423728804,1
0.8539905707963497,0.6016092521857852,0.32086811753680256,0.7165410072465141,0.085045570941467,0.7457627118644057,1
0.8107333387847689,0.6877745457000858,0.40515419972192945,0.546129838965462,0.08276746915775543,0.7457627118644057,1
0.7074822427133738,0.6526533277696079,0.586363470376795,0.6735272000463626,0.08238778552713663,0.7457627118644057,1
0.7577598769401542,0.6052780130806789,0.5330309686195496,0.3936719645082717,0.07897092971132794,0.7457627118644066,1
0.8665750317299282,0.6182220273437924,0.4344815173106148,0.46559342696097294,0.0672010340219095,0.7457627118644039,1
0.8006899770616742,0.6200334082990748,0.4375752924324418,0.7816099382960318,0.05467206793101256,0.7457627118644039,1
0.8598323129564505,0.5916533169987097,0.44773301403717136,0.5053683940485768,0.051634895745821835,0.745762711864403,1
0.7977375167355043,0.5775043993080579,0.5027406285560948,0.39693412571116254,0.05505175156163092,0.7457627118644057,1
0.813693881934172,0.6039756798317077,0.372396156857909,0.5665124713700762,0.060746709161151685,0.7406779661016936,1
0.8056980362905304,0.5851405248552958,0.2896848518539294,0.5902177378888778,0.06871976854438386,0.7406779661016953,1
0.9038915824566682,0.5592526808555598,0.20695053007871345,0.5364425615219257,0.07479440977452315,0.7406779661016945,1
0.9225957869473436,0.5622491202916098,0.4454278391277874,0.3916422650829061,0.0789709297113276,0.7406779661016953,1
0.3233332910091066,0.5565060603676302,0.8086018853026221,0.5731130439654546,0.08238778552713696,0.7406779661016918,1
0.3096584032781229,0.5469469805415774,0.8895520511007535,0.32077060516237776,0.08504557094146745,0.7406779661016936,1
0.4020476664829499,0.5740387440168508,0.8762456051766263,0.5660811126493227,0.08580493820270438,0.7406779661016918,1
0.4264280350314154,0.5583317837410904,0.8782259802661476,0.47841659970751416,0.08618462183332307,0.7406779661016936,1
0.4084848544355966,0.5797771204307264,0.8658103926878933,0.4837836245559633,0.0880827431266574,0.7406779661016936,1
0.44780211555703037,0.5623157030716607,0.8604850432832436,0.5974048934851817,0.08922179401851385,0.7406779661016953,1
0.44154385674284213,0.5706480857138467,0.8643525567912509,0.7252379975349312,0.08998116127975056,0.7406779661016945,1
0.4608141892928992,0.561944229389131,0.8540310192695203,0.6434164512085194,0.0899811612797509,0.7406779661016945,1
0.4545883936716044,0.5642861380219486,0.8581027187186865,0.5112052362907982,0.09074052854098766,0.7457627118644057,1
0.4681553692012894,0.5641036113638197,0.8533808522704422,0.5387222247104007,0.091879579432844,0.7457627118644066,1
0.46102352178496225,0.5678682765998472,0.8567490694750884,0.4869215049878801,0.09112021217160629,0.7457627118644057,1
0.4674885048657927,0.5650092143520564,0.8530192727382087,0.4834506526323743,0.09263894669408071,0.7457627118644057,1
0.4607621709183518,0.5668407416937418,0.8553132950594498,0.5250612756470954,0.09263894669408093,0.7491525423728813,1
0.4685176219659165,0.5646027500651994,0.8542390984529019,0.5263656359157123,0.09263894669408082,0.7491525423728813,1
0.46400644965166127,0.5665900603757156,0.8559368219536868,0.5236278278153941,0.09263894669408076,0.7491525423728804,1
0.4679780905624487,0.5634896602132085,0.8539929417843407,0.5389038440400672,0.09301863032469979,0.7491525423728831,1
0.46932945305907864,0.5679130937620033,0.85325780942513,0.5363652375064284,0.09263894669408093,0.7559322033898317,1
0.4745141834732252,0.5643353083304724,0.8501797546867225,0.5151830770219219,0.09339801709556031,0.7559322033898317,1
0.4715958510192582,0.5659603201931237,0.8521704173091257,0.5219933408685725,0.09301863032469945,0.7559322033898308,1
0.4756236943880512,0.5650805411821083,0.8456299127995611,0.5458004881504936,0.09339801709555992,0.7559322033898317,1
0.47092556704843525,0.5672598587219544,0.8489124030881128,0.5532629941433006,0.0930186303246994,0.7593220338983029,1
0.47527183629387854,0.5653414251613051,0.8469905337578778,0.5128051046942884,0.09301863032469967,0.7593220338983047,1
0.47103750205672107,0.5671257622647305,0.8518324597962036,0.5136080681351923,0.09339801709555964,0.7593220338983029,1
0.47536105498173675,0.5654434772284187,0.8490440844951384,0.5379451023143769,0.09339801709556009,0.7593220338983047,1
0.4722776476305084,0.5670414170495433,0.8509586416958513,0.5176616834562232,0.09301863032469945,0.7661016949152506,1
0.47556429894121227,0.5655136869727595,0.8481554593439901,0.5148157222976733,0.09339801709556014,0.7661016949152524,1
0.47212468357920484,0.5669868506993063,0.8504494583092403,0.541435030208177,0.09263894669408082,0.7661016949152506,1
0.47557161837267786,0.5655422940506181,0.8491422181285988,0.5437049951241628,0.09263894669408093,0.7661016949152524,1
0.47692260525274527,0.5670309857283345,0.8480336302278442,0.5206228803978022,0.09263894669408049,0.7661016949152533,1
0.47876197003194,0.5644583423310666,0.8470841129580163,0.5279776989768471,0.09339801709555998,0.766101694915255,1
0.4758464207110307,0.565523726456142,0.8471400497202162,0.5412319855616585,0.08998116127975023,0.766101694915255,1
0.47513176665470613,0.5663211557934571,0.8466180651018667,0.5347314095316124,0.09187957943284383,0.7661016949152533,1
0.4770853687303461,0.5654215862994296,0.8483572521272087,0.5224977297148371,0.09074052854098766,0.7728813559322036,1
0.47891443763120617,0.566067301234968,0.846052714793774,0.5324778773655131,0.09263894669408082,0.7728813559322045,1
0.48178174113623723,0.5641065777753944,0.847553024706566,0.538907162733343,0.09149989580222481,0.7728813559322036,1
0.48388201631720923,0.562255851094317,0.8461341355881746,0.5305457508939403,0.09187957943284372,0.7728813559322036,1
0.4804984295568534,0.5668628884436747,0.8475524832655147,0.5210484627481585,0.09149989580222509,0.7762711864406775,1
0.4842658038471687,0.5646774624213311,0.84606264893058,0.5298964331484887,0.09263894669408082,0.7762711864406784,1
0.4823985446525091,0.5664578248971758,0.8479038120014414,0.5359574260354623,0.09112021217160629,0.7762711864406775,1
0.4825182731742228,0.5641646468018531,0.8471005172162418,0.5279181466834799,0.09187957943284383,0.7762711864406802,1
0.47831685900374854,0.5659044580945718,0.8471633395706031,0.5228434056125896,0.09187957943284322,0.7762711864406802,1
0.4812931044973092,0.5657790621823005,0.8464255127416616,0.5346366390625789,0.09263894669408126,0.7762711864406802,1
0.47970529487815855,0.5668878033262313,0.8472741391780116,0.5397399583561284,0.09149989580222492,0.7762711864406784,1
0.47948373675066863,0.5643440968864826,0.8463988345001934,0.5277653763494646,0.09036084491036958,0.776271186440681,1
0.4765477621537074,0.5659521941501774,0.847230065284756,0.5222366415543769,0.09112021217160629,0.7728813559321983,1
0.4805174895629974,0.5631640954116495,0.847125326027401,0.5363404051295076,0.09074052854098794,0.7728813559322001,1
0.47883008800646204,0.5654485309778894,0.8481176872614409,0.5374155239678912,0.0907405285409876,0.7728813559321983,1
0.4841811258293279,0.5640787892126302,0.8470563948121799,0.5229455360444467,0.09112021217160668,0.7728813559322001,1
0.48137319147197916,0.5658928887796226,0.8471677239326861,0.5208927832799223,0.09074052854098766,0.7830508474576261,1
0.484305629562963,0.565961173745725,0.8464346539455068,0.537530479260665,0.0903608449103693,0.7830508474576279,1
0.4826718367912628,0.5666603500593146,0.8472631669691639,0.5365697643421229,0.09074052854098777,0.7830508474576261,1
0.48429727100134623,0.5651617350752184,0.8463990306376445,0.5221090120949127,0.08998116127975112,0.7830508474576261,1
0.4826772145237213,0.5657051137801035,0.8472804301153002,0.5233037286415336,0.09074052854098782,0.7830508474576279,1
0.48429447795646513,0.5635038815069515,0.8463895220876089,0.53943135783618,0.09074052854098832,0.7830508474576288,1
0.48267790315449804,0.5651588003101077,0.8472860896275041,0.5322408578721467,0.08998116127975078,0.7830508474576288,1
0.4842957133116815,0.5653001440202183,0.8463859549833088,0.5239882000276352,0.09112021217160646,0.7830508474576288,1
0.482674645422971,0.5650953911461332,0.8472884566233428,0.5327213439937728,0.09149989580222476,0.7864406779661,1
0.4843013715102864,0.564887775768315,0.8463843073955247,0.5407786119996645,0.09149989580222526,0.7864406779661026,1
0.4826658444636995,0.5661165731054818,0.8472896311110444,0.5234314729131464,0.09074052854098782,0.7864406779661017,1
0.48431465054032774,0.5652324824919313,0.8463835351939405,0.5223017074243482,0.09036084491036936,0.7864406779661026,1
0.48264562310079134,0.5671518114161143,0.8472898743443538,0.5384954695870889,0.08884211038789505,0.7864406779661,1
0.48434673155671204,0.5649769584554831,0.8463842802244039,0.537914875385871,0.08960147764913204,0.7864406779661,1
0.4825905609199439,0.5662335279632096,0.8472869462173426,0.5183305808939715,0.09074052854098766,0.7864406779661,1
0.4844553859901827,0.5651104723320188,0.8463925542609483,0.5275046427691292,0.08922179401851368,0.7864406779661017,1
0.48230866615862483,0.566206948996789,0.8472638025934113,0.542177800986322,0.08922179401851335,0.7932203389830503,1
0.4861166735784038,0.5661153052898371,0.8464639149396836,0.534423322399529,0.08770305949603954,0.7932203389830503,1
0.4922167662719119,0.5664646325459419,0.843749184972961,0.5188836766934463,0.08884211038789522,0.7932203389830494,1
0.49440462260892293,0.5660295301414578,0.8422979428014767,0.5265509046392718,0.08846242675727636,0.7932203389830503,1
0.49298698526230106,0.566531316673893,0.8451214649626928,0.5427557712203335,0.08884211038789494,0.7932203389830477,1
0.4901409346274665,0.5657810839267503,0.8467752459251798,0.5341022870552437,0.08618462183332307,0.7932203389830503,1
0.48967943361263705,0.5650232964536215,0.847067276066287,0.5244285552686944,0.08846242675727603,0.7932203389830494,1
0.49124461241914735,0.5643995108663246,0.8465660050942163,0.5231196628066513,0.08580493820270449,0.7932203389830503,1
0.4844938314502341,0.5666718150306929,0.8470601269396112,0.5417339245728974,0.0884624267572762,0.7949152542372859,1
0.4881492483582216,0.5660272444335692,0.8454245327758163,0.5346888414219538,0.08580493820270454,0.7949152542372877,1
0.4855591394908845,0.5661603434044372,0.8473459343515144,0.5240403906755833,0.08770305949603904,0.7949152542372859,1
0.485054783227941,0.5650579927786532,0.8463789207475376,0.5189163223147277,0.08504557094146711,0.7949152542372877,1
0.4837239441353166,0.5664796561134986,0.8472701430200542,0.5430329610948769,0.08656400860418337,0.7949152542372877,1
0.48824483819928044,0.5625333476912092,0.8464298684764873,0.5332928700577424,0.08542525457208569,0.7949152542372895,1
0.486455808340909,0.5658596397382482,0.847196743969924,0.5295017687215768,0.0873233758654203,0.7949152542372886,1
0.49284669242530615,0.5661931365087087,0.8465936768773852,0.5150621056718947,0.08504557094146717,0.7949152542372886,1
0.4933152466122929,0.5664318059931837,0.8463937543984295,0.5344536031071078,0.08694369223480194,0.7949152542372877,1
0.4945884720258283,0.5660457504626003,0.8448364701169668,0.5385613773553924,0.08656400860418342,0.7949152542372895,1
0.49298384037245396,0.5665135096137165,0.846638275483002,0.5313971566373866,0.08694369223480206,0.7949152542372886,1
0.4941841157491777,0.5659604598220125,0.8439368166317871,0.5193241969292149,0.08618462183332251,0.7949152542372886,1
0.486342315694254,0.5666774734836932,0.8476239297935622,0.5219493225620315,0.08656400860418342,0.7949152542372877,1
0.4924948516739567,0.5651652206504346,0.8459565790574235,0.5405642760551456,0.086943692234802,0.7949152542372877,1
0.49071957204586636,0.5648778892878097,0.8477678062581526,0.5364709606926855,0.0861846218333224,0.7949152542372877,1
0.491995179837239,0.5659517680258968,0.8458335047750373,0.5284190909840756,0.08504557094146711,0.7949152542372886,1
0.48653092041944096,0.5647197156191478,0.8479485318632376,0.5183813888042406,0.08504557094146689,0.8033898305084737,1
0.491722859372415,0.565419565394263,0.8445105837360116,0.5386907920869357,0.08542525457208558,0.8033898305084737,1
0.48709827321436006,0.5632739954782171,0.848256099991401,0.5354785506172681,0.08504557094146728,0.8033898305084719,1
0.4895681418727029,0.5592127262759576,0.8416028926378767,0.52983481070066,0.08504557094146717,0.8033898305084746,1
0.48897165445388624,0.5570044415433281,0.8484395232755193,0.5159322069848925,0.08466588731084854,0.8033898305084701,1
0.5139535438215045,0.5799675495620047,0.8470724031556585,0.5327680352104861,0.08504557094146728,0.8033898305084737,1
0.5331405102081891,0.5605814349276408,0.8022993917048489,0.5396089928689801,0.08466588731084831,0.8033898305084737,1
0.4855250400583387,0.55902312505585,0.8382444017912045,0.5299164138858911,0.08504557094146734,0.8033898305084737,1
0.47724177910334914,0.5494114863117896,0.8631167024157709,0.5195620955591741,0.08466588731084826,0.8033898305084737,1
0.450344295070925,0.5425318691171215,0.8658109176227209,0.5292687287234201,0.08314715278837434,0.8033898305084746,1
0.4654511686579072,0.531460157376531,0.8606874329942431,0.5284358264355709,0.08352683641899275,0.8033898305084719,1
0.4661766608458236,0.5328237990861547,0.8613874426933135,0.555891096702817,0.08352683641899292,0.8033898305084746,1
0.45998065129727084,0.5321881525286759,0.8620789620638959,0.5373267905505387,0.08390652004961133,0.8101694915254214,1
0.46298990939379253,0.5315297932434869,0.8636836422916221,0.5287905118201152,0.08390652004961138,0.8101694915254223,1
0.45537048347000786,0.5320636654836153,0.8637784513367415,0.5602705238503927,0.0823877855271368,0.8101694915254223,1
0.45485693054892234,0.5326245930174911,0.8635281279958846,0.5197106990059426,0.08352683641899275,0.8101694915254223,1
0.45566022880744106,0.5312129767705125,0.863849314068273,0.5244578355714253,0.08276746915775549,0.806779661016944,1
0.45649720592630577,0.5323864410201071,0.8634810635231227,0.5215587969653009,0.08276746915775549,0.8067796610169449,1
0.4540650496413623,0.5319850095860909,0.8638858539582445,0.514505028966776,0.08314715278837406,0.806779661016944,1
0.45671684675390045,0.5314311303275624,0.8634504818020072,0.5290706022570486,0.08276746915775554,0.806779661016944,1
0.45530657099635174,0.5327027069800572,0.8639125419211287,0.5029892887056979,0.08200810189651833,0.8067796610169484,1
0.4586269151496189,0.532121813323485,0.8634265546547002,0.532329164442942,0.08162841826589959,0.8067796610169484,1
0.4575992969002811,0.5325823341782083,0.8639344259715619,0.5430337981235392,0.07935061334194624,0.8067796610169484,1
0.4554356257668736,0.5293484111204063,0.8634062068978307,0.52276582566019,0.07973000011280698,0.8067796610169493,1
0.4536599806007293,0.5320277133597906,0.8639536275527204,0.5100749941738079,0.08086905100466238,0.8101694915254223,1
0.4543818360128711,0.52933457983385,0.8633878277827413,0.5442555164314041,0.08162841826589975,0.8101694915254223,1
0.4527946374314965,0.5311879271219476,0.8639714730674903,0.5480822193249076,0.0801096837434255,0.8101694915254214,1
0.45509844847960534,0.5325536001361135,0.8633702375597294,0.5094240714109347,0.08086905100466266,0.8101694915254223,1
0.4509301821251009,0.5300345466744623,0.863989099661247,0.5207956520269564,0.07973000011280676,0.81694915254237,1
0.454601998010986,0.531186545584946,0.8633522393034336,0.5529459435713711,0.08048936737404419,0.8169491525423735,1
0.4538529996882362,0.5327196654856956,0.8640078959785473,0.5312349272925551,0.07897092971132744,0.8169491525423727,1
0.4550344740874145,0.5320384020454789,0.8633320386592874,0.5072831914755089,0.07897092971132788,0.8169491525423735,1
0.4579269164954342,0.5297235219994895,0.8640304841395956,0.5405879911050194,0.0778318788194717,0.8101694915254232,1
0.4606463300272303,0.5318675773170727,0.8633051580165156,0.5476367845856753,0.07973000011280681,0.810169491525425,1
0.4621675823694328,0.5327148057973452,0.8640666350400567,0.5100600377292311,0.07821156245009056,0.810169491525425,1
0.46428684682709553,0.5305139639130348,0.8632336192627851,0.5192403054454642,0.07821156245009056,0.810169491525425,1
0.4637328567005797,0.5308744733143759,0.8612156022121196,0.5599044133022624,0.07593346066637899,0.8135593220338988,1
0.4642134513934989,0.5298495105828354,0.8625480056649284,0.5482448577888379,0.07821156245009084,0.8135593220338997,1
0.4645201998561614,0.5298714895279621,0.8623350281696767,0.5319846329094022,0.07745219518885324,0.8135593220338988,1
0.4645087659106458,0.532271967647284,0.8613210513283047,0.5264274163349433,0.07821156245009056,0.8135593220338988,1
0.4662536369238882,0.5297009371392651,0.8628363661206444,0.5695376251157298,0.07821156245009056,0.8101694915254232,1
0.4682229803461094,0.5283610674898597,0.8635091158272018,0.568171756575455,0.07821156245009078,0.810169491525425,1
0.4632414085247643,0.5288368921621347,0.8638496681019138,0.4772500158243749,0.07745219518885352,0.8101694915254232,1
0.4673389169746148,0.5311949584049264,0.8623101554530215,0.5068690985666263,0.07669282792761603,0.8101694915254232,1
0.4651145841970273,0.529820257280152,0.8638637760093085,0.5458345360532926,0.0782115624500905,0.8101694915254258,1
0.46852449991389417,0.5306793366024851,0.8609035189617742,0.5206827619893721,0.07821156245009067,0.8101694915254267,1
0.4668756980573166,0.5277664706258002,0.863676427613755,0.501219955710464,0.07745219518885324,0.8101694915254258,1
0.47277670950544526,0.5278187764337883,0.8599482978096539,0.5433138479067562,0.07669282792761659,0.8101694915254267,1
0.47076623244245913,0.5286467251490349,0.8605662104168394,0.5362882861837648,0.07669282792761614,0.8135593220338935,1
0.4946986051329704,0.5288098543039665,0.8536334587583155,0.5288128327212703,0.07669282792761631,0.8135593220338926,1
0.4929895535797815,0.5319325242273731,0.8523286424706006,0.5167946393597984,0.07821156245009073,0.8135593220338926,1
0.48548848489866825,0.5278568191774989,0.8543589545051382,0.5649103090143643,0.07859124608070936,0.8135593220338935,1
0.48263217568915034,0.5295944980684946,0.8552279600709618,0.5255641895009306,0.07783187881947182,0.8135593220338935,1
0.4850475198630915,0.5297370850515876,0.8539179688487077,0.5053485924923495,0.07745219518885352,0.8135593220338935,1
0.4843586742371978,0.5278351733239152,0.8556241950976855,0.5101011746637945,0.07631314429699756,0.8135593220338935,1
0.4835316795949123,0.5259662864900484,0.854771889879987,0.5773975999271677,0.07745219518885346,0.8135593220338935,1
0.48343634211422315,0.5292298434147533,0.8560649333836491,0.5452084997757108,0.0766928279276162,0.8101694915254223,1
0.4847953976406093,0.528921522388298,0.8540421593799252,0.49807450673166664,0.07669282792761653,0.8101694915254232,1
0.48330817681986865,0.5298589484428163,0.8547800070999294,0.5104372677261428,0.07707251155823477,0.8101694915254232,1
0.48384323857668604,0.5295703705445369,0.8554220319046759,0.5521710243999729,0.07745219518885352,0.8101694915254232,1
0.48303953513089226,0.5289884121056181,0.8551089944089871,0.5275061149809754,0.07707251155823494,0.810169491525425,1
0.4840151989911509,0.5301608738312908,0.8557099808985015,0.49796311854304504,0.07707251155823516,0.8101694915254267,1
0.48576425753536917,0.5287979052539569,0.8558560556992976,0.5315609356442026,0.07745219518885335,0.810169491525425,1
0.49295770468003935,0.5302018831000809,0.8529678034315451,0.5641414074220321,0.07669282792761631,0.810169491525425,1
0.4931947905839753,0.5287091210964876,0.853651335887385,0.5194780566678806,0.07745219518885307,0.8067796610169493,1
0.49247889953506463,0.5239491987781535,0.8525064167523639,0.5122659032594935,0.0759334606663791,0.8067796610169511,1
0.501153308110948,0.5237694479050143,0.8528196311912113,0.5373967246563304,0.07745219518885346,0.8067796610169511,1
0.491272249841688,0.5240010555846767,0.8498583086997296,0.6062923061757891,0.07631314429699762,0.8067796610169511,1
0.49411684122548827,0.5233303620174571,0.8521789809472172,0.507474903931486,0.07669282792761598,0.8067796610169458,1
0.49989963305420354,0.5230975183521646,0.8518705080200433,0.46809811212748526,0.07631314429699751,0.8067796610169458,1
0.4966509166067548,0.5226409869133636,0.8503036964854125,0.5767633699494803,0.07669282792761586,0.8067796610169449,1
0.498609822162892,0.5231238766728536,0.8513973211200361,0.5516959402053837,0.07593346066637921,0.8067796610169458,1
0.495971136180075,0.5242584598975976,0.8509282284350529,0.4994052214085669,0.07669282792761631,0.8067796610169484,1
0.4983389485782894,0.5236151954645448,0.8503573067578654,0.5188967680963265,0.07669282792761636,0.8067796610169484,1
0.4958803240591336,0.5230743748728564,0.8520693286840002,0.5633569449546528,0.07631314429699745,0.8067796610169475,1
0.4976836872376389,0.523683109093126,0.8499417643829806,0.5283684752380928,0.07555377703576036,0.8067796610169484,1
0.4959326246725618,0.5240849292287055,0.8511555798806634,0.5114973026066101,0.07555377703576047,0.8033898305084719,1
0.4991728242862181,0.5237248928654483,0.849898377982501,0.533996866540423,0.0759334606663791,0.8033898305084746,1
0.5017857523166195,0.5240426598442676,0.8501629380660238,0.5510061346974853,0.0740350425132861,0.8033898305084746,1
0.5041405940735253,0.5237755565599909,0.8478513249347415,0.514195486730091,0.07517409340514195,0.8033898305084746,1
0.5029130026737179,0.5239685749214098,0.8479281224584403,0.517909764819873,0.07517409340514178,0.799999999999998,1
0.5042089573385813,0.5239201857370519,0.845673419605433,0.5425981220714583,0.07517409340514211,0.7999999999999998,1
0.5032388767385092,0.5233880401600917,0.8498122373764704,0.5365754238510533,0.07517409340514217,0.799999999999998,1
0.505700225593974,0.5217513311926045,0.8498421755856707,0.5134715488045182,0.07479440977452348,0.7999999999999998,1
0.5147156348160834,0.517734563004544,0.8451539530139871,0.5167361444462248,0.07479440977452304,0.8033898305084719,1
0.5259697354294987,0.5149780327988884,0.8461262615762541,0.5456346981356176,0.07441472614390496,0.8033898305084746,1
0.5165035387468628,0.5158084445969022,0.843349009834318,0.5493187802818243,0.07403504251328588,0.8033898305084746,1
0.5217880307539087,0.5150612992252742,0.8428826212361633,0.5261603519154336,0.07289599162143043,0.8033898305084746,1
0.5212981534731117,0.5157740818014643,0.8432164367932495,0.5124779975265342,0.0740350425132861,0.799999999999998,1
0.525350964358869,0.5150601667703303,0.8433898880607608,0.5244774867407863,0.07175723758933308,0.8000000000000007,1
0.523648742022532,0.5158142578588208,0.8441278488035544,0.5473788888752165,0.07365535888266725,0.7999999999999998,1
0.5236502030645024,0.5149361879178845,0.8411778553961552,0.5198451019691344,0.07327567525204884,0.799999999999998,1
0.5256192428037991,0.5166926018083503,0.8410334854623687,0.5159868032310482,0.07327567525204934,0.7949152542372877,1
0.5247918566397246,0.515351208256066,0.8384935287283584,0.5474408448822331,0.07365535888266775,0.7949152542372877,1
0.5247229137515862,0.5163941407094349,0.8398347539613877,0.5450379045929498,0.07327567525204878,0.7949152542372877,1
0.5263396808505608,0.5165731718808045,0.8374284769605107,0.5209436963419186,0.07327567525204928,0.7949152542372886,1
0.524593601867849,0.517437101821904,0.8399566186773714,0.5066471652634206,0.07213692121995122,0.7949152542372886,1
0.5251291901474537,0.5156674536515472,0.839571650375111,0.5387767168215573,0.07251660485057007,0.7949152542372886,1
0.524533014662943,0.5154377919661625,0.840201288085902,0.5418672825014905,0.0709978703280956,0.7949152542372877,1
0.5251802441025452,0.5153403776782043,0.8398092359230014,0.5283441980250785,0.07213692121995105,0.7949152542372895,1
0.524484524544502,0.515536551154099,0.8383688325968351,0.5241199952040997,0.0713775539587139,0.7932203389830503,1
0.5252316650084847,0.5152816573107575,0.8382868261005758,0.5428136115872793,0.0713775539587145,0.7932203389830521,1
0.5244241800133388,0.5155830791725771,0.8401899902596222,0.5440987744838705,0.06834008491376517,0.7932203389830503,1
0.5253095277851821,0.5152375882354543,0.8403880598419637,0.5162655283384309,0.07023850306685855,0.7932203389830503,1
0.5243150038278158,0.5156275151819317,0.8401573661793144,0.511539714958308,0.07023850306685833,0.7864406779660982,1
0.5254393906213172,0.515244036988819,0.840115209069801,0.5453198516208482,0.07023850306685855,0.7864406779660991,1
0.5202818126236909,0.5213672808278415,0.841859462812206,0.5442130838037441,0.07023850306685839,0.7864406779660982,1
0.521312755025084,0.5172272617805637,0.8412301671009812,0.5127869298725937,0.07023850306685833,0.7864406779660991,1
0.5242702825316143,0.518930752441318,0.8454330912490761,0.5110587087673506,0.06985881943623931,0.7864406779661017,1
0.5239924269261821,0.5182842844752209,0.8425777770703299,0.541510437019995,0.06947913580562112,0.7864406779661026,1
0.5250637254374312,0.5176329982901041,0.8421193211658786,0.539619049553321,0.06947913580562068,0.7864406779661026,1
0.5247791106757289,0.5156782211184612,0.8384018581671201,0.520867365823234,0.06947913580562146,0.7864406779661026,1
0.5248366361901341,0.5183708811098964,0.839551871437843,0.5249156806895682,0.06909945217500249,0.7864406779660991,1
0.5248952037347207,0.5185596322089331,0.8385376631074494,0.5573566757481463,0.0698588194362397,0.7864406779661,1
0.5247669156510406,0.5154278183101976,0.8383673463835473,0.534000715458875,0.06947913580562101,0.7864406779661,1
0.5249391051656705,0.5203796391182511,0.839165552362424,0.506156989164863,0.06909945217500249,0.7864406779661,1
0.524740893703785,0.5178095093944513,0.8414928193235065,0.5195878345067554,0.0690994521750026,0.7830508474576279,1
0.5249492749252087,0.517230711799235,0.8402085567373597,0.5577246046512399,0.06947913580562112,0.7830508474576288,1
0.5234574808826697,0.5175564824877936,0.8415767798974466,0.538364955149319,0.06909945217500243,0.7830508474576279,1
0.5249067941345753,0.5164112062132405,0.8399574221186263,0.5166566025360403,0.06909945217500266,0.7830508474576288,1
0.5248831156354259,0.5175741916620259,0.8424027505242606,0.5341672571123199,0.06758071765252768,0.7830508474576288,1
0.5240863046351554,0.5169612026904489,0.8403864494373015,0.5475270021368414,0.06871976854438419,0.7830508474576279,1
0.5239594303659265,0.5160403028733199,0.840878150039727,0.5166386202970857,0.06758071765252796,0.7830508474576261,1
0.5253859545107704,0.5167599433365494,0.8398777113725164,0.5100140402908967,0.06834008491376534,0.7830508474576288,1
0.5243405955817964,0.5165693406245224,0.8437280889259366,0.5452284267810321,0.06758071765252785,0.7762711864406775,1
0.5254286762392596,0.5189721628216862,0.8426441126941642,0.5428734729977029,0.06871976854438402,0.7762711864406775,1
0.5235426050873446,0.5174351585184042,0.8395854614234509,0.5090143790141235,0.06758071765252785,0.7762711864406775,1
0.5245131877580668,0.5161067253435836,0.837792268038807,0.5245951259577061,0.06834008491376556,0.7762711864406775,1
0.5248091436169285,0.5147506292852798,0.8390625461498877,0.5543400155678024,0.06834008491376511,0.7762711864406802,1
0.5249639877627059,0.5170826621322069,0.8376261075824084,0.5325082972990495,0.06871976854438402,0.7762711864406802,1
0.5246886788136743,0.5167783570953807,0.840180279178891,0.5078107108726804,0.06720103402190955,0.7762711864406784,1
0.5250205626682,0.5165885486238952,0.8391115051767368,0.5341305933547443,0.0668213503912912,0.7762711864406802,1
0.5246557260773614,0.5169825420374629,0.8389501690880283,0.5511164208840221,0.06720103402190966,0.7677966101694924,1
0.5250422363404884,0.5178950500715294,0.8391500628836599,0.5229366563026638,0.06720103402190994,0.7677966101694951,1
0.524640284603844,0.5170733039387687,0.8394730958242773,0.51075060427257,0.06682135039129097,0.7677966101694942,1
0.5250538826181648,0.517521003956999,0.840231429309064,0.5422241176029934,0.06720103402190977,0.7677966101694942,1
0.5246311184672323,0.5153826621872024,0.8431125569906368,0.5475743953929375,0.06644166676067229,0.7677966101694906,1
0.5250613378569307,0.5160724266850761,0.8416492134903908,0.5150840414773639,0.06644166676067251,0.7677966101694906,1
0.5246248954704218,0.5183724084188268,0.8398108746431419,0.5200906765433871,0.06606227998981193,0.7677966101694906,1
0.5250666414474838,0.5149270497894711,0.8402854483092645,0.5492183689257472,0.06606227998981193,0.7677966101694906,1
0.5246202984732077,0.5169048997813578,0.8400844507492168,0.5386797711200596,0.06568259635919335,0.7677966101694906,1
0.5250706815037786,0.5174009895523681,0.8415040947383311,0.5059520227792967,0.06682135039129086,0.7677966101694924,1
0.524616707166232,0.5183892327399583,0.8417021449422615,0.5269129149312692,0.06492322909795586,0.7677966101694924,1
0.5250739041043102,0.5166960823954335,0.8397530800962564,0.5547227513678246,0.06568259635919346,0.7677966101694942,1
0.524613792922307,0.5152850130657605,0.8407915592341197,0.5378332427815293,0.06530291272857455,0.7677966101694889,1
0.5250765561796447,0.5177622722778086,0.8388202464564667,0.5116624130400351,0.0660622799898122,0.7677966101694889,1
0.5246113672811706,0.5162425382239757,0.8384767629514849,0.5288817643424034,0.06492322909795636,0.767796610169488,1
0.5250787832030457,0.5163345559697653,0.838187263235603,0.5489411929357598,0.06568259635919346,0.7677966101694906,1
0.5246093172178903,0.5172894690892536,0.840185732402505,0.5296957877026289,0.06492322909795625,0.7677966101694871,1
0.5250806730344242,0.516149265159787,0.8400804162123052,0.5019129109929992,0.06530291272857489,0.7677966101694889,1
0.5246075749627338,0.5164270890961353,0.8399753844546893,0.5318612671989006,0.06530291272857455,0.767796610169488,1
0.5250822768816306,0.5150101461438793,0.8410686000490302,0.5530131550332308,0.06530291272857489,0.7677966101694906,1
0.5246061034646419,0.5158689010611165,0.8411928796284518,0.5362696960068585,0.06454354546733757,0.7627118644067767,1
0.525083619190829,0.5171107431806282,0.8414234597628315,0.5091635357142419,0.06416386183671904,0.7627118644067785,1
0.5246048900167184,0.5169818810139569,0.8411082659940965,0.5313776925845589,0.06378417820610008,0.7627118644067767,1
0.5250847012021731,0.5148412157143838,0.8380767331227873,0.547475131640031,0.06378417820610047,0.7627118644067785,1
0.5246039451306762,0.5158392808829249,0.8429563671281796,0.5303502633351669,0.06378417820610052,0.766101694915255,1
0.5250854997937474,0.5150715829449466,0.8391084561557891,0.5048772203693719,0.0649232290979562,0.7661016949152559,1
0.5246033060376586,0.5157337557026207,0.8400939258268996,0.5342105882377985,0.06378417820610013,0.7661016949152559,1
0.5250859613575354,0.5151319432924619,0.8375494398135114,0.5508809670550595,0.06416386183671893,0.7661016949152559,1
0.5246030459650306,0.5156976945919545,0.8398289468928832,0.530813684199951,0.0637841782061003,0.7661016949152559,1
0.5250859885141217,0.5151496338851613,0.8383521245343727,0.5065284584625505,0.06530291272857472,0.7661016949152586,1
0.5246032927429576,0.5157010183131755,0.838768776690981,0.5323374717604851,0.06378417820610036,0.7661016949152568,1
0.525085414197479,0.5151062163851174,0.8380126685943193,0.552044522000422,0.06378417820610002,0.7661016949152568,1
0.5246042650504836,0.5159049741423163,0.8388288863903255,0.5297382885597473,0.06226544368362605,0.7627118644067821,1
0.5250839504155064,0.5162229476907684,0.8380346136270821,0.5055829474179453,0.06454354546733751,0.7627118644067821,1
0.5246063459935274,0.515367795121479,0.8386860389716804,0.5256723069731785,0.0630248109448627,0.7627118644067821,1
0.5250810804550212,0.5154085727382912,0.8392168689516928,0.5532571399062999,0.06340449457548183,0.762711864406783,1
0.5246102449372532,0.5154415781148384,0.8418604788192785,0.5347056405519859,0.0626451273142444,0.759322033898302,1
0.5250758086960895,0.515426397887749,0.8384770756722522,0.5114781873750569,0.06378417820610019,0.759322033898302,1
0.524617398111163,0.5153289704546152,0.8420316915852232,0.5286175476702996,0.06264512731424485,0.7593220338983011,1
0.52506599130027,0.5161128054255317,0.8387937431984288,0.5503845295418401,0.06302481094486315,0.7593220338983029,1
0.5246311469340236,0.5160630335060991,0.8411822100218597,0.5296603781665616,0.06340449457548178,0.755932203389829,1
0.5250461199408654,0.5150828435440074,0.8405763280467424,0.5066015882015752,0.06340449457548189,0.7559322033898273,1
0.5246612846864396,0.5156911455830829,0.8403408994553646,0.5288300998839844,0.06226544368362555,0.7559322033898273,1
0.5249967961128033,0.5151789579412884,0.8382438919145676,0.5533306731637139,0.06188576005300764,0.7559322033898273,1
0.5247533901066208,0.5156537210200356,0.8396975107956964,0.5306720150660611,0.061885760053007194,0.759322033898302,1
0.5247689159899381,0.5151865720983894,0.8373614402808865,0.5065902116044044,0.06302481094486326,0.7593220338983029,1
0.5269679576270806,0.5156777539423987,0.8394240010939984,0.5304305331421019,0.061885760053007194,0.759322033898302,1
0.5257147854111037,0.515089094680512,0.8374025987873877,0.5570991970031773,0.061506076422388894,0.7593220338983029,1
0.5242890024433852,0.5163321280189513,0.8394944522796818,0.5236163583248985,0.061126392791769985,0.755932203389829,1
0.5253134340073087,0.5158821713779225,0.8371587706529091,0.5068462299367418,0.06226544368362605,0.7559322033898308,1
0.5244149173746666,0.5151692312068369,0.8407458458979286,0.5331527568004414,0.0592279746386771,0.755932203389829,1
0.5252525503326584,0.5162068339423658,0.8402378087038957,0.5612269975669466,0.06150607642238873,0.755932203389829,1
0.524449840994681,0.5159961755111252,0.8425752079082854,0.5216665163278142,0.06074670916115163,0.7525423728813498,1
0.5252300889890364,0.515135903696168,0.8376913760984475,0.5139759500412306,0.061885760053007305,0.7525423728813507,1
0.5244666872911414,0.5156452765571724,0.8400226294998059,0.5419036790541006,0.059987341899914365,0.7525423728813498,1
0.525213088244607,0.5152221676858562,0.8396636691327827,0.551632132268446,0.061126392791770096,0.7525423728813498,1
0.5244933332661241,0.5156085530095328,0.8397700559625789,0.5077158166790103,0.06036702553053305,0.7525423728813516,1
0.5251485434968163,0.5152407967248758,0.8397292606513626,0.5148724710715089,0.061885760053007194,0.7525423728813534,1
0.524768456500508,0.5155987910809049,0.8390912922954983,0.5519979756301089,0.06074670916115152,0.7525423728813516,1
0.5296545713262286,0.5152452058592495,0.8389110847960161,0.5504042631899516,0.060746709161151685,0.7525423728813534,1
0.5267281950767166,0.515598287466743,0.8387223498663028,0.5047029989072923,0.06036702553053283,0.7491525423728795,1
0.5288922400336604,0.5152422690990283,0.8380153567432305,0.5183054098922909,0.061885760053007416,0.7491525423728795,1
0.5282721174261773,0.5156048576837635,0.8388147005192974,0.5518197918795411,0.061506076422388894,0.7491525423728778,1
0.5251764671559807,0.5152311813459572,0.8386925583089495,0.5405676646212344,0.061126392791769985,0.7491525423728795,1
0.5258265248788905,0.5156224392661068,0.8396131413452486,0.5055005317826954,0.06112639279177015,0.7491525423728778,1
0.5249059208302935,0.5152028321102683,0.838644057385177,0.530435267227244,0.06112639279177037,0.7491525423728813,1
0.5245496177069611,0.515672000191277,0.8389177936623742,0.5540663346948654,0.058848587867816576,0.7491525423728804,1
0.5257429229834647,0.5150984463907424,0.8378400556148649,0.5339813209700943,0.06074670916115152,0.7491525423728813,1
0.5274011718532281,0.5160506736011228,0.8390281888785797,0.4997628784352936,0.06074670916115135,0.7491525423728813,1
0.5255072663735758,0.5161214865383137,0.8377852407335791,0.5362578879846734,0.06112639279176993,0.7491525423728831,1
0.5256587246084814,0.5153252961797172,0.8390663607958606,0.5554118635563826,0.06074670916115163,0.7491525423728813,1
0.5276675469493333,0.515422249103013,0.837754397911664,0.5329417438603692,0.06074670916115152,0.7491525423728831,1
0.5292081987864751,0.5154595374874005,0.8390932563146145,0.49784420418925235,0.06036702553053294,0.7406779661016945,1
0.5279140337519406,0.5153620772474086,0.8377298975356686,0.5416420086151919,0.060367025530533164,0.7406779661016953,1
0.5291961133619386,0.5154943038316573,0.8391161950716598,0.5529766323927637,0.060367025530532664,0.7406779661016945,1
0.5283882391478956,0.5153391146471284,0.8377080180194335,0.5288947233733167,0.06036702553053305,0.7406779661016945,1
0.5258365108360307,0.515510841833521,0.8391373471345622,0.4969496551185256,0.05960765826929573,0.7457627118644066,1
0.5309220956971186,0.515326431271756,0.8376873562943108,0.533034078873487,0.06036702553053305,0.7457627118644075,1
0.5285396363917249,0.5155210577824744,0.8391577012634419,0.5523109280438474,0.05998734189991431,0.7457627118644075,1
0.5288687437752333,0.5153178663543421,0.837667157222602,0.5365782293649093,0.0599873418999142,0.7457627118644075,1
0.5272761697584849,0.5155284844835535,0.8391778845720173,0.5056728646337815,0.059987341899914365,0.7457627118644075,1
0.5257883126255609,0.5153112387468884,0.8376468489483146,0.5344286799586213,0.0596076582692959,0.7457627118644092,1
0.5252220069190983,0.5155345469150864,0.8391984761476361,0.549865674943021,0.059987341899914254,0.7457627118644075,1
0.5247787030556067,0.5153055742700897,0.837625776094779,0.533511214727997,0.059987341899914864,0.7457627118644101,1
0.5257937351270385,0.515539936773475,0.8392203028482812,0.5034995024889944,0.05998734189991431,0.7372881355932135,1
0.5258312387924091,0.5153003654669712,0.8376027867825184,0.5271196503871521,0.05960765826929584,0.7372881355932135,1
0.5266828784333191,0.5155450373673961,0.8392451179765553,0.5555008536699229,0.059607658269295954,0.7372881355932117,1
0.5261356215963932,0.515295314954735,0.8375749808187894,0.5358291402533558,0.0580892206065797,0.7372881355932144,1
0.5294611959526363,0.5155500852918035,0.8392781552042721,0.5088090151970475,0.059227974638677267,0.737288135593217,1
0.5274087400901812,0.515290229906618,0.8375318702624712,0.5187529232488564,0.05846890423719828,0.7372881355932179,1
0.5269391231401497,0.5155552414282718,0.8393437650430827,0.5555114581862766,0.059227974638677156,0.737288135593217,1
0.5252327218024185,0.5152849729805631,0.8374005525722976,0.5371221732649331,0.05846890423719811,0.7372881355932179,1
0.526846326629075,0.515560625684488,0.8398832588193734,0.5158414797229902,0.058848587867816854,0.7355932203389823,1
0.5267469113084384,0.515279437178681,0.8382725642045601,0.508618277414612,0.05846890423719822,0.7355932203389823,1
0.5261059979168108,0.5155663355678781,0.8392883544359171,0.5528663844243707,0.05884858786781674,0.7355932203389823,1
0.5258280593098008,0.5152735318492022,0.8395679266633013,0.5411516131870937,0.059227974638677267,0.7355932203389823,1
0.5245013762415036,0.5155724569455603,0.8413991187737633,0.520190445028289,0.0588485878678168,0.7372881355932206,1
0.5251362873644204,0.5152671742476983,0.8384023326649674,0.5016385317339603,0.05846890423719833,0.7372881355932233,1
0.5245020473999431,0.5155790708026452,0.8406566347005617,0.5535834173244928,0.058468904237198055,0.7372881355932233,1
0.5256417768955335,0.5152602840033798,0.837201897542099,0.5439819267503332,0.05846890423719822,0.7372881355932233,1
0.5260955867809163,0.5155862578815158,0.8395464863208421,0.5285255223118951,0.05846890423719783,0.7406779661016936,1
0.5274955503401175,0.5152527791307879,0.8373183831448852,0.49800588680134317,0.058848587867816854,0.7406779661016945,1
0.5271621281315866,0.5155941022020655,0.8395056788812164,0.5496598945804378,0.0588485878678168,0.7406779661016945,1
0.5292172751227192,0.5152445728373821,0.8373310993086762,0.5461361841870291,0.058089220606579534,0.7406779661016945,1
0.5297204627263273,0.5156026940363143,0.8395070925940624,0.5265644034627583,0.05884858786781641,0.7355932203389797,1
0.5293305469092573,0.5152355706781169,0.8373213667582131,0.4962224163316694,0.05808922060657942,0.7355932203389797,1
0.5312672620276816,0.5156121326981534,0.8395222686318397,0.5414360137394904,0.05846890423719783,0.7355932203389788,1
0.5247195838709717,0.5152256677582779,0.8373023302183382,0.5506912017766892,0.05770953697596107,0.7355932203389797,1
0.5262084646912367,0.5156225294041329,0.8405966350099681,0.5295513167010166,0.05808922060657959,0.7355932203389823,1
0.5267535071263167,0.51521474575702,0.8372780344540272,0.5059398613034716,0.05657048608410539,0.7355932203389823,1
0.5241882741253062,0.5156340104157053,0.8395704774834822,0.549079032733122,0.05808922060657959,0.7355932203389814,1
0.5253310452020805,0.515202669569303,0.8372500910059675,0.5474873324632885,0.05695016971472358,0.7355932203389823,1
0.5243170129976122,0.5156467206647494,0.8395999298731454,0.5206530049099907,0.05770953697596101,0.7355932203389797,1
0.5263960007107812,0.51518928335811,0.8372192708524413,0.4965003731303283,0.056950169714723914,0.7355932203389823,1
0.5269047271274154,0.5156608280831273,0.8396319971147137,0.5508215657623292,0.05770953697596096,0.7355932203389823,1
0.5279646323992154,0.5151744057772508,0.8371860779272874,0.5511850596879904,0.05695016971472375,0.7355932203389823,1
0.5328762817685895,0.5156765289014869,0.8396661690072256,0.5253683376174229,0.05732985334534221,0.728813559322032,1
0.5299546279815726,0.5151578240669004,0.8371511343972002,0.5012441360199811,0.057329853345342546,0.7288135593220337,1
0.533236727429558,0.5156940542558155,0.8397015568525513,0.5520190997500822,0.056950169714723914,0.728813559322032,1
0.5304885632749602,0.5151392866334615,0.8371158617188574,0.5449656727841742,0.056950169714723914,0.7288135593220337,1
0.5314504789716641,0.5157136785509014,0.8397356878060878,0.5236911822177082,0.05657048608410489,0.7322033898305076,1
0.527261948128174,0.5151184935909372,0.8370849181205222,0.5043241828064444,0.05657048608410545,0.7322033898305094,1
0.5287907124628126,0.5157357301927461,0.8397588712686481,0.5517672194609253,0.05619080245348637,0.7322033898305085,1
0.5292135283628149,0.5150950845436295,0.8370817488569418,0.5443214710205408,0.056570486084105226,0.7322033898305085,1
0.5280397803969575,0.5157606055413797,0.8396959451065598,0.5229428302890753,0.056950169714723636,0.7288135593220337,1
0.5296240867172499,0.5150686225989504,0.8376938601095514,0.4983845130146856,0.056950169714724136,0.7288135593220346,1
0.5245037890854798,0.5157887872903524,0.840523577466113,0.5540554596024326,0.0573298533453421,0.7288135593220346,1
0.5295360375235916,0.5150385731650667,0.8365007414460155,0.5451498754937891,0.05619080245348643,0.7288135593220346,1
0.5287021310588507,0.515820869012216,0.841052418483477,0.5295939094748835,0.05657048608410545,0.728813559322032,1
0.530113893704424,0.5150042754307482,0.8370437918152747,0.4918810973346347,0.05619080245348665,0.728813559322032,1
0.532594693352708,0.5158575884236155,0.8399897261482236,0.5485421188134139,0.053533017039156444,0.728813559322032,1
0.5335175376486503,0.5149649034112322,0.8367691383439259,0.5494094553635379,0.05429238430039399,0.7288135593220337,1
0.5312532428037053,0.5158998731915707,0.8401216288609233,0.534087700427612,0.05581111882286796,0.7288135593220355,1
0.531861049373973,0.5149194118492368,0.8366622817544143,0.49407732757774797,0.055051751561631085,0.7288135593220373,1
0.5296187792534977,0.5159489051193639,0.8402234843684827,0.535586674991676,0.055431435192249495,0.7288135593220346,1
0.5318883523807163,0.5148664596943947,0.8365588333315238,0.5524706276832363,0.05467206793101212,0.7288135593220373,1
0.5275974136338737,0.5160062118352413,0.8403316762331783,0.5401045187074613,0.055051751561630696,0.7322033898305076,1
0.5288701929327494,0.5148042996512211,0.8364438448935707,0.5047668180631688,0.05429238430039399,0.7322033898305085,1
0.5267192309886795,0.5160738006015698,0.8404551870565602,0.5315549192489339,0.05429238430039332,0.7322033898305085,1
0.5286025896324233,0.514730615098223,0.8363100827499401,0.5536573839634112,0.05467206793101262,0.7322033898305085,1
0.5251752692993401,0.5161543583473361,0.8406011236736124,0.5387457421402049,0.054292384300393653,0.7288135593220302,1
0.5304407380308523,0.5146422730342277,0.836149700126319,0.4995032307702928,0.0546720679310124,0.7288135593220302,1
0.5279024078114415,0.5162515591023522,0.8407787363792034,0.5175659573845394,0.05429238430039371,0.7288135593220302,1
0.5334227974833186,0.5145349382676363,0.8359513535988343,0.5576262055288316,0.054672067931012286,0.7288135593220302,1
0.5294018576803002,0.5163705529466256,0.8410023262759074,0.5417002718876255,0.052393966147300436,0.7254237288135563,1
0.5370980280821632,0.5144024461557442,0.8356965879482992,0.5116941771256343,0.05429238430039371,0.7254237288135581,1
0.530732153158349,0.5165187841056089,0.8412962556445335,0.5146525219400903,0.054292384300393154,0.7254237288135572,1
0.5364051939050447,0.5142357087576033,0.8353524539797474,0.5531504623183304,0.052393966147300824,0.7254237288135572,1
0.529925839483761,0.516707515397148,0.8417063266515884,0.5411950794127174,0.054292384300393653,0.7254237288135581,1
0.5346949936111118,0.5140204270705278,0.8348531952596484,0.5119404543289963,0.05391270066977491,0.7254237288135608,1
0.5265798080410953,0.5169557484818851,0.8423307212860105,0.5117227940962709,0.05391270066977491,0.7254237288135599,1
0.5327573975563167,0.5137287300708528,0.8340447391848675,0.5522079943506516,0.05391270066977502,0.7254237288135599,1
0.5234456311861263,0.5173146099885744,0.8434281610142758,0.5447481236945145,0.05391270066977502,0.7254237288135617,1
0.5322457937184594,0.513209657685854,0.8324410977978074,0.5085646503600028,0.05315333340853798,0.7254237288135617,1
0.5151858374308187,0.5195941225536743,0.8468249340238749,0.5198499962524246,0.053533017039156444,0.7254237288135608,1
0.5375411285406471,0.5154303567121594,0.8311541204469107,0.555049702784558,0.05353301703915678,0.7254237288135634,1
0.49387904108977304,0.5144994872294275,0.8644644057080146,0.5406213788186871,0.054292384300393265,0.7254237288135617,1
0.6400246586487809,0.5341533920195605,0.7630403028371908,0.5083752101642663,0.05277364977791962,0.7254237288135617,1
0.6932109351261853,0.5606799393858395,0.6671555918980485,0.5291841362905584,0.05581111882286785,0.7254237288135608,1
0.8361692705843545,0.4789397685996114,0.5478202814745772,0.5511625817030238,0.052773649777919346,0.7254237288135634,1
0.9251262771544634,0.5170501140392506,0.32694626698397655,0.5240521059132195,0.05353301703915639,0.7220338983050825,1
0.7973572846485637,0.6655711413182022,0.322524279319162,0.5114249837832363,0.04745837580901727,0.7220338983050825,1
0.7352494025693199,0.6254159699546689,0.4670281825888045,0.6470194922115172,0.046699008547779836,0.7220338983050825,1
0.7946983396549967,0.6497734873537292,0.5058999821618801,0.628983614414268,0.039485316425785066,0.7220338983050825,1
0.8079826455859467,0.6692805939731377,0.45448019030027426,0.39181781680738226,0.03568877697935677,0.7186440677966104,1
0.7659855840905336,0.6688019951120635,0.30471811430799695,0.4033342705322409,0.03265130793440857,0.7186440677966104,1
0.8336327128212773,0.5929914955515194,0.3285912919271823,0.4177494515606135,0.0273360339655061,0.7186440677966095,1
0.8392780174943435,0.5484809710045855,0.2662782540444376,0.7024314364963447,0.03720751150183174,0.7186440677966104,1
0.78543651469366,0.5159484363648007,0.1320698640233141,0.5477220234882356,0.044800887254445365,0.7220338983050878,1
