wrist_ACC_1,wrist_ACC_2,wrist_ACC_3,wrist_BVP_1,wrist_EDA_1,wrist_TEMP_1,label
0.4567959371215823,0.32910654533169775,0.8197198895914869,0.5646249315820187,0.7129440912084617,0.09523809523810911,1
0.46746570268357146,0.3302597893789957,0.8217403654078074,0.5327311480145076,0.7098789300269279,0.10714285714286476,1
0.46038548191035455,0.3295871732821612,0.8197189287521178,0.5029409151592378,0.7025990973438763,0.1071428571428612,1
0.46600860681695777,0.3297925451935203,0.8217844142053344,0.5099415985799853,0.6899553823469593,0.10714285714286476,1
0.4619448775047822,0.33004080921015655,0.8199478232534679,0.5538963608100181,0.6911048926669447,0.1071428571428612,1
0.4687067742800194,0.3293432713682688,0.821641813542624,0.5115096426275547,0.6891889422977568,0.10714285714286831,1
0.46456202988448714,0.33049666329999816,0.8182749579146926,0.491811292651053,0.6857407108454412,0.10714285714287186,1
0.4708001101358005,0.3288668162913591,0.8220090286604868,0.5179163303158579,0.6822924793931258,0.10714285714286831,1
0.4650645790597092,0.33102588118504545,0.8200630277622077,0.5195666881035856,0.6750126467100726,0.10714285714287186,1
0.4622136258089523,0.32801388248122443,0.8228791029480473,0.47755898412352266,0.6888058720269739,0.095238095238102,1
0.46334502477124795,0.32192453207670135,0.8160926626821137,0.5200331034947144,0.6876563617069895,0.095238095238102,1
0.46011204443338316,0.3136444363938049,0.8173336191676812,0.5184880840424672,0.6815260393439226,0.095238095238102,1
0.4766815153962821,0.3088511449872766,0.798792958843106,0.48786580525856255,0.6796103884823739,0.095238095238102,1
0.5060131209129012,0.28922697402032177,0.7853738174447602,0.5149213607679625,0.6616024916639534,0.09523809523810911,1
0.5082369526080542,0.282780293315314,0.758800221384011,0.5281999011852208,0.6531734481685556,0.09523809523811266,1
0.5067303545400853,0.26346544037323094,0.7641425699963786,0.49116181187877744,0.6397632931224355,0.09523809523810911,1
0.5350035908573856,0.29464043380920124,0.7586587526079978,0.545330189815522,0.641295873713202,0.09523809523811266,1
0.49238191133957143,0.2523108927363672,0.7886427409273231,0.49844865525034476,0.6470431258054874,0.095238095238102,1
0.6957581383752325,0.3895439849704423,0.6659760518724104,0.47564831824382664,0.6753957169808551,0.095238095238102,1
0.40360081183107377,0.37939543967747635,0.8218000764974804,0.5142057473989533,0.6865071508946439,0.095238095238102,1
0.08018450970805091,0.32314703479155316,1.0,0.48281984930771726,0.7198405541130934,0.09523809523810556,1
0.35552398120457196,0.4376615845356969,0.9056752807073085,0.48118040515522287,0.7221395747530635,0.095238095238102,1
0.3563516378351739,0.4249656839602667,0.9033921601251139,0.6585027915415376,0.7190744135715297,0.09523809523810911,1
0.42372322655931804,0.3982301918506313,0.8708785659716296,0.6208421841210247,0.716392322660778,0.095238095238102,1
0.4336655445583891,0.39019962280806897,0.8644068268097298,0.325738078433313,0.7110284403469131,0.09523809523810911,1
0.46586995310693957,0.4124308507426086,0.8559618398118634,0.485831583793666,0.7094958597561474,0.09523809523810556,1
0.43456018280432585,0.4220504103457912,0.8532441257158062,0.5131399442202168,0.7071968391161767,0.09523809523810556,1
0.48539320703620015,0.4217256063859644,0.8365646283792963,0.5203268775104054,0.7052811882546288,0.09523809523810556,1
0.475116696761814,0.4321976088805447,0.8117761933888705,0.5517180705550502,0.7064303990669749,0.095238095238102,1
0.5257399913502022,0.4210619272030921,0.818992460252078,0.5606037592266677,0.7117945808884776,0.10714285714286831,1
0.48071012522989753,0.39185252240346036,0.7803002291879074,0.6407546007515519,0.7160092523899961,0.10714285714286831,1
0.5986263030969141,0.33919638262740137,0.7553779529663043,0.4629011540203863,0.7171584632023422,0.10714285714286831,1
0.630842067713137,0.32259134060198713,0.6947662765557665,0.4877445464502739,0.7217565044822825,0.10714285714286831,1
0.5616242951731634,0.3441048768281747,0.7389841446150643,0.43225113213102906,0.7183082730299661,0.08333333333335347,1
0.48116905427180123,0.32162412550365815,0.8084295880296164,0.3880541687745438,0.7267373165253637,0.08333333333334991,1
0.4650504105397777,0.31983682981942063,0.8072627455855654,0.4291463570466822,0.724438295885395,0.08333333333335347,1
0.44662808238271967,0.31416459364431915,0.8319025169190537,0.5103710127228437,0.7236721553438308,0.08333333333334991,1
0.43300297812708544,0.32091944167774705,0.8296481837610898,0.3932009466670982,0.722522645023844,0.10714285714286831,1
0.4522785483742411,0.32037383150585796,0.828446308849565,0.47445650216174495,0.7144766717992292,0.10714285714287186,1
0.4537226132900567,0.31490818104801044,0.8155626260528871,0.6570927058919209,0.7209900644330778,0.10714285714286831,1
0.47241719588139786,0.32792921709249045,0.8186365670982851,0.593405454538551,0.7267373165253639,0.10714285714287186,1
0.4749014632882106,0.33430015135137325,0.8131464515873458,0.5577962023388846,0.7271203867961453,0.08333333333334636,1
0.49230083342013586,0.33947790382038007,0.8116617995434385,0.528866217709655,0.7290363371653328,0.08333333333334281,1
0.4763274671002975,0.33176157724366473,0.808571250880224,0.5075514949404749,0.7294191079284758,0.08333333333334636,1
0.4796604512545377,0.33058082568259406,0.8141058270069781,0.4917523721849105,0.7321011988392279,0.08333333333334991,1
0.44048413127814734,0.3354975501146503,0.8300854728291078,0.5077514872459538,0.7332507091592122,0.09523809523810556,1
0.45503709591167674,0.3317551970486944,0.8324149388059634,0.49178383359816635,0.7443618435653627,0.09523809523811266,1
0.4183940305731031,0.33425439176420846,0.8393059598372642,0.45112550061530077,0.7585384386606848,0.09523809523810556,1
0.5430739395838295,0.31470561438266786,0.8241351528572133,0.5125117762297272,0.7757798954299029,0.09523809523811266,1
0.48614537405301084,0.42277634239872486,0.7765732406553625,0.4984839326510675,0.7842092384329395,0.08333333333334281,1
0.5639394817877064,0.4483734043391745,0.7245075536525803,0.4513641491362629,0.7784619863406537,0.0833333333333357,1
0.6771013995031003,0.46284156324209846,0.6606648566063923,0.6308070258641342,0.7753968251591208,0.08333333333334281,1
0.6517959686078691,0.48191431113675626,0.6452661508494475,0.6349448063416507,0.7742473148391367,0.0833333333333357,1
0.6589586707187816,0.460675925233992,0.6479460854282484,0.7757320450289571,0.7780789160698725,0.0833333333333357,1
0.6461734788635818,0.46275360962858486,0.6711546726199838,0.36024930385202936,0.7608371597930157,0.08333333333334281,1
0.6468185180547577,0.3802706007098444,0.6767153978204585,0.26132896157233776,0.7370823103899491,0.0833333333333357,1
0.6518511806063494,0.40242922481765436,0.5905282105935132,0.5729347861670657,0.7328676388884319,0.08333333333334281,1
0.7360702712107612,0.4433527698747077,0.3961496927990216,0.7177074426500862,0.6999170064331242,0.0833333333333357,1
0.6800944649360854,0.44361485748327445,0.44401286042100574,0.47179266448658747,0.6788442479408099,0.08333333333333215,1
0.6990170843360837,0.4538231732561786,0.47995220735730126,0.47787823781739847,0.6684992540762238,0.0833333333333357,1
0.688595427450506,0.42280660566679995,0.5507173137522977,0.038414439756220664,0.6677328140270209,0.08333333333333215,1
0.69083268071722,0.4352057217997106,0.5314239852845369,0.5234471768501427,0.6681161838054419,0.08333333333334636,1
0.7167273419518441,0.4100045944267434,0.5505034475818033,0.7203310304988518,0.6711810454793365,0.08333333333335347,1
0.6173598473867083,0.3981970712681581,0.6631736107591528,0.5327409125192681,0.669265394617788,0.08333333333334636,1
0.6686198378905319,0.42811499813401577,0.6480712193223458,0.5432808670878103,0.6895723120761779,0.08333333333335347,1
0.7034707215995915,0.38855684180786565,0.6069098246000292,0.5373367174227779,0.6707979752085547,0.08333333333335347,1
0.6669527874998937,0.4399369578161041,0.6719172332195166,0.4811298583274767,0.6547060287593225,0.08333333333334991,1
0.73371846096139,0.5141180060932874,0.574352359548889,0.6902312143835994,0.6512574977993677,0.08333333333334991,1
0.5146000621566668,0.5563193069025766,0.4914930380505882,0.45925067427977834,0.6543229584885413,0.08333333333334991,1
0.7739823382247488,0.5237787373025335,0.43136969307596357,0.3449601668509119,0.6267362083470982,0.095238095238102,1
0.7298762076179737,0.42711043133513976,0.5816606896421764,0.7115193521081252,0.6271195781255192,0.09523809523811266,1
0.5211730209987981,0.4235005398023293,0.7423486496872609,0.4318750395387829,0.6374642724824662,0.095238095238102,1
0.5882518854144423,0.4302442685796422,0.7923254400154585,0.4098473871305159,0.6719474855285392,0.09523809523811266,1
0.519608468723825,0.34325954413072235,0.7744201570298321,0.5153245974008985,0.6880397314854108,0.09523809523810911,1
0.482294948126453,0.2475556813036816,0.784359811689247,0.6000633946215072,0.6903384526177421,0.09523809523810556,1
0.5101401334007808,0.30654779613974925,0.7714431222535545,0.5714163215108511,0.6826755496639079,0.09523809523810911,1
0.5271001455297366,0.28111445653690514,0.7473027002722444,0.32787492165590326,0.677311667350043,0.095238095238102,1
0.5692965060211039,0.3377924530340748,0.7480306926881493,0.5563073750285151,0.6478092663470518,0.08333333333334991,1
0.5451437432991806,0.31794144094104765,0.7421101835124654,0.5963344577288255,0.6370812022116847,0.08333333333335347,1
0.5589047317538864,0.33548497734128835,0.7462912999142175,0.49889561405505456,0.6301844397994139,0.08333333333334991,1
0.5374535242816926,0.320630237077056,0.7519298192499686,0.46482061499562255,0.6286521587162854,0.08333333333335347,1
0.552096827414035,0.32779197992697595,0.7539418273402017,0.5044683455292246,0.6298016690362707,0.0833333333333357,1
0.5304898460330528,0.31740514997870883,0.7579332486833545,0.511243557694177,0.6305678095778346,0.08333333333333215,1
0.5414712713838221,0.32379695908675726,0.7550979303717957,0.5041002303826584,0.6175407248024973,0.0833333333333357,1
0.5270413498647537,0.3146628824531955,0.7578378600433877,0.4848903273039672,0.6232879768947828,0.08333333333333215,1
0.5434053321269456,0.3233439403494768,0.7549486659614282,0.5280781169680162,0.6213723260332329,0.08333333333333215,1
0.5277203167667045,0.31444938627291025,0.7618348623078819,0.533400967838124,0.6240544169439852,0.0833333333333357,1
0.5662638072170383,0.32825986986600186,0.7509998427207708,0.4908858271367665,0.6213723260332338,0.08333333333333215,1
0.5080595675180233,0.3212682613713971,0.7678670043621993,0.5458622190757555,0.6570047498916518,0.0833333333333357,1
0.5494773787977731,0.329300328566132,0.7588023205592257,0.5199923885642925,0.6822924793931258,0.08333333333334636,1
0.538836813986606,0.323384735950447,0.7525738170326164,0.5006566131511208,0.6642845825747057,0.0833333333333357,1
0.5443783966022475,0.32924142461334427,0.7552937023131148,0.5553770204926646,0.6558555390793075,0.08333333333334281,1
0.54241375078114,0.32192388138715533,0.7546269949097557,0.5654144089990534,0.6470431258054885,0.08333333333334991,1
0.5497049432117573,0.33098767059263967,0.7545173987430532,0.4992845506066297,0.6432115245747516,0.08333333333333215,1
0.5390184690051263,0.32685653455432084,0.755078322360809,0.47345298554829696,0.639763293122436,0.08333333333334636,1
0.5485036693304601,0.33527722717408326,0.7511089186393443,0.4576169406510028,0.6401463633932178,0.08333333333333215,1
0.5385567476488593,0.32574286791814894,0.7491577692212088,0.4787412882167061,0.6539395887101185,0.08333333333334281,1
0.5667960095877478,0.337094374084554,0.7394339084146917,0.5199138613112483,0.6389968530732328,0.08333333333334636,1
0.5594684776089818,0.3303687276240359,0.7403018959316626,0.5392098479349569,0.6301844397994139,0.08333333333334281,1
0.5669788272867835,0.3370141502634043,0.7361546799398376,0.4882720484069408,0.6244374872147676,0.08333333333334636,1
0.5582960268242245,0.33077484610370855,0.7395161835393583,0.5334668466273877,0.621372326033234,0.0833333333333357,1
0.5740674842891078,0.336015748578835,0.7364047467299579,0.5658854823092585,0.6194563756640465,0.07142857142857295,1
0.5593392443948746,0.3296646450165611,0.7393713362428853,0.46272867153715036,0.6194563756640457,0.0714285714285765,1
0.5698639423503209,0.3344677735904721,0.7366150440922419,0.469622227809963,0.6183071648516998,0.07142857142857295,1
0.5547325755934787,0.32838542351992045,0.7408789293689331,0.5180987436364918,0.6163915139901517,0.0714285714285765,1
0.5647299894346729,0.33150334391103764,0.7384853853553358,0.5054541819552862,0.6121768424886325,0.05952380952382086,1
0.5508161326585801,0.3280729789079717,0.739099553355171,0.48464472365875033,0.6137094230793996,0.059523809523817306,1
0.5649864099057336,0.33145769093833594,0.7365790853121732,0.5189164382448112,0.6083452412578967,0.05952380952382086,1
0.5600477379723856,0.32953216519468753,0.7400267587903913,0.5304400068564029,0.6087283115286781,0.059523809523817306,1
0.5662964737540883,0.3354001713947141,0.7380299258403971,0.501539903964248,0.6052800800763622,0.0714285714285765,1
0.5586207330266106,0.32821440956987163,0.7393965165026608,0.49354420319792236,0.6045139395347989,0.0714285714285765,1
0.5692397189569778,0.3315097119959163,0.7365914854834159,0.5431485676158884,0.6018318486240481,0.0714285714285765,1
0.5652141386563496,0.3288333495236551,0.7392101950017764,0.5281489946979334,0.5976171771225285,0.0714285714285765,1
0.5723053830159703,0.3367922300188376,0.7366491728634109,0.4872293576852666,0.5976171771225278,0.059523809523817306,1
0.5632643321124331,0.33262779184092495,0.7391712254433379,0.5233621596784819,0.5964676668025435,0.05952380952381375,1
0.5749532330000373,0.33341837918982775,0.7366863407998187,0.5362632060408095,0.5964676668025437,0.059523809523817306,1
0.5658804154897625,0.3341133607333938,0.7391292681818356,0.4874313467940245,0.5953184559901978,0.059523809523817306,1
0.5741033846679244,0.33534432052837937,0.7367389255085893,0.5142673723463342,0.5972341068517457,0.0714285714285765,1
0.5638240185197618,0.3332498634295238,0.739056715650937,0.5310148932691098,0.596467666802543,0.07142857142858361,1
0.5733404654924423,0.3353503756591875,0.736852644407054,0.5092787812693822,0.5980002473933097,0.07142857142857295,1
0.5594064071354328,0.3277554826589104,0.7388314643999675,0.4850205104241615,0.6006823383040623,0.07142857142858361,1
0.5645492475200582,0.33157110511200394,0.7378239877555164,0.5208828877389573,0.5999161977624978,0.059523809523817306,1
0.5503106301475156,0.3281476827868109,0.7416036709655324,0.5237181861077089,0.601065708082483,0.059523809523817306,1
0.5578631924486923,0.33140188330804077,0.7390047797552561,0.507160564417872,0.5968510365809638,0.05952380952382086,1
0.5511895033317447,0.32824484873075416,0.7420899301877352,0.4834463059117298,0.5972341068517466,0.059523809523817306,1
0.5575483304421951,0.33133584492500123,0.7382835155173618,0.4969972174058709,0.5949350862117764,0.0714285714285765,1
0.5496045082927017,0.3283155572143638,0.7413816100434657,0.5338990325853431,0.5949350862117764,0.0714285714285765,1
0.5626825682159529,0.330557237600667,0.737481125577127,0.5169891422912322,0.5899542741686945,0.0714285714285765,1
0.5536001576939227,0.32078497740021994,0.7440908449918562,0.49936080516594594,0.5891881336271307,0.0714285714285765,1
0.5436215285637018,0.3076993832709968,0.7543895776218584,0.4893375022920377,0.591103784488678,0.07142857142856585,1
0.4719649126605203,0.26419855389071356,0.7736871983933837,0.5349534532773507,0.603747499485594,0.07142857142856585,1
0.4663409346170603,0.25981407097279163,0.7823362570288742,0.5255716963645112,0.6152420036701665,0.07142857142856585,1
0.4735935622013533,0.2715046656250131,0.792316652594784,0.5042388601448592,0.6343991113009324,0.07142857142856585,1
0.46829677257132907,0.26838298021028295,0.7873948590582383,0.48667181802905674,0.6447441051655192,0.059523809523817306,1
0.46096335604426475,0.26064751285463184,0.7870306085595657,0.5165927001033764,0.6443610348947357,0.059523809523827964,1
0.4812529929997358,0.2698032104702029,0.7849090720986065,0.5627816714363696,0.6493418469378194,0.059523809523817306,1
0.4791571577724617,0.26872528396388873,0.785947529214705,0.5422354231359845,0.6466597560270655,0.059523809523827964,1
0.47688180147235915,0.26642906541842337,0.7836128796999279,0.4761436459127821,0.6481923366178335,0.04166666666667851,1
0.4796213739953481,0.2642086799056577,0.7818896148460771,0.523668761027406,0.6478092663470518,0.041666666666674956,1
0.4832651181898965,0.26571350592997045,0.7759559400592166,0.4802585318653599,0.6504913572578046,0.04166666666667851,1
0.48301502837986965,0.26658441611908895,0.7779504886116486,0.46245024121520695,0.647809266347052,0.041666666666674956,1
0.4933365458521958,0.27667179882002046,0.7786189908593941,0.5140786016969418,0.6474261960762697,0.05952380952381375,1
0.4847753216743965,0.2750993929115768,0.7823998491580282,0.5303221535686519,0.6470431258054885,0.05952380952382086,1
0.4904386392756367,0.27453129186647995,0.7806172723484777,0.4995771314860493,0.6451271754363006,0.05952380952381375,1
0.4805289995059414,0.27016925234212597,0.7854339010903468,0.5301651281643077,0.6432115245747516,0.05952380952382086,1
0.4858296730465522,0.2745715097418435,0.7805170980682135,0.5054734663020871,0.6401463633932178,0.059523809523817306,1
0.48499865024870503,0.27299608873550496,0.7776539562627508,0.4905071403454279,0.6420623137624057,0.059523809523817306,1
0.4978827780425932,0.2774253503601565,0.7755080674415564,0.5071421117309527,0.640912803442421,0.059523809523817306,1
0.48462905293986325,0.2745090177840468,0.7826382645308648,0.48943731388846917,0.6424450845255489,0.05952380952381375,1
0.49287585535295697,0.27715992542705703,0.7804809149610414,0.5095400926459699,0.6389968530732328,0.059523809523817306,1
0.4922916109215755,0.2747603491153294,0.7814090109522711,0.5461125548914403,0.6405294336639993,0.05952380952382086,1
0.49825497314052225,0.2784797142964226,0.7763676694355829,0.4787949861641034,0.6366981319409015,0.059523809523817306,1
0.49245507950491996,0.2744863126834178,0.7808897056163439,0.5203921236990635,0.6374642724824653,0.05952380952382086,1
0.49791854462314533,0.27719870795361695,0.7789085016631443,0.5531301089259837,0.6340160410301507,0.059523809523817306,1
0.49367483002101886,0.2746117396366823,0.7820091733229507,0.5337619277998186,0.6340160410301501,0.059523809523817306,1
0.49977355176385474,0.27714390762346874,0.7802274958122732,0.46741836805717196,0.6324834604393845,0.059523809523817306,1
0.49365510559415904,0.2746236323176875,0.7821551142133227,0.5056040703598759,0.6298016690362707,0.059523809523817306,1
0.49980968859238395,0.27722805335617695,0.7794358534083046,0.5366629075618282,0.6301844397994139,0.041666666666671404,1
0.4922778263014973,0.2760646685697157,0.7837994580502348,0.5157116642724314,0.6290352289870682,0.041666666666674956,1
0.49405737726665466,0.27685894940647826,0.7768056976576518,0.49168033466671035,0.6282687889378655,0.041666666666671404,1
0.48891464112239846,0.2748606889112909,0.781311351042403,0.4975847431693225,0.624820557485549,0.041666666666674956,1
0.49438757910069964,0.2769224333555933,0.7796845053441122,0.5401615279674448,0.6252036277563304,0.04166666666667851,1
0.4884490979757373,0.2748512863168034,0.7808018799360301,0.5168567970160419,0.6225218363532186,0.041666666666674956,1
0.4933262950607247,0.27691635118867103,0.7789272156021765,0.49060608631550273,0.6121768424886327,0.04166666666667851,1
0.49087460884268264,0.2748637044809651,0.7820986646634429,0.4902974490477545,0.6186902351224814,0.04166666666668206,1
0.49116989358691965,0.27690084664314996,0.7806905804216613,0.528197783364747,0.6175407248024971,0.059523809523817306,1
0.4897945465385535,0.2748809141180151,0.7846782183598784,0.5221768849291817,0.6167745842609331,0.05952380952382086,1
0.4976917537416179,0.27688255033848663,0.7790468062511947,0.49627664184698744,0.6125599127594135,0.059523809523817306,1
0.4887248874692972,0.2749000632073034,0.7789997742031705,0.49956082689593734,0.6152420036701669,0.059523809523827964,1
0.4987821620690722,0.27686253072080635,0.7783430958932535,0.5215488803140537,0.6144755636209638,0.05952380952383152,1
0.49009798309104813,0.27492120589622526,0.7791817460324265,0.5028855918743056,0.6144755636209638,0.059523809523827964,1
0.4960715701066084,0.2768396974441451,0.77803549327943,0.502877202289637,0.6114104024394296,0.05952380952383152,1
0.49011145997802485,0.2749468472735431,0.7804094716222549,0.5200910970347163,0.6110273321686488,0.05952380952382086,1
0.49357331000724647,0.2768089785269011,0.7771729055230082,0.5092836842518599,0.6091116813070996,0.041666666666674956,1
0.4866309219742282,0.27498777395225804,0.7803241401236345,0.4910748236630569,0.6121768424886322,0.04166666666667851,1
0.49017799131794704,0.2767437867244768,0.7819764610343691,0.5199967441562326,0.6102608921194443,0.041666666666674956,1
0.4860356608332238,0.2751332680071032,0.7811830726746083,0.5196877275801921,0.609494751577881,0.04166666666667851,1
0.48642087484386143,0.27567844277902437,0.7813910627145928,0.4929697365063058,0.6079621709871144,0.059523809523817306,1
0.48672245988270424,0.2744539931780733,0.7848643141299181,0.5089172690592932,0.6037474994855947,0.059523809523817306,1
0.4893819101524114,0.27714377351281605,0.7803361607777297,0.5290961997186557,0.605663150347145,0.059523809523817306,1
0.48703881532865556,0.27446772081697457,0.7825036253717502,0.5009737543103632,0.6048970098055806,0.059523809523817306,1
0.48987270045678577,0.2756510103010705,0.780188652320731,0.4934498352671298,0.6052800800763627,0.059523809523827964,1
0.4883216885932272,0.27517435817463876,0.784450343887171,0.5288198983467359,0.6045139395347987,0.05952380952383152,1
0.4921066897727633,0.2766891136004385,0.7804722049418793,0.5218502010032023,0.6041308692640164,0.059523809523827964,1
0.48777829442733633,0.27505592251409894,0.7847835550487909,0.49339947772892945,0.601065708082483,0.05952380952383152,1
0.491792324169699,0.2767275024651376,0.7829733633609393,0.5244543245440024,0.6022149188948285,0.0714285714285765,1
0.48140623502712954,0.27504145172515704,0.7856355983812957,0.5343129680531455,0.6029813589440318,0.0714285714285765,1
0.49123390550071633,0.2767322297194036,0.782832446471236,0.5153638024270958,0.6006823383040623,0.0714285714285765,1
0.48051150459563496,0.27504118560321816,0.7856850208348878,0.47888008879301375,0.599533127491716,0.0714285714285765,1
0.48516006730566397,0.2767305033811705,0.782826646604978,0.5030512033752503,0.594552015940994,0.05952380952382086,1
0.4857382784038792,0.27504352645414554,0.785568324106249,0.549390234336876,0.5968510365809645,0.05952380952383507,1
0.4980559033622288,0.2767284489934372,0.7810966942093198,0.5295180604072012,0.5960845965317616,0.05952380952382086,1
0.48590669103353556,0.2750446449055026,0.7836700715427575,0.4994848671974146,0.5960845965317614,0.05952380952383507,1
0.4938141698328711,0.27672863715890184,0.7816126023885263,0.47574599345116975,0.5937858753994305,0.04166666666668917,1
0.48228232297143936,0.27504361428470936,0.7849161936354854,0.5375443049411945,0.5960845965317607,0.04166666666668206,1
0.49485620461722923,0.27672630591909797,0.7828218973524834,0.5279383175038805,0.592636365079446,0.04166666666668917,1
0.4855562108097521,0.2750780272385859,0.7857049483485816,0.5091090154928342,0.5945520159409947,0.04166666666667851,1
0.4887025826032817,0.27559662573411314,0.7805481913590573,0.46758779926954125,0.5934025056210102,0.041666666666671404,1
0.49007106726314853,0.27451723475047,0.7800600533369524,0.5198852929595417,0.5968510365809641,0.041666666666671404,1
0.5010141118825127,0.2777858178448398,0.7802225179625659,0.5364906941691694,0.5991497577132943,0.041666666666671404,1
0.4835282939355636,0.2773002330674684,0.7855160376406978,0.5181093438546445,0.5999161977624978,0.041666666666671404,1
0.4950793229252177,0.2762985500860887,0.7815292667662839,0.4916390252329089,0.6006823383040616,0.041666666666671404,1
0.4877639516540462,0.2767422516083207,0.7865198197535217,0.5329555951838726,0.5999161977624985,0.041666666666671404,1
0.4950635467670206,0.27633361364185827,0.7802628928010977,0.5258110617070602,0.5991497577132963,0.041666666666671404,1
0.4912494846556025,0.2750280218274215,0.7795776068386011,0.4809207894134969,0.5957015262609797,0.041666666666671404,1
0.48748025019204433,0.2744712199840752,0.7800024614156504,0.4652495117589411,0.5960845965317618,0.03571428571429891,1
0.46824467309079043,0.2645346902739216,0.7866645953705166,0.5081754900643268,0.5926363650794455,0.03571428571430957,1
0.4703333980030666,0.25520215749826525,0.779916500826559,0.5267319923168241,0.5930194353502269,0.03571428571429891,1
0.47504470171819446,0.2498452281463506,0.766293520422692,0.5012776397628018,0.5949350862117766,0.03571428571430957,1
0.5135796045222146,0.2575144826134907,0.739196097435316,0.46407075889233224,0.5891881336271303,0.03571428571429536,1
0.5535120335176726,0.28913183582630736,0.7299033393803254,0.5172734479665374,0.5780769992209804,0.035714285714291805,1
0.59063478441276,0.31434311185831654,0.7032855848191313,0.590111061225668,0.538996044402607,0.03571428571429536,1
0.587515795647259,0.3205928469461738,0.7040266729852944,0.5211044972571369,0.5229037984457354,0.035714285714291805,1
0.5881121756295755,0.3251888815815993,0.7049285406385106,0.47728055921699253,0.513325244630352,0.035714285714291805,1
0.584890247936076,0.3224335449928767,0.7105938356758543,0.48529559311118214,0.5144747549503363,0.03571428571429891,1
0.5907552348023646,0.3222022430133494,0.7086790501613888,0.5082805032743971,0.5110262239903818,0.035714285714291805,1
0.5865821643846125,0.3195917469426849,0.7092254495160091,0.5007119861645617,0.5102600834488182,0.03571428571429891,1
0.5907200669832597,0.32046693830629897,0.7008901239529164,0.5234434955900777,0.5056623416765169,0.023809523809539712,1
0.5865152759287351,0.3187907681339835,0.7034465971566701,0.5486206839568987,0.5064284822180811,0.02380952380953616,1
0.5907994847504341,0.32473339656219957,0.6996529656604167,0.48938902890579883,0.506045411947299,0.023809523809539712,1
0.5864381986266067,0.32448398733848155,0.7037407677417489,0.4992663044929108,0.5041297610857509,0.023809523809532607,1
0.5908750950027299,0.32668931024215575,0.6988427477091474,0.542724879734978,0.5053739158197836,0.02380952380952195,1
0.5863461941392827,0.32861370178793425,0.7028821773616127,0.49646724355044947,0.501159543825904,0.023809523809529054,1
0.5911443526544502,0.33049901941325344,0.6987825823369884,0.5253757518992529,0.5019256843674675,0.02380952380952195,1
0.5901740190983482,0.3291899229315164,0.702969270942368,0.5276420268563597,0.496944872324385,0.02380952380952195,1
0.591665029544117,0.3303845179924255,0.6986880814907896,0.4942575914143487,0.4957953620044002,0.035714285714291805,1
0.5860674496493852,0.3292468370941711,0.703069355015711,0.524016686233588,0.49273020082286645,0.035714285714291805,1
0.5911440962431731,0.33034597875318694,0.6985820306985004,0.5089306900982088,0.49349634136443044,0.035714285714291805,1
0.5861399347197782,0.32925073774727465,0.703181618964455,0.4889724628270208,0.4888985995921309,0.035714285714291805,1
0.5911444470532221,0.3271292913197741,0.6984661077049017,0.525677920736917,0.48813245905056557,0.023809523809529054,1
0.5861114369292824,0.3261966134422841,0.7032787594185704,0.5179733664538476,0.4865998784597996,0.023809523809539712,1
0.5911922143856614,0.32621094947042156,0.6988117902718998,0.48590679573615436,0.4820021366874987,0.023809523809529054,1
0.5860415848077298,0.3275235784642045,0.7074077694049784,0.51383384736565,0.48161906641671703,0.023809523809539712,1
0.5913011239121724,0.3301731123072056,0.706185034336205,0.5293629658847554,0.48123569663829513,0.03571428571429891,1
0.5858056157981091,0.32783703287660415,0.7124754036347116,0.5101515195431686,0.48468422759825125,0.03571428571429536,1
0.5887058042183373,0.3291947683053178,0.7076521308978501,0.4864305484085591,0.48545036813981457,0.03571428571429891,1
0.5791617714474242,0.32397059847346926,0.7143871388635551,0.5109876368882872,0.4919637607736642,0.03571428571429891,1
0.5829659449913391,0.32219224690130427,0.713534883557829,0.5364007172087679,0.49502892195519776,0.035714285714291805,1
0.5714797098786792,0.32135988390799397,0.7269895798183104,0.5014595671323533,0.5053739158197836,0.03571428571429891,1
0.568604304800622,0.3195428047789399,0.7271278003321263,0.5047510204970448,0.5084390770013172,0.035714285714291805,1
0.54402514848863,0.3063700270072723,0.7403806693865649,0.5267911169042749,0.516485050225933,0.03571428571429891,1
0.5486852601131347,0.2986640630158733,0.7345220125745003,0.503168225452511,0.5199335811858887,0.023809523809532607,1
0.535059772726259,0.2942836746805443,0.7468134597570533,0.4769666913670677,0.5256808332781733,0.023809523809529054,1
0.5331311669396324,0.2896338308609939,0.7429334769412794,0.5149122691959728,0.5184010005951221,0.023809523809532607,1
0.5213401646882542,0.2831440696728762,0.7565809155079344,0.5092522264234278,0.5218492320474384,0.02380952380952195,1
0.5215963054935779,0.2773069603632117,0.7554335196847426,0.4913555174537056,0.5272131143613015,0.03571428571429891,1
0.4724615885098925,0.26910676884703466,0.7924032031907317,0.5078828895526817,0.5559490753150895,0.03571428571429891,1
0.43216661426078806,0.2575813930020602,0.801072410812016,0.5363253365667164,0.5670602097212392,0.03571428571429891,1
0.4507331001650562,0.2521301710161149,0.7889043893463463,0.5108523637456162,0.5712748812227584,0.03571428571429891,1
0.5156270258562311,0.2907139901868135,0.7626117941543938,0.48104404538938933,0.5720413212719613,0.04166666666668917,1
0.542577139901568,0.3134333816554937,0.7716318705641344,0.5369262430879985,0.5777882738566065,0.04166666666668206,1
0.522479127851136,0.31704147995452236,0.7511025528724585,0.5685886447738983,0.5785547139058103,0.04166666666668917,1
0.5541166936355546,0.3122830304895378,0.7917307372134484,0.5152219988949819,0.5777882738566076,0.04166666666668206,1
0.6725794436077257,0.33924570015295885,0.5637085156388908,0.5175996236633793,0.5708918109519747,0.041666666666671404,1
0.6743401645922862,0.4430920955845735,0.4260510160771712,0.4613218853437548,0.5467535917704887,0.041666666666674956,1
0.6641963191367457,0.4863703045468602,0.5731246848073421,0.45974846627220256,0.5364088974135413,0.041666666666671404,1
0.733167522320181,0.48676917358428284,0.5590368611455739,0.4938738534881282,0.5452210111797218,0.041666666666674956,1
0.6757864034931105,0.4162476336021722,0.414095712192845,0.5758337241827348,0.5440715008597359,0.03571428571429891,1
0.6850573472808223,0.4729384077614465,0.3612299030301689,0.47784980671494687,0.5448379409089394,0.03571428571429536,1
0.6666462942273177,0.5010184699292802,0.4172077617758204,0.48041651087980897,0.5364088974135413,0.03571428571429891,1
0.6558432112369277,0.46745568757894546,0.3866983219354517,0.5635783355230095,0.5406232694074216,0.03571428571429891,1
0.7098413458931534,0.4211690744288034,0.39120447848000306,0.4969558630474943,0.5459874512289233,0.03571428571429891,1
0.6655307941034521,0.408785619128759,0.3691239845817015,0.539353513919674,0.5475200318196913,0.03571428571430957,1
0.676056918328723,0.3945957633152601,0.3740080539920804,0.5005282463991324,0.5433053603181723,0.03571428571429891,1
0.6492007775806607,0.41122805772007615,0.356140646762619,0.4978479155019741,0.5425389202689688,0.03571428571430957,1
0.673644302906522,0.41204584325001137,0.3758024784341525,0.509868669034723,0.5398571288658567,0.03571428571429891,1
0.6673030447658346,0.4102208120164674,0.41109371630822306,0.538643921166874,0.5352593870935565,0.03571428571429536,1
0.7054913719897082,0.4013100621011514,0.47249434659918993,0.4625166186919378,0.5314277858628194,0.03571428571429891,1
0.6627010858137878,0.385322645690177,0.5614059297246421,0.5590949795009681,0.5268300440905203,0.035714285714291805,1
0.6976408550235964,0.37120153316132026,0.5488030882366248,0.48459277444597265,0.5241482526874073,0.023809523809529054,1
0.6776863522530618,0.38895405552499834,0.5397976686702478,0.4757160942768537,0.5283626246812858,0.023809523809532607,1
0.7084974268934778,0.41186977979841566,0.5445994344374253,0.543893480825402,0.5295121350012704,0.023809523809529054,1
0.6687057552324691,0.3958187045628571,0.5804127665267946,0.5697211523328385,0.5272131143613015,0.023809523809532607,1
0.6663939871868936,0.44318512338119376,0.6032659117233988,0.45980192702505085,0.530661645321256,0.03571428571429536,1
0.6804753110166388,0.4169924550590922,0.6083530860262031,0.5353244652708116,0.5214661617766552,0.03571428571428825,1
0.6906692968230974,0.45341552986086125,0.5817793477794507,0.5051093115277444,0.5195502114074677,0.03571428571429536,1
0.6844716870155114,0.4485847852081728,0.5949238947163805,0.5166302840445676,0.5210827919982337,0.03571428571428825,1
0.6877062725960823,0.47210679404460565,0.5916048453205563,0.4337079233929874,0.5214661617766545,0.03571428571429891,1
0.670436484737065,0.4414907960194506,0.6015863181582997,0.632422338027987,0.5249143932289706,0.03571428571430957,1
0.700273908706498,0.4352789252833938,0.566376320536542,0.6887930151892384,0.5149524696351668,0.03571428571429891,1
0.6748848313619553,0.42951682488093,0.5867394165019373,0.3579353623490558,0.5107380976412874,0.03571428571430246,1
0.7046392412948803,0.4368529751126048,0.5633199074895994,0.36365746598154114,0.5118876079612718,0.023809523809532607,1
0.6670910203837441,0.4186838237962418,0.6246633575484335,0.5848253901347082,0.5157189096843706,0.023809523809529054,1
0.7339139997311963,0.40154974727293524,0.538796804521238,0.3720592295085288,0.522998742367422,0.023809523809532607,1
0.7010611504584574,0.4894598380225301,0.4954813157260809,0.7671031997556323,0.5682097200412244,0.023809523809529054,1
0.6218829781422968,0.4625531029120155,0.648055252463049,0.6166183753130683,0.5896661478195995,0.02380952380952195,1
0.608504146310122,0.5325729821032363,0.6696757476768602,0.11440132142791437,0.5904322883611632,0.02380952380953616,1
0.7703861337662745,0.42042029875048664,0.42791409741625586,0.4016178169318981,0.5536503541827593,0.023809523809529054,1
0.5840422902952964,0.3464908698358752,0.680266572346835,0.42076639899261714,0.5567155153642915,0.02380952380953616,1
0.3970968907673972,0.30580406186181,0.8691111556889927,0.6329743516244453,0.5777882738566074,0.023809523809532607,1
0.44229446678547346,0.338196044493827,0.8406979248810635,0.8126110768892967,0.5858345465888624,0.02380952380952195,1
0.43651271699707705,0.31449209183419424,0.8418522517336471,0.5441464558643241,0.5682097200412244,0.023809523809529054,1
0.395130673144359,0.2709820724418629,0.8403225146943532,0.4200063165850309,0.5624627674565779,0.02380952380952195,1
0.35800291512784366,0.2610330649318431,0.8566605635357845,0.46705821707606343,0.5616963274073743,0.03571428571429891,1
0.3849330267168618,0.2538030578637208,0.8333988804734707,0.4873014109210401,0.5601637468166081,0.03571428571429891,1
0.45227701662702424,0.26577447256098186,0.8044749708679094,0.5685670111903007,0.5574816559058562,0.03571428571429891,1
0.4952348831312263,0.28169914840571686,0.7830872151271318,0.5376771448569753,0.559780676545826,0.03571428571429891,1
0.4973115808194889,0.29817049112663835,0.7865313071899337,0.45906475524574225,0.5643784183181266,0.035714285714281147,1
0.49202055171099535,0.2915366966146262,0.7820834384668645,0.5186443718199983,0.559780676545826,0.035714285714281147,1
0.49382488587528683,0.29665437345813067,0.7897731905100969,0.5215086496072755,0.5593976062750448,0.03571428571428825,1
0.5062405598049686,0.29070439556579125,0.7751508445545294,0.4954562509852341,0.5597806765458273,0.035714285714281147,1
0.5021656825854118,0.2961554801432586,0.7755204351666241,0.48574687576995884,0.5601637468166067,0.01190476190476275,1
0.5010668405737315,0.2901409234949044,0.7759658711385509,0.5108455687794131,0.5547995649951034,0.011904761904766303,1
0.49504449552901775,0.2867546014042214,0.7777648257585406,0.5253022086311743,0.5532669844043374,0.01190476190476275,1
0.4965017661220027,0.28454305363577703,0.7800770514550793,0.4829665297309679,0.5521177735919913,0.011904761904766303,1
0.49487197204268973,0.2911212918229068,0.7828392883940172,0.5329990941471443,0.5502021227304432,0.011904761904780514,1
0.5019747581771191,0.2946544941727596,0.7752756705187316,0.5496015462814999,0.5482861723612549,0.011904761904780514,1
0.4973118063314913,0.29863885687139824,0.7761436735873211,0.497992634706285,0.5482861723612549,0.011904761904780514,1
0.5015321760025746,0.2961401689482489,0.7739878913071289,0.4824516653491361,0.5452210111797222,0.011904761904784067,1
0.4946813089993066,0.294301671251449,0.7768544154827814,0.5482679250859691,0.5410063396782032,0.03571428571429536,1
0.4983348959883881,0.29080995285368844,0.7784109187256298,0.4993969705199927,0.5387076185458723,0.03571428571429891,1
0.4953130045309917,0.28908440785844014,0.7815730262684237,0.5149354158121757,0.5379414780043081,0.03571428571429536,1
0.49794371152220407,0.28653475904967973,0.7757339134246786,0.5368709380750951,0.5390906888166538,0.03571428571429891,1
0.4956068705786729,0.28809555518754937,0.7760844650643496,0.5154583134646094,0.5348763168227753,0.023809523809529054,1
0.4977045605455531,0.28608796363050104,0.7739511982363637,0.47189391644028206,0.5341098767735715,0.02380952380952195,1
0.4958096902918252,0.2909977106610476,0.7759197706960561,0.5160079624904034,0.5291290647304894,0.023809523809529054,1
0.49752845094529574,0.2858924749261226,0.7741882873646317,0.5432561914094762,0.5295121350012717,0.02380952380952195,1
0.49596473313991196,0.28769940404149663,0.7774505153255632,0.5200116455136615,0.527979554410505,0.02380952380952195,1
0.4973909533572408,0.285748255430139,0.7762986802470806,0.477637783587858,0.5283626246812858,0.02380952380952195,1
0.4960868994967561,0.28717015344518826,0.7798895213790957,0.48714157372693534,0.5264469738197377,0.02380952380952195,1
0.4972828534990762,0.2845093217047275,0.777917898441518,0.5291192681847182,0.5241482526874077,0.02380952380952195,1
0.49618134519699497,0.2880332408556623,0.7806527095844722,0.5147000269139989,0.5214661617766552,0.023809523809539712,1
0.49720263819771515,0.2854556807402486,0.7752800009799518,0.49455150705323186,0.5241482526874068,0.02380952380953616,1
0.49624527640776117,0.2878071266019946,0.7789421482506049,0.48016617106789017,0.5141863290936035,0.02380952380953616,1
0.49715979094744256,0.2855903843907207,0.7756327621105767,0.5369091519687759,0.5172514902751371,0.023809523809532607,1
0.49625600421617333,0.28769440653142775,0.7753606401823951,0.5317506668380411,0.5187840708659033,0.011904761904773409,1
0.4972101729397175,0.285716346369682,0.7750118204452274,0.4987775086117882,0.517251490275136,0.011904761904776962,1
0.4960393489289817,0.2874852963779836,0.7764452077540239,0.498420860932603,0.5184010005951225,0.011904761904773409,1
0.4986579676368461,0.2866411225001049,0.7740244328448125,0.541999306020904,0.5153358394135876,0.011904761904776962,1
0.4976777242112983,0.28834586136912005,0.775835669519444,0.5158736295157835,0.516101979955151,0.011904761904766303,1
0.49637848702444975,0.2861636284963598,0.7741907060152955,0.4813762907883807,0.5153358394135881,0.01190476190476275,1
0.4969111219111575,0.2903614128251979,0.7757445604816318,0.5065060299247354,0.5161019799551523,0.011904761904766303,1
0.4965545831017264,0.28773822504132407,0.7742507645301435,0.5411399037263802,0.5122703787244147,0.011904761904766303,1
0.4968492408565639,0.2876294798418755,0.775704766590225,0.5009901419246547,0.5153358394135872,0.01190476190476275,1
0.49657543783829805,0.2870543112834279,0.7742707917205326,0.48545733647328065,0.5134201885520386,0.011904761904776962,1
0.4968462787348378,0.2876410131477235,0.7757134272658789,0.5244041591198811,0.5126537485028364,0.01190476190476275,1
0.49657058039976054,0.28569613355342144,0.7741980546346661,0.5360734339471528,0.5134201885520397,0.011904761904776962,1
0.49685334309038565,0.2876455356070566,0.7760894291250975,0.4941884440198805,0.5118876079612726,0.011904761904780514,1
0.4965654485972205,0.28569206330780816,0.7753521899314255,0.48395527619698897,0.5149524696351668,0.011904761904780514,1
0.496852252789971,0.2876532749294958,0.7752632835763604,0.5246366647191893,0.5107380976412872,0.011904761904780514,1
0.4965789469927686,0.2856754802219841,0.7746180947273456,0.5249900512290504,0.5118876079612724,0.011904761904773409,1
0.49681471028000124,0.28768990974387365,0.775381679522384,0.4909744019119245,0.5115042381828514,0.011904761904773409,1
0.4966684578748437,0.2855786084772011,0.7745784949992951,0.5041939713715037,0.5103547278628664,0.011904761904776962,1
0.49657914020298655,0.2882241983985151,0.7753958515086439,0.5337964381127875,0.5076729364597539,0.011904761904773409,1
0.49779228398582076,0.28757923855719,0.7745745459477895,0.5087746417596248,0.5095885873213022,0.011904761904776962,1
0.49858171239885407,0.28806564211198993,0.7753960831633284,0.48737014197326073,0.5084390770013161,0.01190476190476275,1
0.49578159056303983,0.2854549924766506,0.7745740628650095,0.5301296580278249,0.5084390770013165,0.01190476190476275,1
0.49748484165702966,0.288238240560843,0.7754005990172366,0.5179840077453521,0.5076729364597539,0.01190476190476275,1
0.49596139151542984,0.28679245218165533,0.7745596937794584,0.48474104784691524,0.5053739158197836,0.01190476190476275,1
0.49750845854857273,0.28734459013114255,0.7754383572378224,0.5142833161600276,0.5065234261397689,0.011904761904766303,1
0.4980215460711962,0.28577669068237316,0.7744483789180405,0.5332885806896632,0.5038413352290156,0.011904761904776962,1
0.4989980353889578,0.28857407466876145,0.7763482387686683,0.4873607694497536,0.5053739158197845,0.011904761904766303,1
0.49731073396732417,0.28771503595258385,0.7750215966876978,0.5047487312584871,0.5049908455490006,0.011904761904776962,1
0.4967733691116041,0.2872097827201825,0.775139537068599,0.5312292201718477,0.5049908455490015,0.023809523809539712,1
0.49648850143441636,0.28607004243186873,0.7747854318339507,0.5123213152731015,0.5019256843674684,0.02380952380953616,1
0.49700400748256757,0.2872863723779297,0.7763609241215892,0.48145373090602717,0.5038413352290181,0.023809523809539712,1
0.496374611242571,0.28606957524217635,0.7747616158689916,0.5185532608847094,0.5030748951798141,0.023809523809539712,1
0.4970729556438759,0.28718790217388185,0.7752109869979683,0.5303608011311631,0.5026921244166704,0.01190476190476275,1
0.49632916315249975,0.28668667847411583,0.7747608415546936,0.5015738142623497,0.501925684367468,0.011904761904780514,1
0.4971024298293395,0.28842345924062207,0.7752075148017629,0.48669191217802643,0.4996266637274991,0.01190476190476275,1
0.4963145631671204,0.28673912952739666,0.7747668706022907,0.5295760736245484,0.5000100335059199,0.011904761904780514,1
0.49709695347453686,0.2894721429996155,0.7751998716710988,0.5259105527431184,0.4984774529151519,0.011904761904780514,1
0.4963595814109776,0.28675022750836415,0.774775561118076,0.49346750202663864,0.5011595438259049,0.011904761904773409,1
0.49692988035918895,0.28830415833166856,0.7751904938612942,0.5103631586218366,0.49886052318593377,0.011904761904780514,1
0.4986000198889796,0.28762794351346743,0.7747853874375098,0.5367523688799106,0.49886052318593466,0.011904761904773409,1
0.500021621956439,0.2918900012068064,0.7751803827764046,0.4909377038360069,0.49502892195519754,0.011904761904773409,1
0.4953905870684383,0.2903840049194357,0.7747956679421302,0.49507322433814627,0.49541229173361834,0.011904761904776962,1
0.4985374725296732,0.28828346016910655,0.7751700159161453,0.5314107074718728,0.49579536200440044,0.011904761904773409,1
0.49782213960645516,0.2875165852813257,0.7748060602091972,0.5225679200668772,0.4950289219551969,0.011904761904776962,1
0.49688498147317695,0.2888918960240556,0.7751596437284747,0.4782602637718425,0.49541229173361945,0.011904761904780514,1
0.4963375436092793,0.2870899090772344,0.7748163777913157,0.5100296952954354,0.4934963413644313,0.011904761904776962,1
0.497167501588602,0.2866597672253772,0.7751494074677625,0.5346727777815712,0.49464585168441655,0.011904761904780514,1
0.4961988350963219,0.28686265119175625,0.7748265115426927,0.5146502383700259,0.49273020082286645,0.011904761904776962,1
0.49726751794640445,0.288060037224414,0.7751393936089344,0.47984103300157643,0.4934963413644313,0.03571428571430246,1
0.49610298829543176,0.28774928652216,0.7748363905610084,0.5077830299318884,0.4931132710936492,0.03571428571431312,1
0.4973851264955036,0.28820618380767327,0.7751296631056253,0.5366165085658119,0.4931132710936488,0.03571428571430246,1
0.49591858072335515,0.28680267279069815,0.7748459590803636,0.5130215559449979,0.4881324590505667,0.03571428571431312,1
0.5000965787081546,0.2893258644169858,0.7751202709082419,0.49094945233344206,0.49119762023210023,0.011904761904780514,1
0.4978290432109499,0.28701156055319604,0.7748551585643675,0.5194150679382274,0.4900481099121152,0.011904761904780514,1
0.5005881852388653,0.2877077336269426,0.7751112839982278,0.534366071995404,0.4900481099121159,0.011904761904780514,1
0.5044638708353445,0.2875615221821158,0.7748639077617258,0.49397057041431097,0.4888985995921302,0.011904761904784067,1
0.49938092042851934,0.2885628364072339,0.7751028053646618,0.49990035237575575,0.4888985995921309,0.011904761904780514,1
0.4968327496130045,0.28740483510422954,0.7748720718533486,0.5344446904086315,0.4885155293213479,0.011904761904794725,1
0.49629747297588556,0.2930794642238701,0.7750950158801857,0.5048178935957143,0.48851552932134723,0.011904761904780514,1
0.49832064942212617,0.28833044220241183,0.7748794031348103,0.4848081955984791,0.488515529321349,0.01190476190478762,1
0.5004418652615812,0.28729295059291077,0.7750882614759933,0.5255073003276695,0.48621680818901836,0.011904761904794725,1
0.49660569746054184,0.28595562549734577,0.7748854083304937,0.5245518900797339,0.4892816698629119,0.011904761904794725,1
0.4993728319410293,0.28737161426067326,0.7750832626526936,0.48605742752435244,0.4846842275982517,0.011904761904794725,1
0.4955343384988572,0.28599521526305766,0.7748890037467654,0.5050349143628611,0.48736601900136445,0.01190476190478762,1
0.49744977632614473,0.28747374995440844,0.7750817110784789,0.5348162403613008,0.4843008578198298,0.011904761904766303,1
0.49704191038060874,0.2889020126844579,0.7748874161911761,0.4983930896622613,0.4873660190013638,0.011904761904773409,1
0.4992242928499083,0.2893376991929988,0.7750884707927421,0.4837242269198027,0.48621680818901813,0.011904761904766303,1
0.49698881493703506,0.2884212297820925,0.7748712186637394,0.5311851125589346,0.48391778754904813,0.011904761904773409,1
0.5019744994870153,0.2934992354766732,0.7751250730658554,0.5312142709730139,0.48430085781982957,0.03571428571430246,1
0.5069390203561362,0.29572428916564586,0.774771955110264,0.4929804358423113,0.48468422759825036,0.03571428571429891,1
0.5094148763341086,0.29738557107997565,0.775964754281147,0.5163293414131392,0.48430085781983045,0.03571428571430246,1
0.5103620178332874,0.29619785552823763,0.774063362323001,0.535801426753997,0.48200213668749825,0.03571428571429891,1
0.512262335197636,0.2985017883594053,0.7752396554196808,0.49450158683983836,0.4827682772290631,0.023809523809539712,1
0.515028939824369,0.29654418550633,0.7717533431163741,0.5079055688307944,0.47855360572754413,0.023809523809543265,1
0.5155652100522872,0.29814454552677355,0.7743925225482884,0.5340987819290249,0.4839177875490477,0.023809523809539712,1
0.5144107984193143,0.2987039506010442,0.7748430021974708,0.49149216012152613,0.47893697550596537,0.023809523809543265,1
0.5160223647880293,0.2994164195204169,0.7723966998754724,0.49052942995108234,0.48008618631831057,0.03571428571429536,1
0.5134376846437287,0.2959167242480566,0.7744072038543899,0.5338445858061176,0.4766379548659956,0.035714285714291805,1
0.5139531626362045,0.2990628739156722,0.7745819721277545,0.5070213357763593,0.47127407255213205,0.03571428571429536,1
0.5146526770921234,0.294240179219184,0.772506249348378,0.4780941528432461,0.4766379548659956,0.03571428571429536,1
0.5098554474724484,0.2950864174237888,0.7721143578288521,0.5168291341577456,0.47587181432443226,0.023809523809539712,1
0.510493293181122,0.29458747513362726,0.7711412149685211,0.5275358183240854,0.47893697550596537,0.023809523809546818,1
0.5095370238927973,0.2957510583475986,0.7691247973115636,0.4951714521099305,0.4770210251367779,0.023809523809539712,1
0.5144121056619978,0.29703168481281783,0.7708775559289571,0.4890589878258103,0.4774043949151985,0.023809523809546818,1
0.513217077075926,0.2980440200912533,0.771115862637059,0.5404255082247936,0.4728066531428978,0.03571428571429891,1
0.5150259809742738,0.29680563143566563,0.769747881477723,0.5279556611295089,0.47625488459521326,0.03571428571429891,1
0.5134214935947897,0.298126318150144,0.7710440932159917,0.491590102733976,0.4735727936844616,0.03571428571430246,1
0.513744195179161,0.29677151171364413,0.7726863232063786,0.5223570260524949,0.47702102513677747,0.03571428571429891,1
0.5136097932741546,0.29813568094323645,0.775018147955033,0.5335948391193828,0.47433923373366516,0.03571428571429536,1
0.5146334136882137,0.2967796794046962,0.7726933304417489,0.48967819216151287,0.477021025136777,0.03571428571429891,1
0.5128572462935382,0.2981103059767273,0.7724965204592851,0.4945340279568565,0.4754887440536497,0.03571428571429536,1
0.5158424808204314,0.29682837601308526,0.7702671685248113,0.5359279056543829,0.4758718143244314,0.03571428571429891,1
0.5137672809185253,0.2980186535367313,0.7717309242701342,0.5100155513136085,0.47702102513677724,0.023809523809532607,1
0.5138011373983655,0.2970364264401936,0.76996038171085,0.48139592118943314,0.4751053742752287,0.023809523809529054,1
0.5112474374573092,0.29640706211117684,0.7722890668983154,0.5225282998569344,0.47433923373366693,0.023809523809532607,1
0.5071516991389311,0.2937104989956386,0.7729877627675792,0.5300394661053953,0.47204021309369537,0.023809523809529054,1
0.5154139387005274,0.29710960734745806,0.7726511270642964,0.48608911653393416,0.47357279368446226,0.035714285714291805,1
0.5114651372861845,0.2954153919208027,0.7702521664440292,0.4909873096564622,0.4724235828721164,0.03571428571429891,1
0.5130576639393585,0.2985478399437752,0.7700975764552924,0.5372281229807808,0.47318972341367993,0.035714285714291805,1
0.5096500182624143,0.2964698230616667,0.7736675310160902,0.5194237173822095,0.4708910022813495,0.03571428571429891,1
0.5141976336942463,0.2983894790638417,0.7736043138121546,0.4902648774684033,0.4716571428229128,0.04166666666668917,1
0.5094918074873839,0.296547152655966,0.7729524343717323,0.5225732754687659,0.46935812218294304,0.04166666666668206,1
0.5125022554414875,0.2983380703382841,0.7720578119127834,0.527376204892679,0.4708910022813495,0.04166666666668917,1
0.5143479283995828,0.29658916135116853,0.7726111882107113,0.48626599741059123,0.47050763250292893,0.04166666666668206,1
0.5151259221867196,0.2982959759620412,0.772381954930303,0.5154380242101908,0.4701245622321464,0.041666666666674956,1
0.512421078123501,0.29664183379575204,0.7733499260749317,0.529849053140654,0.46629296100140927,0.04166666666668917,1
0.5160195471664974,0.29821201231441985,0.7724172718840727,0.4830743863264869,0.4670594010506124,0.041666666666671404,1
0.5144753201498398,0.2968247110300315,0.7696116454934314,0.5056780960861734,0.46859198164137905,0.04166666666668206,1
0.5131464531107868,0.29729006777608313,0.7708066565354101,0.5358807925367042,0.4678255415921757,0.03571428571430957,1
0.5152711774296617,0.2960186525909044,0.7746262654875682,0.4897315932307222,0.46705940105061283,0.03571428571430246,1
0.5107828985075122,0.29763352190184844,0.7741625140610722,0.502974175399736,0.4674424713213945,0.03571428571430957,1
0.50316765946625,0.2912968085647115,0.7726236463710308,0.5380012620103102,0.46667633077983095,0.03571428571429891,1
0.5092197119858923,0.29650207974653264,0.7736244594793102,0.49005423264785913,0.4662929610014095,0.03571428571429536,1
0.5108600564283284,0.2950477034973968,0.7749501130445912,0.4951137843194703,0.46820891137059784,0.03571428571429891,1
0.5123382020961416,0.29741573184392345,0.7716341713637824,0.5349491654433428,0.46667633077983095,0.03571428571429536,1
0.5119079962772886,0.2938033335944991,0.7725696843971144,0.5019870651355004,0.46246165927831195,0.03571428571429891,1
0.5123474484637567,0.2932523972379953,0.7737040807138584,0.5057727388205087,0.46322809932751463,0.04166666666668206,1
0.49540621199889967,0.28582404320321375,0.7734880042937384,0.5390301469504549,0.4636111695982965,0.04166666666668206,1
0.5044211210578604,0.2970269039608496,0.7784604629703853,0.5006411628622018,0.46322809932751596,0.04166666666668206,1
0.5007383985426651,0.2988106664847747,0.7773764352433947,0.5101649444714184,0.4632280993275155,0.04166666666668206,1
0.5063321151378404,0.2966430649158107,0.7760166808118218,0.5258856031191478,0.4616955187367482,0.041666666666674956,1
0.4957279460226707,0.2962684588096399,0.7776979585106645,0.4834693905129534,0.46399423986907884,0.04166666666668206,1
0.5053557169801377,0.30136628806934396,0.7755151025680582,0.5252079721854669,0.4605460084167632,0.041666666666674956,1
0.5151000299353095,0.3085022260728514,0.7750472259992751,0.5057165911174861,0.46054600841676296,0.04166666666668206,1
0.5155304772193857,0.30789972410698385,0.7696471139710377,0.47533492526099225,0.45939649809677774,0.04166666666667851,1
0.5144474300226959,0.3056704952045892,0.7690738212682469,0.5182463306125614,0.46284472954909406,0.041666666666674956,1
0.5159548213915839,0.29862993218312006,0.7705724632098457,0.5606434588608434,0.4636111695982972,0.04166666666667851,1
0.5131267132772379,0.297984478348441,0.7712943956346525,0.5076828852309957,0.4659098907306276,0.04166666666668206,1
0.5115936123827007,0.29833683690633006,0.7708278464166741,0.4815664674507751,0.46552682045984595,0.05952380952381375,1
0.5103148404352127,0.29680155754125476,0.7751890365384144,0.5227642847031077,0.4678255415921764,0.05952380952382086,1
0.5131952576515769,0.2994629480895056,0.7717558377998242,0.49280337783293976,0.4685919816413795,0.05952380952381375,1
0.515239129999737,0.29967366951695273,0.7692768866808022,0.49874564021533696,0.4682089113705974,0.05952380952382086,1
0.5151992639649079,0.30725357188145314,0.7668905767505914,0.5375866723900382,0.4678255415921764,0.041666666666674956,1
0.5149340394853105,0.29941990456280626,0.7667795693379882,0.5125469277810688,0.4674424713213945,0.041666666666671404,1
0.5152460416707194,0.29854099461063466,0.7673246706254699,0.5098720513157622,0.46667633077983117,0.041666666666674956,1
0.5148961164953553,0.29524405549843513,0.7666731294971001,0.548494120298062,0.46667633077983206,0.041666666666671404,1
0.5097081232533165,0.2957615311309335,0.7703128805305087,0.49659512944878187,0.46629296100141016,0.0714285714285765,1
0.5138519991292324,0.2944998340862121,0.7683690590101717,0.4703188290027905,0.4651437501890643,0.0714285714285765,1
0.5110506673754608,0.29522051335813526,0.7718592864365952,0.5160666824806079,0.4643773101398605,0.0714285714285765,1
0.505291293915549,0.28801772242266477,0.7700999444261699,0.5281715061455919,0.4601629381459822,0.0714285714285765,1
0.509265312639251,0.29258128351424484,0.7695756637692533,0.49016048958122593,0.4636111695982974,0.05952380952382086,1
0.5132119931257855,0.29517460599359757,0.767518527557327,0.5017814886583468,0.4593964980967773,0.059523809523817306,1
0.5164796340089154,0.3037998591965345,0.7695391784160837,0.5413609481827333,0.4613121489583276,0.05952380952382086,1
0.5138886423960696,0.3036959324300549,0.7682495557012881,0.5178952065816887,0.45671440718602674,0.059523809523817306,1
0.5161971693011604,0.300572447676957,0.7656430011761325,0.49785661336585296,0.45709747745680795,0.0714285714285694,1
0.5140719927702969,0.29980034978582476,0.7711380443806276,0.5243421990228224,0.4555648968660415,0.07142857142857295,1
0.5160567520577838,0.29883773290675275,0.7684902137193335,0.5296633484409021,0.455948266644463,0.0714285714285694,1
0.5141401013906162,0.29757679625818645,0.7688706407377645,0.4793475425797765,0.4547987563244775,0.07142857142857295,1
0.5130017554784758,0.29828072584307197,0.7744140431186297,0.49218562074777483,0.4563313369152444,0.0714285714285765,1
0.5126456221153747,0.29891053749428154,0.7730199053693689,0.5187634695529338,0.4574808472352292,0.0714285714285765,1
0.5143320601717923,0.3021976753883586,0.7738417332349954,0.4896354263823021,0.4521166654137265,0.0714285714285765,1
0.5132632410033215,0.299153876080303,0.7710490039793143,0.5107903672501718,0.4540323162752753,0.0714285714285765,1
0.5164601380023857,0.30146302690299326,0.7716588598787916,0.533193557878598,0.45249973568450685,0.05952380952382086,1
0.5138973902827126,0.29831827990937254,0.7723378028100658,0.4981527335568026,0.452883105462929,0.05952380952383507,1
0.516170591622046,0.2974825079977992,0.7730783668780683,0.5088312869899173,0.45249973568450685,0.05952380952382086,1
0.5142031794012345,0.2972676919878472,0.772805398476121,0.5313878236334175,0.4524997356845082,0.05952380952383507,1
0.5139175293608396,0.2977108570856902,0.7721904105421096,0.48758689567911995,0.45058408482295853,0.07142857142859071,1
0.5138875137879683,0.29715342668620026,0.7709302726130786,0.494369012756967,0.4513505248721621,0.07142857142858716,1
0.5149212879327466,0.29778319644400175,0.7747801771540259,0.5314950921623672,0.4413886012783581,0.07142857142859071,1
0.5120070563953523,0.297103051289208,0.7732302225942811,0.4990854805431596,0.4494348740106142,0.07142857142858361,1
0.511558992651003,0.29781894028510375,0.7743487555595097,0.5104086595770089,0.4467527830998619,0.07142857142858361,1
0.5121728682694121,0.29707982558604307,0.7739773042802841,0.5384831029872456,0.4479022934198469,0.07142857142858716,1
0.5172222410339038,0.2978272012592492,0.7743303112670414,0.4985510084342483,0.44713585337064266,0.07142857142858361,1
0.5103843681430611,0.2970993867260677,0.7719294768171756,0.5194668164979244,0.44790229341984755,0.07142857142858716,1
0.5128769678106735,0.2977108803733052,0.7739887041061209,0.5313204407613789,0.4479022934198469,0.0833333333333357,1
0.506331623608833,0.29572930011095555,0.7750902065599383,0.4869442139110433,0.4505840848229594,0.0833333333333357,1
0.5153498687098499,0.2974459548063684,0.7721277944392189,0.5202553453243416,0.4486684339614109,0.0833333333333357,1
0.5086918753050497,0.2985309235171908,0.7750753235195154,0.5274402597166793,0.448285363690629,0.0833333333333357,1
0.507671060383698,0.2982411252063828,0.7709013919148145,0.4852798818838332,0.4475189236414254,0.095238095238102,1
0.5131789163000544,0.3019406138358529,0.7697648844685703,0.5096560418267534,0.44751892364142565,0.09523809523810911,1
0.516598135477778,0.3019276303869216,0.7656909732336514,0.5230806069733394,0.4467527830998621,0.095238095238102,1
0.5201391071974859,0.3061530904180603,0.7649928132607688,0.48204223062606316,0.44636941332144087,0.09523809523810911,1
0.5289041294189981,0.30871619537210093,0.7619135524060227,0.5127345960949332,0.44407069218911044,0.09523809523811266,1
0.5226801862993904,0.30810783284770665,0.7599012325487882,0.5485362856194294,0.44751892364142587,0.09523809523810911,1
0.5349873487694258,0.31099250428354275,0.7590139950191126,0.5065574417997095,0.44866843396141154,0.09523809523811266,1
0.5356200634829371,0.31060907607691635,0.7607183929733616,0.49666603819744143,0.4509674546013811,0.09523809523811266,1
0.5220235310309203,0.3082147689726312,0.7621957596411538,0.5306907621588908,0.45249973568450774,0.0833333333333357,1
0.5302097559703204,0.30790675387316435,0.7596360703437088,0.5043482084661188,0.4517335951429442,0.08333333333334636,1
0.5324645488890419,0.3044415009009084,0.7615218732948452,0.47825420563753,0.45211666541372675,0.08333333333333215,1
0.5193952200776212,0.3009843378489343,0.7651760511391686,0.5284102577934746,0.44981764477375563,0.08333333333334636,1
0.5127503116226061,0.30245948118498966,0.7700561233924782,0.5030541482223936,0.45020101455217754,0.1071428571428612,1
0.5121710948060906,0.29519106281505764,0.773594903439434,0.5274987432594773,0.4467527830998623,0.1071428571428612,1
0.5099050589956161,0.2935602619812543,0.7742365549863182,0.5243497146017241,0.44905150423219276,0.1071428571428612,1
0.50302580205707,0.29052159918806053,0.7726739375752609,0.4720571817820463,0.44407069218911044,0.1071428571428541,1
0.5061617975978643,0.29270726796638125,0.7733060240650356,0.5036850000564251,0.4475189236414252,0.1190476190476275,1
0.5078018705728712,0.29685247353655203,0.7727010885980528,0.5312546748286369,0.44981764477375696,0.11904761904763106,1
0.509741418561472,0.29638553603789275,0.7709340180282713,0.48366481304328374,0.450584084822959,0.1190476190476275,1
0.5088506226594243,0.2971176696239446,0.7736716136568915,0.5329207947238105,0.45326617573371086,0.11904761904763106,1
0.5133591746683395,0.29783442224386025,0.77211027306864,0.5298227578699719,0.4567144071860263,0.1071428571428612,1
0.5148318960227215,0.2970419508758655,0.7680953746636008,0.4807453034677532,0.4590134278259963,0.1071428571428541,1
0.5138657245763742,0.2978868622034462,0.7691072509293442,0.5078073609454947,0.4605460084167632,0.1071428571428612,1
0.5106419760454367,0.2970051764390751,0.7716887221495441,0.5327658635228675,0.46092907868754596,0.1071428571428541,1
0.5143142779773321,0.29791279773226653,0.7674446288885732,0.4962593754969253,0.4613121489583265,0.1190476190476204,1
0.5144981105113,0.296987305662102,0.7720839067962056,0.5068967184079586,0.4605460084167623,0.11904761904762395,1
0.5160678449254401,0.29792406653590076,0.7735505550560737,0.53243602085927,0.45556489686604174,0.1190476190476204,1
0.5119776409276612,0.2969821196488227,0.7721404530491611,0.49187980097552025,0.45786391750601085,0.11904761904762395,1
0.5158034379939647,0.29792281813483995,0.7720878710313104,0.5044337656855501,0.4544156860536963,0.10714285714286476,1
0.5140144974371994,0.2969912627231206,0.7695191444468277,0.5354849542239002,0.4570974774568086,0.1071428571428612,1
0.5166348616760774,0.2979024267029431,0.7697094272914908,0.48731054014678943,0.4536492460044932,0.10714285714286476,1
0.5115156427549313,0.29703034275664175,0.7692942915343667,0.5013738841698775,0.4532661757337113,0.10714285714286831,1
0.5129671380430242,0.2978261102570486,0.7700251477341091,0.5330319709015148,0.4524997356845082,0.1309523809523796,1
0.5151835388125093,0.2972044974910322,0.7688137507966643,0.5030812370159531,0.4563313369152451,0.13095238095239026,1
0.5153959591793013,0.29715865821714327,0.772255231491783,0.5110107155755323,0.4547987563244775,0.1309523809523796,1
0.5079112061080047,0.29326157692806687,0.774646703638189,0.5319482312076147,0.45786391750601174,0.1309523809523867,1
0.5090177163944847,0.29841702712899965,0.7750614189594078,0.4988860644303847,0.45594826664446275,0.1190476190476275,1
0.5104009127617104,0.29660325658031594,0.7748465410226975,0.4953752024833833,0.4532661757337113,0.11904761904762395,1
0.5113341526590112,0.29826731515866567,0.7759482712894743,0.5294812338221692,0.4536492460044932,0.1190476190476275,1
0.5043269849766325,0.2966332466195104,0.7754209973762263,0.4920480066283587,0.4524997356845082,0.1190476190476204,1
0.5133360593567544,0.2983429350677015,0.7747398442585267,0.5054374199013758,0.4517335951429453,0.1369047619047663,1
0.5106909570123895,0.2961933371205739,0.7751859777929423,0.5261517004953258,0.44943487401061444,0.1369047619047663,1
0.5110128538051557,0.29700435076961795,0.7748152359959634,0.486760381357542,0.45096745460138,0.13690476190476275,1
0.5111573062906873,0.2971545386976564,0.7742616440386095,0.5082383012137646,0.4486684339614111,0.1369047619047663,1
0.5063981699618337,0.29784721977080875,0.773729477735329,0.5236050387632061,0.4486684339614109,0.1309523809523867,1
0.5108168151363152,0.29705238756737123,0.774795097210875,0.4876329313041228,0.449434874010614,0.13095238095238315,1
0.5063380422802699,0.2978031188335716,0.7742163554300107,0.5263615971494848,0.4486684339614111,0.1309523809523867,1
0.5018350446232014,0.29728448737712887,0.7743576146911643,0.5183592647132739,0.4467527830998621,0.13095238095238315,1
0.4998170814687566,0.2930779749336767,0.775261729706965,0.4898901555696744,0.4456032727798769,0.1369047619047663,1
0.49971745090351827,0.28790953619232407,0.7747888644998913,0.5360990143008665,0.4490515042321921,0.1369047619047663,1
0.4995970378839434,0.2893526027504644,0.7751592763234836,0.5077157650911573,0.4482853636906299,0.1369047619047663,1
0.5007033377473648,0.2913673999634315,0.7747986490992087,0.4934966229484178,0.44751892364142565,0.1369047619047663,1
0.5044370471260108,0.29674068916163265,0.7740928012178488,0.5356247266782216,0.44751892364142565,0.13095238095238315,1
0.5029491961163503,0.29437473888397725,0.7740965180852758,0.5007036182975696,0.44675278309986255,0.1309523809523796,1
0.5129302431296121,0.2960575273639038,0.7742304863198001,0.4993692641668014,0.44636941332144064,0.13095238095238315,1
0.5057746028050174,0.295901255588786,0.7725658789079037,0.5441268290368688,0.4456032727798773,0.13095238095238315,1
0.5087279017545525,0.2974448174061439,0.7728499809963665,0.49876104273446614,0.44560327277987666,0.1309523809523796,1
0.507132032608929,0.29702094969198267,0.774175791138979,0.4962208427195134,0.4444537624598919,0.1309523809523867,1
0.5102001166281946,0.2980029062664167,0.7741633956728169,0.5439107190411312,0.4421550413275612,0.1309523809523796,1
0.5118289916776018,0.29687884451518903,0.7743784963653226,0.5022725889655926,0.4410055310075778,0.1309523809523867,1
0.5086031195784936,0.29696410058385714,0.7752668424662552,0.4947542889522023,0.4410055310075769,0.13095238095239026,1
0.5044806876187065,0.2961930202126226,0.7747618185006777,0.5393938894744746,0.44138860127835833,0.13095238095238315,1
0.5128515284684233,0.29394445321518137,0.7752087101247357,0.49975542271588635,0.43908958063838854,0.1309523809523867,1
0.5032717617847046,0.28988477514988675,0.7747201408041642,0.49137432210074355,0.44062246073679434,0.13095238095238315,1
0.5105667648301344,0.2960971682384652,0.7742302142964013,0.5372548240221628,0.4390895806383883,0.1369047619047592,1
0.5032529168140619,0.293973231050724,0.7729890749797874,0.516708651921536,0.4417716715491402,0.13690476190476275,1
0.5088047188716444,0.2927637537932001,0.7736182686519151,0.4723132546507808,0.4379403698260427,0.1369047619047592,1
0.5023743026347611,0.2941645252571956,0.7716005518237592,0.5183348071722578,0.4387068098752456,0.13690476190476275,1
0.514295064379284,0.29803182098747966,0.7747564669841647,0.5394737137204537,0.4341087685953047,0.1309523809523796,1
0.5141322230870643,0.29691246432132345,0.7722905910241631,0.49139448624993043,0.4375570000476201,0.1309523809523796,1
0.5162143451588338,0.2980954054679025,0.7711884189869109,0.4882265686178,0.427595375961457,0.1309523809523796,1
0.5139102843733331,0.29830523673721626,0.774895499289378,0.5446702729550785,0.4348752086445091,0.1309523809523796,1
0.5163334318782133,0.2977735467580057,0.7705324227268703,0.5279712348619834,0.43372569832452457,0.13095238095239736,1
0.5138373547727249,0.2970715745857353,0.7741418893569411,0.48534343265541446,0.43410876859530534,0.13095238095240092,1
0.514599072860513,0.29782974076084534,0.7750256261583235,0.50650643842171,0.4344921383737268,0.13095238095239736,1
0.5063260423344697,0.2971772794438917,0.7750705927614137,0.5289526484498884,0.43372569832452323,0.13095238095240447,1
0.5048676880052736,0.29626674259462626,0.7748621765734764,0.4888695209920351,0.4352582789152899,0.13095238095239736,1
0.5052607427242668,0.29515976325651283,0.7751169723464143,0.48853224542113666,0.43525827891529145,0.13095238095239026,1
0.5068922372616436,0.29533253431241935,0.7748894987815729,0.5343418522520429,0.43679085950605945,0.13095238095239736,1
0.5069621774100824,0.2948427384302891,0.7743653960147887,0.519361051665435,0.4348752086445091,0.13095238095239026,1
0.5079181268361884,0.29811537550451817,0.7735379613915782,0.4800779983554702,0.4367908595060579,0.13690476190475565,1
0.5077403784408984,0.2958697218666362,0.7748024958287701,0.5101860917094199,0.4337256983245237,0.1369047619047663,1
0.5125491393873225,0.29737703088423295,0.7748563449135393,0.537871604447447,0.43755700004762277,0.13690476190474854,1
0.5096985344013015,0.29712867702663126,0.7752177348661451,0.5053930862047151,0.43449213837372724,0.13690476190476275,1
0.5095047470489654,0.2978760474684415,0.774631773051498,0.48888536551757883,0.43755700004762144,0.1369047619047663,1
0.5082810845577972,0.2969888395052409,0.7732118207901135,0.5298802280080812,0.43947295041681,0.13690476190476275,1
0.512105614795051,0.29793952311078387,0.7731822053946189,0.524183348528692,0.4356413491860731,0.1369047619047663,1
0.5134539430327607,0.2969589037590944,0.7742603538609316,0.4776744918155889,0.4360247189644948,0.1369047619047592,1
0.5128742942447729,0.297947174507605,0.7732717554775441,0.5119680723953102,0.4360247189644937,0.13095238095239026,1
0.5114076893147029,0.2969729184037591,0.7728931193503104,0.529035423023848,0.4360247189644937,0.13095238095239736,1
0.5151679471321733,0.2979028489672216,0.7721974077329935,0.4882248828240313,0.4348752086445087,0.13095238095239026,1
0.5144337024913388,0.2970800544272143,0.7710799950147079,0.5090440522967148,0.4341087685953062,0.13095238095239736,1
0.5151345623505519,0.29750628644698995,0.7737466878668067,0.5358916892094953,0.43027746687220847,0.1488095238095255,1
0.5092535715306218,0.29467923504898696,0.7752419810664646,0.49269621851294093,0.4333426280537418,0.1488095238095255,1
0.5092196017146203,0.2941016925018077,0.771429151659258,0.5160806231431323,0.43181004746297624,0.1488095238095255,1
0.510194058354606,0.29048683285236765,0.7720395705434671,0.5281755949510641,0.435641349186072,0.1488095238095255,1
0.5081850624310784,0.29448698635263393,0.7757969158671076,0.478457214176527,0.43334262805374246,0.13690476190476986,1
0.5044463838485564,0.293287573611823,0.7744145331290329,0.4994917279747926,0.43717422928447847,0.13690476190478051,1
0.49861215709733475,0.2968645133935399,0.7754545226080968,0.5391013179064188,0.43449213837372724,0.13690476190476986,1
0.5023731384857237,0.296226432315597,0.7745771122838467,0.499230980191939,0.43640778923527557,0.13690476190478051,1
0.5078186682020329,0.2986004180749656,0.7753417841880778,0.5169615352388862,0.43602471896449413,0.1488095238095397,1
0.5120940841554048,0.2963283651470425,0.7747168484655499,0.5348469713200577,0.43870680987524624,0.14880952380953616,1
0.5113269398699501,0.2985795615138693,0.7746554804228621,0.49181145186084707,0.43640778923527646,0.1488095238095397,1
0.5072043046601481,0.29630890854404135,0.773603467250658,0.5196627854277769,0.43487520864450824,0.14880952380954326,1
0.5119957446379504,0.2986511064173316,0.7732690224140746,0.5279633842721039,0.4329595577829606,0.1369047619047663,1
0.5087666137604943,0.2959781296075179,0.7736503245352779,0.47346529601136217,0.4348752086445087,0.13690476190478051,1
0.5027970616719525,0.2964658214487841,0.7754292679830657,0.514430199744985,0.4352582789152901,0.1369047619047663,1
0.5029876493237266,0.2960456229140476,0.774607094123013,0.5231279278371368,0.4348752086445098,0.13690476190478051,1
0.509161954047606,0.2976643119016493,0.7731995599363019,0.4868487925105579,0.4337256983245241,0.16666666666668561,1
0.5068434389866059,0.2943073813042858,0.7743875777950544,0.5201338681492069,0.43410876859530645,0.16666666666668561,1
0.511086780532349,0.2987510388622658,0.7749234098841459,0.5365438568679338,0.43334262805374224,0.16666666666668561,1
0.5079775170743475,0.2943577928528302,0.7708938834729169,0.48949516132541415,0.4321931177337581,0.16666666666668206,1
0.5157062776893521,0.2999860841437034,0.7767944667338891,0.4975573395190748,0.430660537142991,0.1369047619047663,1
0.5088614996278544,0.29472714127038513,0.7730816173077848,0.5438543010589434,0.43066053714299013,0.13690476190476986,1
0.5124456902251466,0.3006108561107553,0.7763803021809919,0.5121421229570441,0.4283615165030208,0.1369047619047663,1
0.5102052757188972,0.2922687811261388,0.7677920638907574,0.48716950548220117,0.42836151650302123,0.13690476190476986,1
0.5197396090573015,0.3048541690178518,0.7808401331394896,0.5338556518491387,0.42797844623223935,0.16666666666668206,1
0.49794426795071567,0.2992556173531407,0.7925378588542229,0.5236771354769765,0.4252963553214866,0.1666666666666785,1
0.44671980459107896,0.3575808727103426,0.8453007191714293,0.48116273902086454,0.42721230569067536,0.16666666666668206,1
0.4899296558944932,0.3949981262070511,0.729718666293955,0.49263364255185965,0.4283615165030201,0.1666666666666785,1
0.6675522327983647,0.20182408238139915,0.5096964540903121,0.5383895861956881,0.43794036982604334,0.1666666666666785,1
0.5045053821153571,0.13634652412159604,0.5760976063144666,0.46343613674287776,0.41571780150610405,0.16666666666668206,1
0.44537859749230113,0.11565124062530707,0.6580764725947783,0.5338586579556638,0.38583233023233077,0.1666666666666785,1
0.4183599721432404,0.11081898011068975,0.6866223401176101,0.6070428024004457,0.3682078031923317,0.16666666666668206,1
0.41907789800105233,0.10744440995958038,0.696507775142342,0.3875054774693457,0.36629215233078294,0.1666666666666643,1
0.4028235803824073,0.10473610213597345,0.7028838683702067,0.5109822225406072,0.3555640881954152,0.16666666666666075,1
0.396134216629879,0.10553117180210342,0.7114888103462376,0.5931773035241316,0.3547976481462136,0.1666666666666643,1
0.3929444728728011,0.10239210068735805,0.7157371232120238,0.4645868437381325,0.3530712861127585,0.1666666666666643,1
0.39373396002476024,0.1011533417397496,0.7124669046203504,0.5007629088241126,0.3480901745620373,0.17857142857143415,1
0.4001780807909615,0.1037620713495957,0.7105534557544309,0.5190155679649435,0.3427262922481735,0.1785714285714448,1
0.39576548632516695,0.10320386295243372,0.7102378502899773,0.5127516327807284,0.34425887283893974,0.17857142857143415,1
0.3999108666936474,0.10332621880991721,0.7100408993201103,0.49495633998245364,0.34349243278973685,0.1785714285714448,1
0.39985319757149784,0.10458526004718327,0.710155839587948,0.48275423960115454,0.3438758025681581,0.16666666666668206,1
0.4045053558484182,0.10360675582928358,0.7101152370754439,0.5410036609294903,0.3442588728389402,0.1666666666666785,1
0.40150617638068453,0.10312071439400428,0.7101004983648448,0.5298459175533138,0.3411937116574062,0.16666666666668206,1
0.4007863705730985,0.10424093430153658,0.7101556364853714,0.48744658940738234,0.3411937116574062,0.16666666666667496,1
0.4012861045451711,0.10459061021251359,0.7100710098354317,0.5359783265441919,0.3392780607958583,0.19047619047619335,1
0.4028471316594162,0.10866694916099479,0.7101771585226566,0.5351831573145153,0.34081034187898407,0.1904761904761969,1
0.40416101489576206,0.10858182528522886,0.7100553902259222,0.482435381017537,0.33966113106663887,0.19047619047619335,1
0.40482908072753987,0.10666942353220099,0.7101883230279251,0.5151791775554522,0.3388946910174355,0.1904761904761969,1
0.4013426009855129,0.10712938201901567,0.710047657436917,0.539718675411391,0.33621289961432366,0.19047619047619335,1
0.40118030067974275,0.10615114747829629,0.7101933529825273,0.4918387147851275,0.33621289961432366,0.1904761904761898,1
0.40241337535397725,0.10937339099823212,0.7100448104703216,0.509618985609605,0.3327643686543704,0.19047619047619335,1
0.40513557912941855,0.105960886704203,0.7101943840584919,0.5300012719849633,0.33276436865436887,0.1904761904761898,1
0.40475359884374373,0.10965641336394882,0.7100453442288859,0.48879754013717774,0.3319982281128053,0.19047619047619335,1
0.4046311889665868,0.10722972683760762,0.710192443488141,0.4924898301907791,0.33276436865436865,0.1904761904761969,1
0.4050872410651024,0.10964653623542336,0.7100486140057037,0.5277239273245188,0.3285496971528501,0.19047619047619335,1
0.40430611408039263,0.10925555255851532,0.7101878452789843,0.5074334041354728,0.3262509760205201,0.1904761904761969,1
0.40552690677587433,0.11189316883959038,0.7100546226260958,0.4845886954189246,0.3270174160697221,0.1904761904761969,1
0.4032310818852388,0.10518502683564263,0.7101802432372886,0.5220044906326848,0.3281669263897078,0.19047619047619335,1
0.4036916171737742,0.10883342181520056,0.7100641396089039,0.5235789862894866,0.31743886225434004,0.1904761904761969,1
0.40387382936144833,0.10400877845522633,0.7101682797150328,0.48826345842483637,0.321270163977438,0.19047619047619335,1
0.4008593138373153,0.1036959129257577,0.7100794302072692,0.5009930037924974,0.31973758338667,0.2023809523809561,1
0.40232639616272836,0.10267929513336671,0.7101481466164018,0.5347498668606798,0.31935421360824856,0.2023809523809703,1
0.40212236556352376,0.10766355466852096,0.7101072038302124,0.5139494715759074,0.31858807306668546,0.2023809523809561,1
0.4058637820103135,0.10926119233608339,0.7101069654974427,0.48849164215611385,0.31820500279590336,0.2023809523809703,1
0.4039490379562113,0.11153066421345686,0.7101759520905185,0.5175085015043716,0.3197375833866698,0.22619047619049226,1
0.4056838552835227,0.11285435452530079,0.7099629517072992,0.5330133953731012,0.3189711433374678,0.2261904761904887,1
0.4026169517584455,0.11119592713037096,0.7107698297092357,0.49388223128020675,0.3170554924759186,0.22619047619049226,1
0.4041353042887813,0.1085683965101879,0.710941760044133,0.500913586490057,0.318588073066685,0.2261904761904887,1
0.40417489043522004,0.11100568240746828,0.7109498736054041,0.5328318775476992,0.3201206536574528,0.22619047619049226,1
0.4025906444432935,0.11166383406296537,0.7103462562936322,0.5028884530808907,0.3201206536574528,0.22619047619049581,1
0.40568459491432785,0.11095247024906552,0.7099383747116063,0.4961441611819198,0.3205037239282338,0.22619047619049226,1
0.4039771156739278,0.11105023217372029,0.7102733628457365,0.5364801312765074,0.3193542136082488,0.22619047619049226,1
0.40492684017214897,0.11337735494304713,0.709985288899929,0.5133481039024631,0.31820500279590336,0.24404761904762395,1
0.4007341931042524,0.11073719663619264,0.7102378891471418,0.4887698634960922,0.3189711433374671,0.24404761904761685,1
0.404421126554527,0.11253057823344553,0.7100156637274107,0.5237078195621843,0.31667242220513736,0.24404761904762395,1
0.4049143605328891,0.11214265182249872,0.7102089264107649,0.5231423211223617,0.31475677134358837,0.24404761904761685,1
0.4046922395903447,0.11417324934194545,0.7100461578895203,0.4834246692233887,0.3116916101620537,0.2619047619047734,1
0.40490433925371305,0.1127079158832951,0.7101735910007223,0.5037532255262706,0.3097756597928656,0.26190476190478407,1
0.40455221899654625,0.11282709346759323,0.7100913484010355,0.5348167199626002,0.3093925895220846,0.2619047619047734,1
0.4053094852138701,0.11366890959104098,0.7101089116924673,0.5108603604265918,0.3090095192513016,0.26190476190478407,1
0.4027531839912165,0.11179914055054363,0.7101990305339858,0.484887579929106,0.3067104986113325,0.2440476190476275,1
0.39948568180772315,0.10696768387169037,0.7098751834933621,0.5220225173144644,0.30900951925130205,0.24404761904762395,1
0.4029877717717031,0.10660786393179184,0.7115074282222119,0.5327232636406868,0.30594435806976894,0.2440476190476275,1
0.40419745272331753,0.11042252690775234,0.7117692714823148,0.49930845920477274,0.30594435806976894,0.24404761904763106,1
0.4034933746015874,0.11290936083107717,0.7118877939573116,0.48612530538907084,0.30441177747900183,0.26190476190476275,1
0.4033969450251089,0.1093508683506893,0.7119167805911616,0.5232873833277657,0.30709356888211414,0.26190476190476986,1
0.40572952496562853,0.11285034352778928,0.7104765484243182,0.5233395734336893,0.30172968656825017,0.26190476190476275,1
0.4039719067633679,0.11243331040447369,0.7114469155266709,0.49363339615715984,0.30402840770058015,0.26190476190476986,1
0.40552253911524816,0.11333036688414533,0.7100571879895093,0.49732920058145386,0.3013466162974685,0.2857142857142989,1
0.40409350107304065,0.11388341153953246,0.7102657381377595,0.5341773661032737,0.30364533742979916,0.2857142857142918,1
0.40541553256318585,0.11440786941154896,0.7099508213525535,0.5141255969424999,0.30172968656825083,0.2857142857142989,1
0.40660265328546585,0.1138501246331638,0.7103013259742299,0.485645001348879,0.3013466162974696,0.28571428571428825,1
0.407871899736894,0.11442015283868157,0.7099191595397402,0.5198036525687002,0.30058017624826516,0.2857142857142918,1
0.4035247135967057,0.11383716356144696,0.7103774471137421,0.5371506505105867,0.3001971059774835,0.2857142857142918,1
0.407548606648807,0.11443707027871108,0.709119943905935,0.4950549558038652,0.3001971059774835,0.2857142857142989,1
0.4098488971655262,0.11381442069471615,0.7088946329267091,0.48614265268478907,0.29981403570670184,0.2857142857142918,1
0.40874021371903224,0.11446917724687333,0.7097547396618298,0.5316867921309355,0.30019710597748417,0.2857142857142989,1
0.4064296772754863,0.11376333079961243,0.7103410620136077,0.5304302008559172,0.2978983848451522,0.2857142857142918,1
0.40951202523496844,0.11457864461316525,0.7099250224697049,0.4867160080542018,0.29828145511593496,0.2857142857142989,1
0.4081062518378238,0.1125077765203828,0.7103062657798769,0.49110995486258446,0.29444985388519807,0.2857142857142918,1
0.4046712655831043,0.11426880997945205,0.7099338864452742,0.5386212861161354,0.29751501506673117,0.297619047619051,1
0.404646329351681,0.11387829333694632,0.710307962973076,0.5251681502169947,0.29521629393440096,0.2976190476190581,1
0.40488083128478014,0.11444120160596793,0.7099252934763124,0.4866022033147542,0.2959824344759643,0.297619047619051,1
0.4062277163173015,0.11377093945796912,0.7103225127579116,0.49638526644960934,0.29483292415597906,0.2976190476190581,1
0.40625314738703056,0.11456956563903142,0.7099072664039174,0.5383265293501851,0.2959824344759643,0.3214285714285836,1
0.40694429171124946,0.11353257942839451,0.7103094098071023,0.5137380559102196,0.2971319447959493,0.32142857142858006,1
0.4120028745233334,0.11550420806816547,0.7091533255967483,0.48790515249650435,0.2963655047467466,0.3214285714285836,1
0.41303465074855994,0.11973361680973599,0.7081442403548497,0.5145568798820528,0.29751501506673184,0.3214285714285836,1
0.41860917310263535,0.11679503222509308,0.7063702589289175,0.5353657134921064,0.2967488745251672,0.30952380952382086,1
0.4141243462875054,0.11584773682253346,0.7086599042973614,0.4950612066013782,0.29598243447596406,0.30952380952382796,1
0.4051031484089225,0.11398248523630033,0.7134020167320922,0.5088417488425575,0.29330034356521284,0.30952380952382086,1
0.41200993068785574,0.1179267115784296,0.7131018755013543,0.5303471082255684,0.2944498538851976,0.30952380952382796,1
0.4116654369393987,0.11755442575410313,0.7141843453769465,0.49879890726770826,0.2929172732944303,0.3095238095238244,1
0.4105651605798891,0.11604227814933199,0.7143459516684858,0.49586358639850014,0.29176776297444573,0.30952380952382086,1
0.40503009052977246,0.11620666268799912,0.7153975609842625,0.5286924621425055,0.2913846927036632,0.3095238095238244,1
0.41077865084057075,0.11332334024089186,0.7110285451835178,0.5024018743159326,0.28985211211289763,0.3095238095238173,1
0.4076124174789122,0.11474931098143576,0.7103376019224422,0.48893914058471755,0.28755339098056654,0.3095238095238173,1
0.41482607270439864,0.11358512402780069,0.709288885056923,0.5290307032706795,0.28831953152212986,0.30952380952382086,1
0.41993568850706553,0.11708782270439921,0.7089159326114287,0.5052873045628551,0.287936461251348,0.3095238095238173,1
0.41899003092704856,0.11506700387402352,0.7087511115809444,0.48602986347907995,0.288702901300552,0.30952380952382086,1
0.4210479496735703,0.11644742578217676,0.7091035790017839,0.5298886666071948,0.28563744061137797,0.32142857142856585,1
0.42084351155448874,0.1158040376994332,0.7092234980102969,0.5144085291436677,0.2867869509313634,0.32142857142856585,1
0.4190432654052788,0.11804474306674362,0.7093805105162925,0.4961932257556923,0.2852543703405972,0.32142857142856585,1
0.42072330201868524,0.12070073245410418,0.7046546029080543,0.5345343834696374,0.28563744061137797,0.32142857142856585,1
0.4250668956303574,0.12334893150953552,0.7015916065315652,0.5100723724281905,0.28525437034059653,0.32142857142856585,1
0.4242569632271814,0.1243906721012566,0.7029631840653008,0.49795775547934107,0.2871703207097849,0.3214285714285765,1
0.4236288058767135,0.12261107887431427,0.7005206739666431,0.5375683928632001,0.28525437034059653,0.32142857142856585,1
0.4225864999866331,0.12386040304293133,0.7011768485765836,0.4948515378877276,0.2841048600206122,0.3214285714285765,1
0.42377873812480116,0.12441939853638406,0.700524048622221,0.4936940809724604,0.2829556492082663,0.33928571428573306,1
0.42255110283769226,0.12165650577602038,0.7012263265737732,0.5353225042730853,0.28372178974983053,0.33928571428573306,1
0.4237847523316943,0.12197595600825317,0.7003255741817167,0.49931631653966596,0.2833387194790489,0.33928571428573306,1
0.4225557116932285,0.120679780488614,0.7032664921719473,0.48900958946423645,0.2810396988390784,0.33928571428573306,1
0.42377523724742483,0.12033349266076265,0.7026102356463455,0.5405857670671463,0.2795071182483111,0.33928571428571885,1
0.4225682476949908,0.12283840851536515,0.702955195035035,0.522634623812217,0.27989048802673255,0.33928571428573306,1
0.4237602069579405,0.12519529864790024,0.7052725147041069,0.47836921233110563,0.2802735582975142,0.33928571428571885,1
0.42258556124423086,0.1249110837492512,0.7065211961485534,0.513517802985911,0.2791240479775283,0.33928571428573306,1
0.42374184538948934,0.1247170239942858,0.7096066779416951,0.5390797505220745,0.28027355829751444,0.3392857142857153,1
0.42259775535281274,0.12544790976592662,0.7075221265073139,0.5030860150870241,0.2772083971159811,0.3392857142857153,1
0.4237790846168855,0.12294742655683788,0.7091801900408764,0.4907412737657745,0.27184421529447733,0.3392857142857153,1
0.4220351064725514,0.12044488894133715,0.7103980256913254,0.5294371528521034,0.27682502733755987,0.33928571428570464,1
0.4124470544404779,0.12205383631799455,0.7110927637901676,0.5248629301764463,0.2764422565744169,0.3571428571428612,1
0.41673379443604686,0.122499222502166,0.7102733121403808,0.4816731096467449,0.2756758165252142,0.35714285714286476,1
0.4216201957514387,0.1240723041784264,0.7099770218520426,0.5105435472943822,0.2756758165252138,0.3571428571428612,1
0.4214505801914151,0.12216655986248987,0.7102616407503841,0.534235365010028,0.2729937256144619,0.35714285714286476,1
0.4227354128787011,0.12151378944622399,0.709968380402038,0.5028886251911605,0.27184421529447733,0.3571428571428541,1
0.4189969861640933,0.11922609164078651,0.7102931813861522,0.48779805142771676,0.27414323593444645,0.35714285714285054,1
0.4226254382942206,0.12235626563445268,0.7098958909306711,0.5313754357071001,0.27184421529447755,0.3571428571428541,1
0.41914735057080055,0.120896209532044,0.7104771919724213,0.5262158263785368,0.2718442152944782,0.35714285714285054,1
0.4223416481298873,0.12481532651689725,0.7090331679888134,0.48787635897752774,0.2683959838421608,0.35714285714285765,1
0.4245640923746308,0.12431273355489542,0.7074605792691073,0.49205331373009065,0.2722275850728981,0.3571428571428612,1
0.4232736899206183,0.12551536921412615,0.7081537198302764,0.5331622036680098,0.2714611450236952,0.35714285714285765,1
0.4227749075258549,0.12433854440837544,0.7093979274290225,0.5114404955145455,0.2695454941621458,0.3571428571428612,1
0.4237141843400506,0.12547323058722842,0.7094049642572922,0.49218282058606105,0.2703116347037102,0.36904761904761685,1
0.42244840967745956,0.12437514196231697,0.7059708831864067,0.5279599737985533,0.2695454941621469,0.3690476190476133,1
0.42469689653972287,0.12544303440738286,0.7032715340917925,0.5289848382796849,0.2672464735221771,0.36904761904761685,1
0.42584806116126006,0.12440007262625846,0.7076149036811018,0.48224292524362483,0.26916242389136524,0.3690476190476204,1
0.42436943830330454,0.1254222503480067,0.7075038316072575,0.5104296506049627,0.2680129135713798,0.38095238095237605,1
0.4224193094977453,0.12441758630017025,0.7100453386843457,0.5311311276147386,0.2680129135713798,0.3809523809523867,1
0.42385869016753897,0.1254073458992595,0.7094166649542286,0.4901480283013362,0.2672464735221767,0.38095238095237605,1
0.422486845584076,0.12443038133042628,0.7075738321536227,0.5044907155984012,0.26571419243904915,0.3809523809523867,1
0.4238550759521532,0.12539627776774592,0.7087946576394032,0.5386524777651742,0.26648033298061335,0.392857142857153,1
0.4224691831778167,0.12444001971396523,0.7075782109492623,0.4867030420715649,0.2641813123406427,0.39285714285714946,1
0.4238854854650258,0.1253878348277916,0.7088518626449001,0.4939089547266947,0.26494775238984625,0.392857142857153,1
0.422425697534477,0.12444745459050588,0.7068885994040895,0.5280276737188434,0.26188259120831225,0.3928571428571459,1
0.42394801947286587,0.12538125617395313,0.7082885937604163,0.4962777887917467,0.2649477523898467,0.392857142857153,1
0.42232887039030576,0.124453301582858,0.7096036157151083,0.4938215834691551,0.26418131234064335,0.392857142857153,1
0.42412078660198793,0.12537603747583959,0.7074346787791324,0.5391713757432846,0.2630321015282977,0.392857142857153,1
0.4219150000576035,0.12445797871201675,0.7085309608918646,0.49987559878826476,0.2630321015282979,0.392857142857153,1
0.42806682219133785,0.12537182837713656,0.7082026544419409,0.5121552766072713,0.262648731749876,0.4047619047619193,1
0.42358944380175956,0.12446178279193648,0.7061273551351969,0.5359873314018702,0.2622656614790939,0.40476190476191576,1
0.4233096823923743,0.1253683747550544,0.7047465316516859,0.49254288300294413,0.26035001061754603,0.4047619047619193,1
0.42287070521374415,0.12446493370896405,0.7032985391555269,0.5155315384407437,0.2607330808883275,0.40476190476191576,1
0.4235365226421206,0.125365484280956,0.7007050300408662,0.5328512040257093,0.2588174300267787,0.3928571428571459,1
0.42276281597782805,0.12446760158342335,0.7062887889386307,0.48353694352886323,0.2622656614790939,0.3928571428571459,1
0.42359283031501904,0.12536300469668615,0.7086703821188984,0.5142999381566088,0.2592005002975608,0.3928571428571459,1
0.4227381066514878,0.12446992439543336,0.7097754767142137,0.5363630083748798,0.2595835705683427,0.3928571428571459,1
0.42358955494832706,0.1253608092974795,0.708165731030837,0.4905553621230885,0.25498582879604115,0.4047619047619051,1
0.4227809961167275,0.12447202013190478,0.7101824575427326,0.4995598934940429,0.25958357056834247,0.4047619047619051,1
0.4234425573319254,0.1253587865990487,0.7100141995972179,0.5377631957169954,0.2580509899775756,0.4047619047619051,1
0.42488496477209803,0.12447399572388917,0.7090579029078928,0.5014647319126511,0.2576679197067935,0.4047619047619051,1
0.4240054884767358,0.12535683248670637,0.7078366689697867,0.48166651458931536,0.2576679197067928,0.41666666666666075,1
0.42251548127909067,0.12447595402415401,0.7104178270898015,0.5244175093482274,0.2584343597559968,0.41666666666666785,1
0.42374068320087777,0.12535484399535185,0.7078355139702905,0.532000079026134,0.2576679197067937,0.41666666666666075,1
0.4226830078537691,0.12447799926722419,0.708550671009116,0.49115593678801533,0.25613533911602726,0.41666666666666785,1
0.4234635527202012,0.12535271478002846,0.7076343361262598,0.5029802968000996,0.25728484943601226,0.4047619047619051,1
0.4245291676059676,0.12448024022918269,0.7085483370821817,0.5377472533441382,0.25498582879604204,0.404761904761898,1
0.42456855605344934,0.12535033422531255,0.7093303984852656,0.5147497294406398,0.25613533911602704,0.4047619047619051,1
0.42215737291179845,0.12448278711960631,0.7080492238520635,0.48016158714510965,0.2534535477129145,0.40476190476189444,1
0.42407858754973604,0.12534759783963684,0.7091302015433498,0.5201816201023446,0.25575226884524493,0.41666666666667496,1
0.4222990892258651,0.12448572756415477,0.7097450788455069,0.5324983481188096,0.25613533911602615,0.41666666666667496,1
0.4240200694890176,0.12534445749329742,0.7104037320014809,0.5003302641120302,0.25498582879604204,0.4166666666666714,1
0.4223204515499809,0.1244890239149653,0.7098696513694738,0.47942919542130275,0.2542196882544776,0.41666666666667496,1
0.4240226433246215,0.12534113477532655,0.7103515771474657,0.5278060800273471,0.25460275852525904,0.41666666666666075,1
0.42229618257869084,0.12449204837055577,0.7098963173557782,0.5313955452220929,0.25575226884524405,0.41666666666665364,1
0.4240747197541972,0.12533922102343192,0.7103404200979919,0.48685451694627446,0.25230373788529037,0.41666666666666075,1
0.42219332219252703,0.12449061255476895,0.7098968885242185,0.4909857785186862,0.25345354771291406,0.41666666666665364,1
0.42432429306852115,0.12535163619869638,0.7103349343492956,0.5378413564255332,0.2515375973437268,0.4285714285714306,1
0.4203554542422546,0.1244271614571194,0.7104084144319143,0.5174419758745458,0.2534535477129134,0.42857142857144126,1
0.4234808181947136,0.12628977142665487,0.7093651288017067,0.4887499170520975,0.2503880870237416,0.4285714285714306,1
0.4440912112044535,0.1330488465284584,0.7045103856736947,0.5210958408174268,0.2515375973437257,0.42857142857144126,1
0.4669787504744899,0.14515205698350986,0.6956060297822085,0.5288809450265975,0.2492388762113953,0.42857142857144126,1
0.4590027762975387,0.1446757022179611,0.6972926199245947,0.4883472706918347,0.24617371502986196,0.42857142857143415,1
0.4517849634210036,0.14294890936763982,0.6959976222064789,0.519475264485458,0.24579034525144206,0.42857142857144126,1
0.46423736933736726,0.14821895286725661,0.6957544213439452,0.524686041680807,0.2438746943898924,0.42857142857143415,1
0.45296158615553395,0.14502797463980371,0.6982124690579814,0.48272310871695456,0.2423421137991244,0.4285714285714235,1
0.46819263315732584,0.14390103983038727,0.6870839708601932,0.5035877859017299,0.2419590435283434,0.4285714285714306,1
0.47562470946531876,0.14227471224665866,0.6783056309624113,0.5320523328365899,0.24387469438989284,0.4285714285714235,1
0.4650425578525189,0.14447130045226103,0.6819970166781192,0.49268278210246125,0.24234211379912507,0.4285714285714306,1
0.466560599797591,0.14742804426622785,0.6839920378809106,0.5063478277632159,0.24310825434068883,0.4345238095238102,1
0.46536314555608316,0.1458579776068364,0.6861366510623629,0.5189390577783134,0.2396600228883745,0.4345238095238102,1
0.460147920357605,0.14604566277765763,0.6913961691018002,0.5097377265696665,0.24387469438989218,0.4345238095238102,1
0.4591772590417861,0.1453537965327803,0.690746208034724,0.5099916654993547,0.24157567374992261,0.43452380952380665,1
0.4604678518713615,0.14734840619004952,0.6933047265451454,0.540805598264103,0.24387469438989218,0.44642857142857295,1
0.4594633620795926,0.14570396286083864,0.6926431636912178,0.4836379824971031,0.24157567374992173,0.44642857142858006,1
0.4604340448347337,0.14721520968048923,0.695298276121086,0.5165298026418783,0.2457903452514405,0.44642857142857295,1
0.4576532352425656,0.1457830055692514,0.6989385591365611,0.5244928696549346,0.24579034525144117,0.44642857142858006,1
0.4563919672242278,0.14715746319074474,0.6970776689082212,0.4852516530826717,0.24693985557142595,0.4345238095238102,1
0.45578995472538764,0.1458342201541568,0.6974438230087353,0.5175610052649486,0.2469398555714255,0.43452380952380665,1
0.45857905504745633,0.1470988627432645,0.6987887701730272,0.5396649845556363,0.23851081207602887,0.4345238095238102,1
0.4591418391981441,0.14593018950139686,0.6976853531276783,0.47753165710171824,0.24310825434068928,0.43452380952380665,1
0.46076536147823866,0.1468089117238991,0.6969265131400677,0.5166246118841233,0.24157567374992217,0.44642857142857295,1
0.45858082671752265,0.14453103790586141,0.6908933522469578,0.542815084437483,0.24464083493145616,0.4464285714285836,1
0.45821271137092723,0.1474777796624966,0.694323616956456,0.5221409973511474,0.24080953320835796,0.44642857142857295,1
0.4608858016160725,0.1455748846272556,0.6908644280794417,0.4723942246494691,0.24195904352834274,0.44642857142858716,1
0.4616857327634444,0.14738702085480193,0.692816006904474,0.49919023040087973,0.24042646293757652,0.44642857142857295,1
0.46152701736611756,0.1455150093115708,0.6892549921863402,0.540134748717256,0.2423421137991255,0.4464285714285694,1
0.4678464437330111,0.14806365648309044,0.6942511950517215,0.517858763677932,0.23927695261759174,0.44642857142857295,1
0.4620264293116497,0.14553488110586932,0.6908018060033588,0.48145449111069105,0.2392769526175913,0.44642857142858006,1
0.4730935230516804,0.14883214813785622,0.6872433805090322,0.5130941322747264,0.24157567374992217,0.4464285714285694,1
0.4654846397061918,0.14621909145351775,0.6851289579668854,0.5349688166584569,0.24004309315915462,0.4464285714285836,1
0.4682550966511416,0.14792191715835162,0.6865909701437889,0.5174735525413591,0.24042646293757586,0.4464285714285694,1
0.469795071251053,0.14594500142493166,0.6851152779270046,0.4697861601707283,0.23889388234680986,0.4464285714285836,1
0.4760281478915095,0.14607037836434866,0.6815624339157427,0.46992789686269065,0.24042646293757675,0.44642857142858006,1
0.4761374289603546,0.14635030324193377,0.6804048751265227,0.5528951949546601,0.2396600228883734,0.44642857142858006,1
0.48172965502472553,0.1478332373102076,0.6771457724309331,0.517591855775476,0.24004309315915595,0.44642857142858006,1
0.479379088272915,0.14792723054987678,0.6798552370959907,0.4861737653663015,0.2396600228883745,0.44642857142857295,1
0.47671798486854156,0.14835046346386938,0.6805610707753923,0.5156284610249409,0.24004309315915529,0.4464285714285694,1
0.4797586678925807,0.14550749963394788,0.6796814316373201,0.5351395067266819,0.24004309315915506,0.44642857142857295,1
0.48167130276660797,0.14847570404808247,0.6771316983433537,0.5028674170214151,0.2400430931591555,0.4464285714285694,1
0.4823047067338351,0.15059604998869713,0.6758987455389435,0.4908121975329283,0.2404264629375772,0.44642857142858006,1
0.48324832434557463,0.15017987848018732,0.6761919617801639,0.5261228021632106,0.23927695261759152,0.4464285714285836,1
0.4775671965677587,0.14848099504700119,0.6774857430333135,0.5268207871703049,0.24080953320835885,0.44642857142857295,1
0.4830546510609872,0.14873158227451871,0.6803994713824995,0.4879955411215203,0.2385108120760291,0.44642857142858006,1
0.461447968544226,0.14459311392798307,0.6904386271263456,0.5127983630859078,0.24080953320835818,0.44642857142858006,1
0.45087944572033534,0.14279344995176713,0.7016705352755466,0.5289431276430684,0.23927695261759196,0.4761904761904816,1
0.4273962626552008,0.13591355235873953,0.7109064504897131,0.48531184194972576,0.23966002288837362,0.47619047619048516,1
0.4279226939009957,0.1335920407522363,0.7166498084475981,0.5088814508677127,0.23774437202682508,0.4761904761904816,1
0.43114875290762156,0.1354669284261949,0.7162670293871212,0.5334765215008003,0.23774437202682486,0.47619047619048516,1
0.4266429215977502,0.13624929810149844,0.7133969312717925,0.4880959954219066,0.23621179143605753,0.44642857142857295,1
0.43325896144490483,0.13483451593471557,0.7125019070664707,0.5078969063170745,0.23851081207602753,0.4464285714285694,1
0.43330587042504576,0.13834237149083617,0.7100362337243142,0.5381627186678449,0.23697823148526176,0.44642857142857295,1
0.4384081458729552,0.13635979612588406,0.7122236572784997,0.495472141501016,0.2365948617068394,0.44642857142857295,1
0.43882914464059297,0.13560984902273254,0.7097202166358393,0.5071323590670749,0.23429614057450898,0.46428571428571885,1
0.43609943821538877,0.13679773479171936,0.7105268299309013,0.5361053807459177,0.23544565089449465,0.4642857142857295,1
0.43861647292657524,0.13614190273707055,0.710313734662722,0.48820540788499034,0.23276355998374276,0.46428571428571885,1
0.4358392313900188,0.13558102895117002,0.7144395794026598,0.5223867278824852,0.2346792108452913,0.4642857142857295,1
0.438000031739573,0.1384928635980493,0.7110516401213778,0.5305511447383281,0.2346792108452911,0.488095238095255,1
0.43542035933835066,0.13527334934788537,0.7106936151228964,0.4836008119515999,0.23314663025452353,0.488095238095255,1
0.43673664558038827,0.13625549680723947,0.7109544548661554,0.5239481451730297,0.23429614057450898,0.488095238095255,1
0.4374513432088475,0.13511179882803165,0.713994259707521,0.5227185974291595,0.23429614057450965,0.4880952380952479,1
0.4366499920361677,0.13630290336770573,0.7108218927988098,0.4828498461555864,0.23391307030372843,0.47619047619047805,1
0.43351427117614316,0.13509703909349097,0.7101763852703411,0.5242572051719201,0.23199711993453853,0.47619047619047805,1
0.44095617184415403,0.13624732550576485,0.7098908546250903,0.5320221985174436,0.23238019020532108,0.47619047619047805,1
0.437436960199016,0.13564285168058082,0.7113927021183964,0.48398182729540346,0.23046453934377276,0.47619047619047805,1
0.44084807810438087,0.13759563868389968,0.7101179633839234,0.5026602084749094,0.22969839880220833,0.47619047619047805,1
0.4389474065176262,0.13414190765537998,0.7102156236721204,0.5366619881195049,0.22969839880220877,0.47619047619047805,1
0.4415821262355841,0.1380112292681977,0.7099940335138234,0.5035802751287248,0.2316140496637593,0.47619047619047805,1
0.44106275006464535,0.1368354853282866,0.7102579219708589,0.48118333797322654,0.22969839880220877,0.47619047619047805,1
0.4421890779533224,0.1392817399608693,0.7099754822378509,0.5153278560942711,0.2308476096145542,0.4642857142857224,1
0.4408443443438548,0.13791705400185855,0.7102653690843443,0.5368482158804344,0.2312309793929752,0.4642857142857295,1
0.4423098862520233,0.1398703988286012,0.7099745028986213,0.48719042732203227,0.23008146907299087,0.4642857142857224,1
0.4407644739142974,0.13811221459102901,0.7102619258331977,0.5015963005156654,0.2300814690729902,0.4642857142857295,1
0.4423685896860281,0.1370951896923272,0.7099815017427076,0.5365366140727538,0.2296983988022081,0.4642857142857224,1
0.4407180860096872,0.13954600903110304,0.7102514858706992,0.5186849264323026,0.22931502902378775,0.46428571428571885,1
0.4424072487038545,0.13559508949414778,0.7099960108327805,0.4780024097220873,0.22854888848222443,0.4642857142857224,1
0.4406845320578544,0.13582219139339796,0.7102311464295827,0.5090607660326029,0.22663323762067544,0.46428571428571885,1
0.4424373119402234,0.13554066835033862,0.710026326660613,0.5395236745736618,0.22816581821144166,0.48809523809523725,1
0.4406569082755093,0.13636999785383108,0.7101801976974569,0.5117940498753408,0.22969839880220855,0.4880952380952408,1
0.4424632131856533,0.1367768571119637,0.7101334613494114,0.47910742984571253,0.22625016734989356,0.4880952380952337,1
0.4406322213149758,0.1375034526418359,0.7097789431205602,0.5150493197782348,0.22701630789145688,0.4880952380952408,1
0.4424870584508336,0.14025426996693896,0.7089920086431759,0.5368765861360715,0.22625016734989245,0.48809523809524435,1
0.44060893644662147,0.14129525774494978,0.710613223633448,0.5045557675891191,0.22931502902378753,0.4880952380952408,1
0.44251000092095694,0.1411212774509159,0.7096743880363336,0.4843841227255532,0.22586679757147254,0.48809523809524435,1
0.44058616348052804,0.13967171655308042,0.7106801255674502,0.5191377638868936,0.22701630789145688,0.48809523809523725,1
0.4425327442709662,0.14179396370641878,0.7081831849648197,0.5399480984786004,0.22625016734989378,0.4880952380952408,1
0.4405633347136001,0.14033484397891127,0.7083600390627214,0.49659046861540773,0.22778274794065978,0.48809523809524435,1
0.4425557541185382,0.1422872743955952,0.709967540378624,0.4857069765442488,0.2208859855283889,0.4880952380952408,1
0.4405400639020125,0.14087643385414622,0.7101969271945279,0.5277950132804169,0.22548372730069,0.48809523809524435,1
0.442579352138494,0.14589425970127462,0.7100431417911373,0.5330847611632133,0.22433421698070521,0.47619047619047805,1
0.4405160851421315,0.1388543427468773,0.7101995412984624,0.489780205786659,0.2262501673498929,0.4761904761904745,1
0.4426037522339743,0.14287442538313005,0.7100358485668381,0.4899908540153652,0.22471758675912645,0.47619047619047805,1
0.4404912375109994,0.13855881987751334,0.7102074049321461,0.5333867543008906,0.22395114670992355,0.4761904761904745,1
0.4426290562500501,0.1376378300226424,0.7100257672614424,0.5260738253469204,0.22356807643914034,0.5000000000000071,1
0.44046549054762385,0.1394975207314088,0.710223483318693,0.4833508423915318,0.22356807643914078,0.5000000000000142,1
0.4426552026965658,0.14323097168602478,0.709995529497168,0.4972039324678531,0.22356807643914123,0.5000000000000071,1
0.44043903001196083,0.13994063591369077,0.7102919104078163,0.5334355703871055,0.22165212606995288,0.5000000000000142,1
0.4426818316651252,0.14452761892633997,0.7097549583305482,0.5106057825571395,0.22241856611915622,0.48809523809523725,1
0.4404124671461479,0.1397985839251099,0.7090866897514347,0.4858584843671641,0.21897033466684013,0.4880952380952337,1
0.44270795933912677,0.14554339754407264,0.7103256600906374,0.5206748248929384,0.2159051734853068,0.48809523809523725,1
0.4403873534142081,0.14346573073911106,0.7099980206958323,0.5336768827856802,0.21782082434685646,0.4880952380952408,1
0.44273114243692313,0.1465212220164957,0.7102141241837894,0.4889838004645007,0.219736475208405,0.48809523809523725,1
0.44036758531797127,0.14497012329292813,0.7100345529737833,0.5056565801177932,0.21897033466684057,0.48809523809524435,1
0.44274500678198125,0.14477252770261995,0.7102026807830317,0.5419891262708402,0.2205029152576079,0.48809523809523725,1
0.4403640140104137,0.1450338922805861,0.7100342593981572,0.49488643687614314,0.21973647520840434,0.48809523809524435,1
0.44272996009389165,0.1446815432613679,0.710208581848723,0.4885330897149895,0.21973647520840456,0.488095238095255,1
0.44041526145267684,0.14120744296106386,0.710029243892552,0.5394920085926717,0.21973647520840456,0.488095238095255,1
0.44259845058946123,0.14359500348049387,0.7101922726788782,0.5192295435998034,0.21897033466684102,0.488095238095255,1
0.44077857757920214,0.13995717035545435,0.7114069361128055,0.47382549718818495,0.2185869648884209,0.4880952380952479,1
0.44067436626575773,0.13892918000422572,0.713312320315779,0.5172901955570605,0.21628824375608935,0.48809523809524435,1
0.4367335962751907,0.13630002143422987,0.7100867344187015,0.5435526781872996,0.2193534049376229,0.48809523809524435,1
0.44411972977412373,0.1409100534208424,0.7110557384254867,0.5026562050490484,0.2155221032145258,0.48809523809524435,1
0.4392498042078572,0.1380676305615352,0.7105645221230951,0.47950567744569317,0.21705438429765267,0.48809523809524435,1
0.4438192800830124,0.1407993076318046,0.7109720171462742,0.5301368810052549,0.21513873343610412,0.5119047619047734,1
0.43691819798467757,0.1403785041754229,0.7139711916275069,0.5316750571689393,0.21820389461763745,0.5119047619047663,1
0.4441275210368847,0.14163831251021375,0.7130290975148723,0.49242412217356724,0.21437259289454103,0.5119047619047734,1
0.4372060966534912,0.14053180072432692,0.713190086656953,0.5027152632561539,0.2159051734853077,0.5119047619047663,1
0.443449419448229,0.14244409541131492,0.7128372104008937,0.5428273804632923,0.21398952262375803,0.5119047619047628,1
0.43563083835145244,0.14332431049027888,0.7104603755074284,0.5027411235353311,0.2159051734853068,0.5119047619047663,1
0.4421877119726261,0.14249835528899885,0.7128595627905068,0.4913197009064905,0.2147556631653218,0.5119047619047628,1
0.4406359878871232,0.13896525186210518,0.7108019281604382,0.5295659716534835,0.21360615284533657,0.5119047619047663,1
0.43954612277809135,0.13824980113485758,0.7151767959988226,0.5237594647108762,0.2139895226237578,0.511904761904777,1
0.43450827716644536,0.13850867159153496,0.7141862972324232,0.48078001230623646,0.21245694203299115,0.5119047619047734,1
0.44337408980176707,0.13728087366093028,0.7137740059511398,0.5054112467729146,0.21322308257455602,0.511904761904777,1
0.43827106409661065,0.13660443038733816,0.712336359411411,0.5309087375867966,0.21130743171300725,0.511904761904777,1
0.44508484862469067,0.14011397134866932,0.7107088836317663,0.5047278950959785,0.21284001230377303,0.5119047619047592,1
0.43789625892965356,0.14182016927333901,0.7091914537920443,0.4791567711737014,0.21169050198378803,0.5119047619047734,1
0.4432642765075848,0.14657649964171565,0.7113419220230931,0.5223588877696859,0.2139895226237578,0.5119047619047592,1
0.44861864523346084,0.1474265972552613,0.7080816920577633,0.5334664037173632,0.21322308257455513,0.5119047619047734,1
0.45651881833339514,0.15135653411159422,0.7235076446789493,0.49755160606105603,0.2120735722545697,0.5238095238095326,1
0.3860707827367965,0.12232336218449552,0.7036488380398782,0.492741278382008,0.21360615284533657,0.523809523809529,1
0.5624605617105805,0.2064584831037803,0.5850584861397388,0.5398198961389084,0.23467921084529064,0.5238095238095326,1
0.7381530683915267,0.36786654187902124,0.505981241698808,0.49179532392611464,0.24195904352834385,0.523809523809522,1
0.6372656296443195,0.26286134508721537,0.4414294088499664,0.5202471793861717,0.2350622811160732,0.5119047619047592,1
0.6499036699368919,0.2664509666914947,0.4641807174460029,0.47851047271527825,0.23391307030372732,0.5119047619047628,1
0.6365200335704893,0.2636280358464608,0.4664620580582578,0.565188871270944,0.2346792108452902,0.5119047619047592,1
0.6414358089071888,0.26596185321976074,0.4692634394543929,0.5123803690803668,0.24349162411911052,0.5119047619047628,1
0.6325301154775325,0.26710308844382896,0.46622237595370986,0.425311279218593,0.25077145680216195,0.5238095238095184,1
0.6347342177212127,0.26752941042961,0.470351059261241,0.5554759560884774,0.26035001061754537,0.5238095238095184,1
0.6403075462716887,0.26394058040364166,0.46817117212856163,0.48295005269839797,0.2641813123406431,0.5238095238095184,1
0.6412993875197746,0.2648728410089093,0.4701696138826816,0.498591339848304,0.2680129135713796,0.5238095238095184,1
0.6423643998260478,0.26672529191144534,0.46817191437446365,0.5249494158547838,0.2683959838421619,0.5238095238095326,1
0.638779181118009,0.26458712280035446,0.4704156312074708,0.5015872519114511,0.27567581652521334,0.5238095238095397,1
0.6380843507115748,0.2674734870389128,0.466097783814708,0.5013790416654433,0.27759146738676277,0.5238095238095326,1
0.6407266114465542,0.2688446934533212,0.4675902286144186,0.546298915323176,0.2795071182483113,0.5238095238095397,1
0.643778764259757,0.269636051792431,0.4683406855108546,0.5000106206716645,0.2814230686174992,0.5357142857142954,1
0.6393059540361659,0.2659316354422887,0.4695807349517355,0.5021690458076686,0.2856374406113791,0.5357142857142918,1
0.6400945594010208,0.2646839927161925,0.4688245105128367,0.5500989539390325,0.28602081038980076,0.5357142857142954,1
0.6455400796163475,0.26535611787240165,0.4695454234465035,0.5115793116454868,0.2879364612513493,0.5357142857142918,1
0.6425431529890904,0.2649531906320724,0.4688411366498925,0.5005421094662535,0.28870290130055176,0.523809523809529,1
0.6410477553825338,0.2651743695707106,0.46952653918553644,0.5358166873153845,0.28870290130055176,0.5238095238095362,1
0.6411892814325901,0.26510147643706916,0.4688645447291821,0.5074417505564313,0.28985211211289785,0.523809523809529,1
0.6428487678584311,0.26500686904585563,0.4694978929839971,0.49586421871627234,0.2902354818913184,0.5238095238095362,1
0.6434386586916043,0.26582072673758617,0.4689000107684806,0.5306081839191568,0.288702901300552,0.5238095238095326,1
0.6407679569070994,0.267405371303726,0.4694518514767916,0.5185469768443309,0.2910016224328824,0.5238095238095326,1
0.6423306271988292,0.27059999496739434,0.46896545676143,0.48640033087015877,0.2910016224328824,0.5238095238095326,1
0.6440554718255966,0.26795581056033346,0.4693431648025097,0.5205815440536579,0.2902354818913193,0.523809523809529,1
0.6437579778035076,0.27239497645720534,0.46920660088082106,0.5256977488017632,0.29215113275286675,0.523809523809529,1
0.6436788182892081,0.26989627497566043,0.4680929360750883,0.49750797123670787,0.2910016224328831,0.5238095238095326,1
0.6440605561726711,0.2700617148248291,0.46707899351226295,0.5146203345407229,0.2944498538851976,0.523809523809529,1
0.6433360278621327,0.2707577588062189,0.4677852298317986,0.5153744831954964,0.29215113275286697,0.5238095238095326,1
0.6422833778557702,0.2666213730571124,0.46893979517801865,0.4917030388889951,0.29406678361441574,0.5238095238095184,1
0.6411482625196905,0.2660429555407376,0.46950599033522533,0.5144934434581478,0.29291727329443074,0.5238095238095148,1
0.644018917278206,0.26506815345664836,0.4688650798342831,0.5263387780092081,0.2963655047467473,0.5238095238095184,1
0.6381772900390732,0.26502384612874463,0.46950896408435516,0.4938215737663336,0.2940667836144162,0.5238095238095148,1
0.6420075261714899,0.2652575711226315,0.4688761988474489,0.5072016605040615,0.29559936420518285,0.5238095238095326,1
0.6425790344236921,0.2648305146470694,0.4694942853640515,0.5312686111659036,0.2955993642051822,0.5238095238095362,1
0.64267849845725,0.2663296461560144,0.4688916647923843,0.5071420674926324,0.29598243447596473,0.5238095238095326,1
0.6433503100869,0.26557362188355527,0.46947885983476323,0.49714575216770807,0.29674887452516696,0.5238095238095362,1
0.6417496394971203,0.26737959647033827,0.4689068242807359,0.5247044073648222,0.29559936420518307,0.5119047619047592,1
0.643748871919309,0.266291116567021,0.4694639813658226,0.519109613277172,0.2967488745251683,0.5119047619047556,1
0.6350937492649358,0.2678955654722066,0.46892148663279143,0.4960412681016559,0.29598243447596495,0.5119047619047592,1
0.6438549416822139,0.26569370598036407,0.46944943706136466,0.5209201136322041,0.2975150150667323,0.5119047619047628,1
0.6411913916720395,0.2666126313876743,0.4689360279841802,0.5209925838882836,0.29598243447596473,0.5119047619047521,1
0.6440674073941808,0.2655590377987225,0.46943477021889474,0.49194833296330737,0.2998140357067025,0.5119047619047592,1
0.6435485732270119,0.2668631940765363,0.4689509644709581,0.5075536315125337,0.2971319447959493,0.5119047619047521,1
0.6440541231923267,0.2663422999333632,0.4694193978493006,0.5280148759897374,0.2990475956574985,0.5119047619047592,1
0.6410709164820849,0.265430838105721,0.4689669714978119,0.5021959561701508,0.2986645253867166,0.5000000000000036,1
0.6417448055549031,0.26471319108923486,0.46940250876098916,0.49441200912580935,0.3070935688821146,0.5,1
0.6418600392684446,0.2655257112677225,0.4689850638787072,0.5229537326084895,0.29751501506673184,0.5000000000000036,1
0.6433986863022434,0.26600432816241887,0.46938277695428576,0.5144614685844247,0.30402840770058126,0.49999999999999645,1
0.6423960830045305,0.2669151781933159,0.46900705662555997,0.4915650716642173,0.30441177747900294,0.49999999999999645,1
0.6424252927421497,0.26462648018631263,0.4693575878931035,0.5066143903072097,0.30441177747900205,0.5,1
0.6425239773644262,0.265579742328075,0.4690369430378126,0.5267669623854198,0.3055609882913479,0.49999999999999645,1
0.6427893414022228,0.26600177745967163,0.4693203977146715,0.5003479997477981,0.3036453374297998,0.5,1
0.6448641246201006,0.265425826721698,0.46908644683389883,0.5050071661157765,0.3051779180205654,0.488095238095255,1
0.6426002184149431,0.2656264857685565,0.46924751725894254,0.529762785312847,0.3021127568390318,0.4880952380952479,1
0.6450716413935949,0.26818145373942504,0.4692127248635824,0.5008241085656892,0.3070935688821148,0.488095238095255,1
0.6380080987879888,0.2628265348347571,0.46895162320925565,0.4949486142662012,0.3047948477497837,0.4880952380952479,1
0.6400603861209144,0.2667102846698588,0.4708183499287062,0.5253000200032641,0.3067104986113325,0.48809523809523725,1
0.6316263393225703,0.2567254013173287,0.4770479343519864,0.5124924953136626,0.30479484774978416,0.4880952380952408,1
0.62253942306652,0.24400845993805775,0.4723370042485858,0.4917712161260541,0.30824307920210003,0.48809523809523725,1
0.6223594246622539,0.23810936529834698,0.4645626000247878,0.5229724101648469,0.31015902957128705,0.4880952380952408,1
0.6182223922942462,0.23525440577518045,0.47229755891029246,0.5240521039454434,0.31169161016205393,0.4880952380952408,1
0.5984187842344462,0.21189614523852512,0.4747694960274194,0.491541066424583,0.31245775070361814,0.48809523809523725,1
0.5911530686270685,0.19671003910551815,0.4878068762479809,0.4963062115875637,0.31360726102360337,0.4880952380952408,1
0.5841285911123668,0.18805199397987432,0.4860960726621777,0.52052649092663,0.323952254888189,0.4880952380952408,1
0.5723120554960139,0.18313327567681442,0.46382557987333956,0.5107941321520854,0.331615157842023,0.48809523809523725,1
0.5709315875198178,0.1833107087471328,0.4272612320901602,0.52432589519042,0.33621289961432366,0.48809523809524435,1
0.5753975961919238,0.1884622967288161,0.416032201283095,0.5244223240368537,0.32816692638970757,0.48809523809523725,1
0.570587357957917,0.1916295267856004,0.41959906488566573,0.47927034562293136,0.33123178806360287,0.48809523809524435,1
0.6033381364476933,0.21613612096769147,0.4369796797734854,0.4871079095668598,0.3304656475220382,0.48809523809523725,1
0.6007341784489297,0.21143165476910974,0.45545954462949934,0.5324895545401943,0.33468031902355677,0.48809523809523725,1
0.5949839208768246,0.21333336010035037,0.47005054407022456,0.5259168100445034,0.3319982281128051,0.48809523809523725,1
0.6216107355895524,0.23177972303598665,0.47937052874400077,0.508568311264668,0.3335308087035713,0.4880952380952337,1
0.6079070576231818,0.22620042370018217,0.4739328425147564,0.5225931480989159,0.33199822811280555,0.48809523809524435,1
0.6169993444388318,0.22768995535607717,0.4669232033305207,0.5029324007511812,0.3346803190235563,0.4880952380952479,1
0.6176831577835975,0.23415663836456937,0.4650823469591144,0.5092256243677044,0.3339138789743539,0.48809523809524435,1
0.6173836991609243,0.23538424118952653,0.474983543118144,0.5091466827682893,0.331615157842023,0.4880952380952479,1
0.610552714749993,0.23139016911415497,0.4703321471420233,0.4901734693351997,0.33429694924513487,0.4880952380952266,1
0.6232697240367628,0.2371582472936002,0.46964060070424524,0.5286258197225447,0.33429694924513487,0.4880952380952266,1
0.6192302207146876,0.2337443384348819,0.4686474270451739,0.5126360752605756,0.33429694924513575,0.4880952380952337,1
0.6156695573212956,0.23326043353086007,0.46973904701466257,0.4993409024522278,0.33238129838358677,0.4880952380952266,1
0.6222250707404593,0.23489784625359558,0.4686439505549323,0.5297239922300746,0.3342969492451364,0.4761904761904816,1
0.6224545559216914,0.23594770608088542,0.4697296814266959,0.492665263162675,0.33276436865436865,0.4761904761904887,1
0.6207388500264253,0.23389416285950693,0.46864811448979615,0.5025958738800897,0.3362128996143232,0.4761904761904816,1
0.624466386133044,0.24039430356009106,0.46973948680764166,0.524998882100266,0.335829529835902,0.4761904761904887,1
0.6226488676533704,0.23798672832218998,0.468611754272838,0.49579583583289166,0.33544645956511965,0.47619047619047805,1
0.6238238707206514,0.23595956165200663,0.4698395704180753,0.5219451406174379,0.33506338929433843,0.47619047619047805,1
0.6203162047604347,0.23719167274305755,0.4682075697209622,0.520029773853144,0.3331477384327908,0.47619047619047805,1
0.6203216208616258,0.23417313114181185,0.4687157114910855,0.4908781253700712,0.33544645956512076,0.47619047619047805,1
0.6201720032443929,0.2350679372917782,0.46899929821657504,0.5245415760511636,0.3358295298359022,0.48809523809523725,1
0.6248632868438999,0.23432539608264588,0.4694929896784212,0.5112938164253158,0.335829529835902,0.4880952380952479,1
0.6253679413935807,0.23513160000239777,0.46881394160114803,0.49296774597624643,0.33621289961432455,0.48809523809523725,1
0.625671461681397,0.23594189530208806,0.4697239920354023,0.532772525701947,0.3362128996143241,0.4880952380952479,1
0.6249947682888957,0.23666927556633233,0.47037320464622034,0.5123783811500716,0.3346803190235563,0.4880952380952408,1
0.6248885653326293,0.2327851517262028,0.4740933579802796,0.4918071586089112,0.33812855047587265,0.48809523809523725,1
0.6172008107618785,0.23294786538964257,0.47372891390445937,0.5269736163666923,0.33774548020509054,0.4880952380952408,1
0.6188924842007284,0.23753891831579335,0.4716545604124807,0.5107656844530643,0.33812855047587265,0.48809523809523725,1
0.6249120423712788,0.24052040303939418,0.4714970008819321,0.49036700484052465,0.3381285504758722,0.5000000000000036,1
0.6253016147055006,0.24081171876654922,0.47074472312166793,0.5242400667123851,0.3377454802050903,0.5000000000000071,1
0.6216436160200922,0.23595369967790983,0.4704458203466885,0.5124512221340616,0.3388946910174353,0.5000000000000036,1
0.6237575448234105,0.23577391648597798,0.4728989287477253,0.4899781490094181,0.33889469101743663,0.5000000000000071,1
0.6238861802140387,0.23983097017029525,0.47018985833147453,0.5235923590456859,0.3388946910174364,0.5000000000000071,1
0.6253892588328793,0.24147808789962402,0.46913388638721915,0.5084716036321053,0.3392780607958572,0.5000000000000036,1
