wrist_ACC_1,wrist_ACC_2,wrist_ACC_3,wrist_BVP_1,wrist_EDA_1,wrist_TEMP_1,label
0.48055023539937475,0.28212001634743844,0.7290794539527589,0.4161041872995729,0.03823097317861033,0.7261904761904532,1
0.7570908948770388,0.587225132390965,0.9455557442156991,0.4671073888753154,0.03823097317861091,0.7261904761904745,1
0.8728265463572668,0.5236184769575152,0.9704561228649335,0.4635339441967086,0.03865570273314584,0.7261904761904887,1
1.0,0.43299438171805205,0.9425523140238494,0.39262884824909694,0.039080432287681426,0.7261904761905029,1
0.7704421488909519,0.23277521495990483,0.9111212901092092,0.37011739370123886,0.038655702733146106,0.7023809523809561,1
0.534079741772012,0.25800681055665686,0.8284842865136424,0.6289792450498735,0.03908043228768137,0.7023809523809561,1
0.34093581871749656,0.29292559981016575,0.8862323958788323,0.517855153190717,0.0373811819901387,0.7023809523809419,1
0.3278993553385111,0.34417296069267944,0.7541880755305946,0.34299521921407766,0.037381181990138006,0.7023809523809348,1
0.18912825988027337,0.41687406406452376,0.7047004590548502,0.5561238023788195,0.03610699332653231,0.7261904761904674,1
0.28447307059917815,0.5031306785476898,0.7422453969086347,0.46942746823828085,0.03653172288106731,0.7261904761904745,1
0.30810504265075944,0.4858491740366709,0.7902379429108599,0.27785108436830075,0.0361069933265322,0.7261904761904852,1
0.320478787104454,0.49349903562153175,0.7769243683091354,0.43601553036459273,0.03568226377199648,0.7261904761904745,1
0.33865094276201113,0.47845124235928604,0.817281841100286,0.43433307430011814,0.03525753421746141,0.7321428571428434,1
0.3400900094958802,0.4426655633160678,0.7894013148635988,0.4639373224397036,0.03525753421746098,0.7321428571428577,1
0.2895680557932315,0.4517096537799428,0.7769833249976283,0.4883644180758511,0.03483247258352427,0.7321428571428577,1
0.29020148576338445,0.4306983317216147,0.7519662079217366,0.4031493919944858,0.03483247258352503,0.732142857142847,1
0.3132198318505739,0.4738012427664221,0.7928953897339296,0.3404507678413068,0.035257534217460564,0.7261904761904425,1
0.35034443013831923,0.5075624487453105,0.807882595260654,0.4235934804158321,0.033133554365383254,0.7261904761904887,1
0.3747411369599752,0.4776041375116006,0.8261561017746561,0.4806814464105042,0.035257534217460994,0.726190476190478,1
0.36560854582898,0.48693786716795023,0.8141669203136322,0.41369918743776923,0.03525753421746151,0.7261904761904816,1
0.3620210988235478,0.5026131984021135,0.8222830925846694,0.5621182232441929,0.03525753421746126,0.7321428571428399,1
0.3677231818860976,0.5192209423392262,0.8179589233773574,0.3881493497025712,0.03568226377199656,0.732142857142815,1
0.3567235382214242,0.4845518511629767,0.8171144077032457,0.3824683902356019,0.03525753421746174,0.7321428571428648,1
0.35860550758322957,0.48946645618177587,0.8134809715834624,0.5397652913106293,0.03525753421746069,0.7321428571428399,1
0.3592949287122371,0.48330014316143755,0.8192453702855385,0.45537564862705926,0.03440774302898928,0.7440476190476311,1
0.3625177383855975,0.494306073041606,0.8118579391037068,0.33593780418108904,0.0348324725835241,0.7440476190476097,1
0.3595008999300799,0.4933155403750733,0.8206443570675666,0.5207742076198036,0.03398301347445374,0.7440476190476275,1
0.3616417279185883,0.4979760261080679,0.815346829935777,0.5335959660646652,0.03440774302898857,0.7440476190475742,1
0.36415144891252793,0.484728040481351,0.8248207799302139,0.40735212384631225,0.03440774302898913,0.7321428571428434,1
0.3669822756931917,0.4836261579716329,0.8190937542183354,0.46264697189093223,0.03440774302898871,0.7321428571428541,1
0.35823791917995007,0.4743394827551296,0.8193218487523399,0.516541068665538,0.03440774302898924,0.7321428571428328,1
0.3619717014427221,0.47309424149460544,0.8161266567226859,0.3945602630621765,0.034832472583524406,0.7321428571428577,1
0.3525089518233611,0.4666969839189218,0.8191168094524479,0.46901374983536936,0.03483247258352432,0.7321428571428328,1
0.3608747489659464,0.47387724915739315,0.8164463189984721,0.5301557126048773,0.034832472583524295,0.7321428571428612,1
0.36283858960106485,0.48329995029722184,0.8216122290489063,0.4062295175759803,0.03440774302898903,0.7321428571428434,1
0.37299992996963066,0.49448678606385504,0.8253796922427035,0.4208469109006606,0.03440774302898928,0.7321428571428434,1
0.36477378848004943,0.4828055251363068,0.8226391700057664,0.5302610824955034,0.03440774302898881,0.7321428571428541,1
0.3592001565495046,0.4814782738221691,0.8159375384582096,0.3930641948188311,0.03355828391991864,0.732142857142847,1
0.35116389420788713,0.4716494977321701,0.8149356945504236,0.4205887767296574,0.03398301347445302,0.7321428571428399,1
0.3431266108572488,0.4640650068852564,0.8092052593025638,0.5158365504383888,0.034407743028989184,0.7321428571428399,1
0.3522273350379591,0.4718036928909505,0.8134502866109516,0.48278331130638247,0.03440774302898885,0.7321428571428434,1
0.3467983288310752,0.46039620670969567,0.8126608155799182,0.3876096344089008,0.03440774302898871,0.7321428571428399,1
0.3510350631100782,0.4643479670213961,0.8138069744822982,0.49787169714858465,0.033983013474453684,0.7321428571428363,1
0.24330426926137372,0.4428768345381916,0.8120807955050473,0.5186911487649266,0.03440774302898878,0.732142857142847,1
0.2625085134889016,0.27293157665303275,0.7129914913175193,0.419268540793318,0.03440774302898885,0.7440476190476097,1
0.39059089940640673,0.14123634461667595,0.4943537616280148,0.3776543668006869,0.03398301347445327,0.7440476190475955,1
0.48990168013150315,0.044278364545750126,0.51177789541701,0.5320116092738287,0.03313355436538292,0.7440476190476062,1
0.3807063067573337,0.1997950766516944,0.7883009638571269,0.3882092827303693,0.0339830134744532,0.7440476190475991,1
0.37398141414883235,0.21005361503535214,0.8042048543838601,0.19408036573983412,0.033558283919918226,0.7321428571428434,1
0.2844712144952807,0.210805222577578,0.6212790294413751,0.34630294216283475,0.03398301347445363,0.7321428571428328,1
0.22758819764578953,0.20069572792996632,0.5124302854280273,0.5923865256341783,0.03313355436538253,0.7321428571428434,1
0.24205314799111644,0.21682832386385023,0.5299394694455943,0.7269524565142328,0.033558283919918365,0.7321428571428328,1
0.24216780082308598,0.19422394589285824,0.5037117006734668,0.3882772427587501,0.03100957451330396,0.7440476190476097,1
0.2266268066172643,0.18761237331066788,0.43244764837588273,0.4635553588707453,0.032708824810847255,0.7440476190476168,1
0.22282577199867803,0.18857392469501383,0.4653208747197106,0.415523988306402,0.03313355436538241,0.7440476190476168,1
0.24288012064710096,0.20013695146896157,0.5440335911285531,0.50851469492252,0.033558283919918074,0.7440476190476026,1
0.2401160988824269,0.1969703534769651,0.48753199360098715,0.48913588904144223,0.033133554365383004,0.7440476190476062,1
0.23497339451777677,0.18968152657058376,0.39962852427799733,0.33140212695096516,0.03355828391991791,0.7440476190476062,1
0.25099218835576087,0.19675346223302495,0.388297453595908,0.3443469835139572,0.0331335543653827,0.7440476190476204,1
0.22675941383846587,0.19321830703264217,0.3467667872186778,0.6885552749803602,0.03440774302898888,0.7440476190476168,1
0.2133917173455382,0.17172060932321875,0.4525298008089231,0.4651491604242243,0.0331335543653827,0.7738095238095042,1
0.4500256292861597,0.11323550802530458,0.6049837307470843,0.15167615303763338,0.03355828391991824,0.7738095238094971,1
0.3292295010664962,0.15264589248058513,0.6425964067391091,0.4873203624862276,0.03355828391991799,0.773809523809522,1
0.22724094438489661,0.21628874454845423,0.6161645762085669,0.560439225133113,0.033558283919918074,0.7738095238095326,1
0.24875837677489465,0.19682112582696426,0.572892195111282,0.5017781096610743,0.03355828391991831,0.773809523809529,1
0.23905012344088372,0.20769484274522818,0.5800053751170969,0.6401000616664249,0.03398301347445341,0.7738095238095113,1
0.18650831077813013,0.19297801363183373,0.49614216136111955,0.5157158899359431,0.03355828391991791,0.7738095238094971,1
0.38027181055910325,0.11991512313770575,0.4182032871026361,0.441722131708228,0.033558283919918226,0.773809523809522,1
0.2025136887651553,0.13915252399216282,0.40038682712438606,0.39604765383613216,0.033133554365382574,0.7738095238095006,1
0.5102199319211769,0.06530127202783809,0.28561394472574986,0.48579115977360804,0.033133554365382865,0.7738095238095006,1
0.5410385366066361,0.0,0.3634158097297691,0.38017783179505643,0.03185903362237511,0.77380952380949,1
0.4973823949120777,0.014958988657842454,0.34585435050743685,0.3538881383069828,0.03185903362237496,0.7738095238095042,1
0.5055092325529663,0.007260661295387161,0.3485267658302736,0.4635264697604061,0.0314343040678396,0.7738095238095148,1
0.44080215627439573,0.03437756038773515,0.3531141204653785,0.5145463099584234,0.03143430406783964,0.7738095238095006,1
0.4701723471211662,0.020684734655711745,0.35889167119500065,0.4573189525699973,0.03143430406783946,0.7738095238094971,1
0.4506532810597195,0.032915654233027,0.3573815150935423,0.3996439794821568,0.03143430406783956,0.773809523809522,1
0.47604104649729473,0.01704808069721797,0.3607472527400962,0.5053845724020753,0.031859033622375264,0.7976190476190652,1
0.4778139293481623,0.02043696499037445,0.35336718474351014,0.4811325397959254,0.031434304067839335,0.7976190476190155,1
0.481135996694228,0.014443640753462383,0.3551726976313623,0.42934396924439244,0.031009574513304307,0.7976190476190261,1
0.4858137451930376,0.020090900246640953,0.35395369651069564,0.42214452826098725,0.031009574513304154,0.7976190476190297,1
0.47394684952206423,0.023783057652125628,0.3528111799107442,0.4935329113194774,0.031859033622374695,0.8095238095237889,1
0.4656895451344129,0.025895067645654746,0.34247663618143337,0.47536919442885955,0.031009574513304335,0.8095238095237889,1
0.5138304650309892,0.0113030135889573,0.3389114243967761,0.39463454623966354,0.03143430406783947,0.8095238095237711,1
0.5030887071397132,0.016253283038923372,0.33787962206066435,0.4539420170027622,0.031434304067839765,0.8095238095237995,1
0.5034536932408156,0.010833469652101357,0.34952923050974033,0.5054308686118166,0.0314343040678396,0.809523809523796,1
0.49362014193448067,0.01639048824981365,0.3521754478608419,0.44154441850153253,0.031009574513304182,0.809523809523796,1
0.5051398008365013,0.010340347692700702,0.3558306308977436,0.4062879874027722,0.031009574513303877,0.8095238095237995,1
0.49423228674742636,0.014403479227439842,0.35260741539524343,0.4901775159611178,0.03143430406783942,0.809523809523796,1
0.49848911655530614,0.011023209865226535,0.3594566410431669,0.49242796572407765,0.031434304067839335,0.8095238095238138,1
0.4945108698400811,0.014712572877744967,0.3546363727198527,0.42947369593551865,0.031859033622375056,0.8095238095237995,1
0.4950243562239991,0.010115867630372866,0.36350482062052747,0.4018683367110074,0.03100957451330357,0.8095238095237605,1
0.4953676927248757,0.010756368790105553,0.3604087453353107,0.4954244960112961,0.029735053770296747,0.8095238095238066,1
0.4955938120903489,0.009764245888254086,0.3676374522960345,0.4790740166858634,0.03143430406783921,0.8214285714285516,1
0.49675678613121393,0.011609033076015796,0.35979875484155155,0.42261014791782847,0.03185903362237524,0.8214285714285801,1
0.4861131076621344,0.012009363427285757,0.36157213749040273,0.4457963318431535,0.03143430406783956,0.8214285714285552,1
0.5082081570628041,0.007745902547754979,0.3660194683604405,0.5008116091173777,0.032283763176910125,0.8214285714285587,1
0.6040173658987663,0.025062871053420865,0.2850288961228453,0.429961333205328,0.03143430406783964,0.8214285714285516,1
0.3736144013663769,0.10131111592215081,0.2360974117809939,0.4296748263940809,0.0310095745133041,0.8214285714285481,1
0.2950060663544969,0.139591262323702,0.37704291596315087,0.4880002690434728,0.0310095745133041,0.8214285714285303,1
0.2617767899732435,0.17114007607490478,0.44112017379285895,0.499517217778078,0.03143430406783942,0.8214285714285445,1
0.2558720695781117,0.1581688759634456,0.4178545287603626,0.45129255224936965,0.0305848449587691,0.8095238095237818,1
0.2473939476754088,0.16325447132609927,0.4124199471932999,0.41439319697618926,0.030159783324831373,0.8095238095237853,1
0.23581493815008725,0.17460667309528613,0.4918317320940763,0.4718302461960601,0.030159783324832136,0.8095238095238102,1
0.27784470844629894,0.1743939079857563,0.5177061408317323,0.4668987337628613,0.029735053770295942,0.809523809523796,1
0.3774415105947411,0.1381267509299513,0.6992184143976139,0.36907170281965673,0.03185903362237525,0.8214285714285658,1
0.3312189268964688,0.1887300291957812,0.731297728936119,0.45533796761077483,0.03270882481084728,0.8214285714285552,1
0.3518246371965184,0.17481033685754852,0.7365587117644352,0.5464523199397306,0.03228376317691028,0.8214285714285552,1
0.27250461002470827,0.248263282101961,0.6479486260660912,0.5987779226628798,0.03228376317691017,0.8214285714285907,1
0.2926794050753183,0.21579250073840653,0.6893238236499644,0.5079242439041134,0.031859033622375056,0.8214285714285658,1
0.492143726043441,0.17901729253351972,0.8036532149091382,0.34622842062224246,0.032708824810847074,0.8214285714285765,1
0.6136889531565425,0.18587413786807652,0.862693180128286,0.4696027656740915,0.0322837631769105,0.8214285714285658,1
0.35073614992324303,0.19946306789716192,0.6380487218010668,0.46491029827607167,0.03270882481084702,0.8214285714285339,1
0.09478565047709187,0.19467978948055922,0.43843825752081733,0.42270749502400945,0.03143430406783974,0.8333333333333144,1
0.2923560183637819,0.2242172160926537,0.5944213218056453,0.28046822805429017,0.03185903362237515,0.8333333333333179,1
0.23791273947469294,0.17393109043149924,0.5891135872045666,0.4329507143287324,0.03015978332483161,0.8333333333333073,1
0.4256613854562695,0.07171325145271462,0.3818651652147907,0.48619255470386197,0.030159783324832136,0.8333333333333179,1
0.39161997875155835,0.06400831581758537,0.3031833857518934,0.39104652124707046,0.028036135552154527,0.8214285714285587,1
0.2727603208604461,0.10478390724529829,0.4755874870550706,0.561783945254879,0.028885594661225762,0.8214285714285445,1
0.3494777480340496,0.1198097765615091,0.3680406187950883,0.5437688979779423,0.028460865106689805,0.8214285714285445,1
0.286204290408716,0.15002553425373594,0.36118732383081936,0.10820068330754917,0.030584844958768974,0.8214285714285658,1
0.31276382492690846,0.14359833073716993,0.3252866508881655,0.18639481503409178,0.02803613555215468,0.8333333333333108,1
0.31288807165533405,0.17046266949005723,0.3347184752770881,0.5464892358319741,0.029310324215761137,0.8333333333333179,1
0.4149069249602958,0.16311114364696266,0.17475344774428642,0.30895540947002775,0.030584844958768627,0.8333333333333144,1
0.47199084803384467,0.18020086203303765,0.17492563349030177,0.42220881567981383,0.029735053770296303,0.8333333333333144,1
0.526574575130383,0.1689610924107645,0.10365488903895531,0.6178544268817582,0.03058484495876871,0.8333333333333286,1
0.4930787496236778,0.20117597201931037,0.15067630158228518,0.5361264235229002,0.03015978332483179,0.8333333333333215,1
0.5400209410473954,0.19988555298759228,0.08944362106583698,0.4617687227907844,0.03015978332483194,0.8333333333333179,1
0.6130753413753978,0.22207890416032586,0.07200691910714097,0.6340972771607115,0.030159783324831525,0.8333333333332966,1
0.5864559934302378,0.22807805991600688,0.06121309264377456,0.4765385860291703,0.030584844958769113,0.8214285714285658,1
0.5492110098609332,0.21985678126492553,0.10709047821475853,0.5355520715077737,0.030159783324831373,0.8214285714285658,1
0.5856381739730518,0.21901288235654184,0.0781805131112498,0.5230487790527388,0.029735053770296567,0.821428571428573,1
0.6070184909377989,0.2225624510573525,0.07853566998996853,0.4897999430480068,0.030159783324831484,0.8214285714285445,1
0.6084788209914875,0.22024936884365648,0.06593716610958827,0.5485444857883719,0.030159783324831872,0.8214285714285516,1
0.5861601734266395,0.23307497594875748,0.07766102855362911,0.38933902033274714,0.02973505377029622,0.8214285714285232,1
0.5455943765883305,0.23297695757737832,0.07916985084495692,0.40645778524667003,0.02931032421576108,0.8214285714285445,1
0.49918492950847876,0.23491557897798507,0.0875819450625987,0.4036573770660608,0.029310324215760887,0.8214285714285552,1
0.5299968801674728,0.19728625574842015,0.10653772482986495,0.4349823279613494,0.028460865106689943,0.8214285714285658,1
0.6384513848680378,0.13104679149873288,0.12437767985895781,0.5016305306865604,0.028460865106690388,0.8214285714285445,1
0.6940709270464285,0.08518593914164713,0.14469789277511974,0.45917738559786364,0.02846086510669043,0.821428571428573,1
0.6778349454875952,0.08158166458594507,0.1512476430652856,0.4072907273593879,0.028036135552154694,0.8214285714285658,1
0.6222075676175719,0.08706667473183555,0.17233018481795404,0.4878384518652834,0.02803613555215482,0.839285714285694,1
0.6114776736771277,0.09800118063558205,0.15614699228349171,0.5032010119665286,0.02803613555215468,0.8392857142857011,1
0.41977054420031806,0.15242752631752304,0.1934773287418256,0.384538963861471,0.027611073918217897,0.8392857142856904,1
0.2919895468205209,0.17650110788019913,0.2922361810297782,0.3907868103023558,0.029310324215760984,0.8392857142857082,1
0.30089756989749405,0.19274599108700224,0.3023782740156711,0.4347835027531537,0.02931032421576115,0.821428571428573,1
0.30940359817595464,0.22231133731208563,0.24369410082185133,0.5391441757993742,0.029735053770296636,0.8214285714285765,1
0.3391395228320143,0.18609588513798983,0.2015800259358812,0.41341008280639296,0.029735053770296345,0.8214285714285587,1
0.3679698015108507,0.19399299484435037,0.20880367684331907,0.4225671718036299,0.02931032421576118,0.8214285714285552,1
0.368907456229086,0.15493064528121003,0.22238731879422918,0.5758214886912978,0.029310324215761192,0.8333333333333321,1
0.372531904352475,0.13901080245335146,0.27829760217699906,0.40146606066633456,0.02973505377029629,0.8333333333333073,1
0.4253112362782628,0.12404718953972016,0.30181967568614915,0.43356145181390604,0.029735053770296414,0.8333333333333179,1
0.377139136837739,0.1713875150351823,0.24299729672013232,0.45545939158229765,0.029310324215760887,0.8333333333333179,1
0.35235603024614537,0.2667921890448951,0.13638561562398283,0.46697367016278524,0.02931032421576097,0.821428571428573,1
0.3647428640494957,0.2700288586371238,0.1382233475242567,0.4260299141552763,0.03015978332483176,0.8214285714285481,1
0.3865283682120675,0.26343074562753177,0.17371949354957195,0.44192122517913845,0.029310324215761192,0.8214285714285445,1
0.36474564682652966,0.2846843341282311,0.12507905011003256,0.4860488813853153,0.029310324215761137,0.821428571428573,1
0.2793741495408206,0.312781047722534,0.24482387728516508,0.3212187337452358,0.028885594661225387,0.8214285714285374,1
0.2765715992327362,0.2952516177495119,0.19604149327168646,0.43097230837855666,0.029735053770296803,0.8214285714285801,1
0.35613887515029674,0.2670770302708056,0.2171037097716897,0.618108992815091,0.028460865106689832,0.8214285714285587,1
0.2364035908880623,0.30357902576432,0.30352967243382706,0.40319322609343955,0.029310324215761206,0.8214285714285943,1
0.19835554544592315,0.36057328088677143,0.258991035321137,0.39855697496637554,0.028885594661225415,0.8333333333333286,1
0.21685476393836278,0.3685966406881649,0.296955578165885,0.5463299512925688,0.029310324215761345,0.8333333333333535,1
0.2017822162270444,0.3697817423674405,0.3021239033340171,0.44842203823998694,0.028885594661225762,0.8333333333333286,1
0.20680145380991244,0.36603801560913024,0.31732287742716336,0.3996147436006963,0.0288855946612254,0.8333333333332966,1
0.2019036934950984,0.36500163572244354,0.299399952147138,0.48827500916976674,0.02931032421576108,0.8333333333333215,1
0.204817033359864,0.3696766325388247,0.3233511772977373,0.41418073490327634,0.02931032421576083,0.8333333333333144,1
0.19265440644816068,0.388835410929469,0.28613054553492195,0.4443967614495072,0.02888559466122608,0.8333333333333215,1
0.20364446021613702,0.35419363021440453,0.33263735187962984,0.5168102806946625,0.028885594661225138,0.8333333333333073,1
0.20770917608701978,0.3605474663509931,0.3170417304543892,0.4364750108081731,0.02931032421576129,0.8392857142857082,1
0.20017668926892174,0.36118276552536716,0.3160464344355314,0.4425036531540637,0.02846086510669015,0.8392857142856904,1
0.18639650642934835,0.36442259440273006,0.35082199153357924,0.5085591302806232,0.02888559466122561,0.8392857142857153,1
0.18663816412465306,0.3781769416570495,0.3548459831755526,0.4981137497059548,0.028885594661225304,0.8392857142856762,1
0.1788896784735151,0.37180284278724174,0.3602389457826442,0.41426799974418105,0.02888559466122572,0.8333333333333321,1
0.18270265297102117,0.36584995971247514,0.3600895391137634,0.43316495725165993,0.029310324215761054,0.8333333333333286,1
0.1793727252033942,0.3604762794952275,0.3585173986468122,0.42269127287955366,0.028885594661225637,0.8333333333333286,1
0.18532654763265366,0.35888637673859,0.3591171981695424,0.43582597623411734,0.02888559466122593,0.8333333333333144,1
0.17858921911242331,0.37003248648733067,0.36138331060539547,0.5289660637283883,0.028885594661225526,0.8333333333333144,1
0.17924633839822413,0.37344322979541295,0.36206247096450683,0.46068489178142846,0.028885594661225623,0.8333333333333179,1
0.17716224989598628,0.37622666891468376,0.3624606833825405,0.40115145300105726,0.028036135552154763,0.8333333333333144,1
0.18370920266686974,0.37121529982883267,0.35439210316281544,0.4594550404617518,0.028460865106690138,0.8333333333333286,1
0.17866498989408164,0.36128098618694515,0.3616827086577652,0.5011887421333765,0.028460865106690415,0.8333333333333286,1
0.18341263575577105,0.36129559476276607,0.3595977057865737,0.44170705458765114,0.028460865106690263,0.8333333333333073,1
0.1796751084819842,0.3584936638895803,0.36354874139279225,0.38421697609333816,0.028036135552154513,0.8333333333333073,1
0.1828330002166828,0.35828697934030906,0.35852445907169883,0.43997616005526174,0.02803613555215522,0.8333333333333321,1
0.17864679385904614,0.3720580424870022,0.3652407245379322,0.507633116828049,0.028460865106690235,0.8214285714285765,1
0.17936034530501965,0.37512098501832064,0.36265777286695255,0.43891551315296967,0.028460865106689985,0.8214285714285587,1
0.17491530565637314,0.37571347264284155,0.3661305058903247,0.4177935172544031,0.028036135552154985,0.8214285714285516,1
0.17466941054436314,0.37479060063325925,0.375539194178055,0.46757754376326593,0.028036135552154375,0.8214285714285552,1
0.17629555742629832,0.3673277890954817,0.373133001833606,0.49919485426873106,0.028460865106690346,0.8214285714285658,1
0.17632046231383047,0.36698288111542193,0.3764196229987852,0.42403587485434424,0.02633688525461124,0.8214285714285516,1
0.17281895760271382,0.3664256562655108,0.38232529572735474,0.4136736574925458,0.028036135552154985,0.821428571428573,1
0.17375420823594467,0.36700049444009186,0.38546770427407206,0.48529219801418555,0.027611073918217592,0.8214285714285481,1
0.16957310511384383,0.36792324055497866,0.38790462513622187,0.48245346863467864,0.028036135552154694,0.8333333333332931,1
0.17201146087995156,0.3681541325332141,0.38747135733254984,0.4124473119635579,0.028036135552155027,0.8333333333333215,1
0.17120799067478532,0.36602333083360966,0.390388003191428,0.4207797652682005,0.028036135552154652,0.8333333333332966,1
0.17446721357489614,0.3597417667851262,0.3890062066093384,0.4990513759242485,0.027611073918217995,0.8333333333333108,1
0.17211649936175155,0.3562460889468818,0.3855100662000161,0.46805301279377964,0.02761107391821773,0.8333333333332931,1
0.17490562528935005,0.35990142981662326,0.38768435650676575,0.39717838875851846,0.02803613555215504,0.8333333333333144,1
0.17212972519591085,0.35856505465511346,0.3833610656739648,0.4633324974841615,0.0280361355521545,0.8333333333332966,1
0.17144206788048744,0.36718879945635163,0.38662694591121805,0.5012955598427353,0.027611073918217884,0.8333333333333002,1
0.1695026816513182,0.376858845931542,0.38848136102668795,0.403524033420399,0.027611073918217564,0.8392857142857117,1
0.17124725928494444,0.3770001617452559,0.3905719715105749,0.4081408534070401,0.028036135552155207,0.8392857142857153,1
0.171664496890374,0.36656600091274205,0.3871151316899769,0.5128688794232806,0.0267616148091468,0.8392857142856869,1
0.17033608679147205,0.3682835550877991,0.39156007687391686,0.47462796248415706,0.028036135552155027,0.8392857142857082,1
0.16954804372160648,0.37251106770257325,0.3914933958991418,0.39687659960978594,0.02761107391821773,0.8333333333333321,1
0.17128695018331597,0.37048270566786046,0.39607616123607725,0.4541347445925723,0.02761107391821762,0.8333333333333073,1
0.16933598199635314,0.36543288146665587,0.39249748177637667,0.5308070164727583,0.02761107391821816,0.8333333333333215,1
0.17182771828791688,0.3658862681907375,0.3906665912761871,0.43019366801030295,0.02761107391821755,0.8333333333333073,1
0.17046831290866815,0.3619069575358452,0.3876791018808069,0.43707878198034605,0.02803613555215497,0.8333333333333073,1
0.1720116913143236,0.366780833158266,0.38780826621471315,0.4952971014526325,0.02803613555215479,0.8333333333333321,1
0.17197763469886174,0.36797529153028025,0.38209252866222365,0.486976958404415,0.025487426145541003,0.8333333333333073,1
0.1725010849724381,0.3676021375435782,0.38856868029165026,0.39197921506226313,0.02803613555215479,0.8333333333333144,1
0.1725074685196567,0.3614215704756691,0.38513724605518207,0.43754911995828155,0.02803613555215447,0.8333333333333215,1
0.1727158772855215,0.365257140829814,0.38677169214729984,0.49983620229079573,0.02718634436368233,0.8333333333333073,1
0.1697098652382697,0.3662835803944955,0.38533510217333977,0.48200654335536275,0.02761107391821798,0.8333333333333286,1
0.17178293731064986,0.3660859665871764,0.38935332811855605,0.42941901481427636,0.02718634436368262,0.8333333333333073,1
0.17473586358348614,0.35892770011266983,0.38580636686203584,0.42710536916931613,0.02718634436368244,0.8392857142856762,1
0.1733084480910979,0.36390802804794853,0.3833418223174042,0.48887124201235366,0.027186344363682606,0.8392857142856975,1
0.1720376990900132,0.35985462581142796,0.3862228855782032,0.44986766731053085,0.027186344363682467,0.8392857142856975,1
0.1731755208346456,0.37079024604017236,0.38795323860679026,0.41647453026466186,0.027611073918217884,0.8392857142856762,1
0.17062412790596937,0.3714531551494241,0.39176440004755064,0.4666084457080997,0.0271863443636823,0.8392857142857224,1
0.1702624376340407,0.3790524257042583,0.396054408452487,0.48928272875605766,0.027611073918218022,0.8392857142857224,1
0.16876530893291275,0.3763361403337644,0.39275849561061027,0.40899577718003755,0.027186344363682398,0.839285714285694,1
0.1714435795020537,0.36721520336202884,0.3951397363740953,0.4226700215657472,0.026761614809147218,0.8392857142857011,1
0.16931824815960572,0.36651376844623296,0.3873881539795194,0.49240106152654367,0.02718634436368266,0.839285714285694,1
0.1719160528969116,0.36705808919410493,0.38851426713663145,0.4735404131758044,0.026761614809147162,0.8392857142856727,1
0.17055744972207754,0.36632011884658855,0.3890567180743183,0.4086470698569349,0.026761614809147162,0.8392857142856975,1
0.17070600443221928,0.3672704770191539,0.3954102789566119,0.4569053174344635,0.026761614809146884,0.8392857142857082,1
0.16995979952212925,0.36605063486586215,0.38750653858207834,0.5028359133409064,0.026761614809147315,0.8571428571428577,1
0.17079190099147923,0.3677594086493603,0.3887671706389642,0.42403002113583227,0.02676161480914705,0.8571428571428221,1
0.16996488262912401,0.36277675226811873,0.38817668093341595,0.4203587830701988,0.027186344363682467,0.8571428571428434,1
0.17074247879358417,0.3647784155464745,0.38829850540762634,0.49074821176707756,0.026761614809147106,0.8571428571428363,1
0.17005419035162694,0.36795369516442084,0.39116431164958515,0.4588901400579238,0.026336885254611905,0.8571428571428505,1
0.17059795396371258,0.36701886297341424,0.3936517436986824,0.40155803468646145,0.02633688525461169,0.8571428571428505,1
0.17030150331060823,0.3664508754615175,0.3911063287592399,0.47562207378099963,0.026761614809146926,0.8571428571428505,1
0.17009078827783009,0.36455936294326824,0.3881304973206509,0.4976856655538897,0.026336885254611565,0.8571428571428186,1
0.17020625925783262,0.36582102446284254,0.39040771353823334,0.41593135412630433,0.02676161480914723,0.8392857142856975,1
0.17574713096050043,0.35895364360893767,0.3897685952221858,0.4295269898643745,0.026761614809146857,0.8392857142856975,1
0.17055235592311646,0.3598076071206634,0.3869840665567485,0.5069422542569861,0.025062364511604,0.839285714285694,1
0.1728246827656934,0.3606049018290669,0.38727554708146517,0.4534294047862718,0.026761614809146857,0.8392857142856975,1
0.16752469281095628,0.37354370549231436,0.3947615584412034,0.41084168313075575,0.026336885254611704,0.8571428571428363,1
0.16981258666896837,0.3765476374174802,0.39795851778879865,0.4839384178810562,0.026761614809147106,0.8571428571428328,1
0.16987646190951378,0.36957071425773247,0.3958389674036515,0.4892027115319961,0.02633688525461144,0.8571428571428505,1
0.1709418136789751,0.366442533797434,0.39668508635319977,0.41223762233019084,0.026761614809147106,0.8571428571428505,1
0.1698058155619664,0.36680315831178106,0.39599506809407664,0.42667736851485505,0.026336885254611454,0.8571428571428399,1
0.17090113903387505,0.3628832226793943,0.39523984956503194,0.4945259241131218,0.02676161480914748,0.8571428571428399,1
0.16989547144800576,0.362747570669496,0.395213157304915,0.45194727737574464,0.025062364511603548,0.8571428571428434,1
0.17076221941679115,0.36690708234359976,0.395805114494157,0.41647693928987517,0.026336885254612134,0.8571428571428115,1
0.17011472988221554,0.365107252495531,0.3958995328445225,0.4907698662051827,0.026336885254611538,0.8571428571428363,1
0.17072709246138007,0.36479477186151954,0.3906255124863446,0.46960096038011884,0.026336885254611364,0.8571428571428363,1
0.1716598319020537,0.36460653735120907,0.4002162618409745,0.4044672399487451,0.026336885254611662,0.8571428571428399,1
0.17540670503517952,0.36393058436166265,0.3733633834534026,0.462364027949771,0.026336885254611385,0.8571428571428541,1
0.1754890889363928,0.3659311449686359,0.37195798381159484,0.4923714046098947,0.026761614809147745,0.8690476190476062,1
0.1724829773002915,0.3673904233941581,0.3920990308312107,0.4166231713612334,0.026336885254611114,0.869047619047592,1
0.16992257547027811,0.3661029231550686,0.3856558328555716,0.43130544650981023,0.02633688525461187,0.8690476190475955,1
0.1750942212646016,0.36739632174251524,0.39073111216081957,0.49271351072945135,0.02591215570007628,0.869047619047624,1
0.17312420577722765,0.3660183682765096,0.3831612606826325,0.4430831074456635,0.025912155700076066,0.8571428571428612,1
0.17559749595404672,0.3662533430587378,0.3787429060235733,0.41113770277338085,0.025487426145540913,0.8571428571428577,1
0.1721858345053835,0.3651279099928249,0.3772762464599657,0.48752279440996915,0.02378817584799725,0.8571428571428505,1
0.1735915030052223,0.36777751366773054,0.3824786076327319,0.48676181244161654,0.02548742614554115,0.8571428571428577,1
0.17598772826654863,0.36574808642280593,0.3745074552526416,0.4046966166402739,0.025912155700075858,0.8571428571428221,1
0.18983175343582748,0.3688179436215426,0.36127836883528475,0.44282482173582133,0.025912155700076225,0.8571428571428399,1
0.19847430224385654,0.3672608382487831,0.30234891237383366,0.5057444475522732,0.02548742614554099,0.8571428571428399,1
0.21063564943536617,0.37277065959750644,0.2953726514823451,0.45955118976746717,0.02506236451160368,0.8571428571428221,1
0.2286073874053267,0.3626763587130971,0.2823865420031454,0.41848068856401666,0.02463763495706879,0.8571428571428363,1
0.22171895457892388,0.38299765547505643,0.2733269722658422,0.47548573361409097,0.022513655104989823,0.8571428571428577,1
0.2722714650732083,0.37521653444353853,0.23514738753646708,0.48840667150425254,0.02463763495706841,0.8571428571428434,1
0.3182368875136655,0.36077957914398767,0.1683828660681298,0.4344046784862995,0.02463763495706895,0.8571428571428505,1
0.34060295208641234,0.3790197499852302,0.15398273255083478,0.39822686535887925,0.02378817584799736,0.8571428571428221,1
0.39700466245143473,0.3697814908188643,0.11397398767562755,0.5070302803687889,0.024637634957068784,0.8571428571428612,1
0.36129453852687093,0.38364398318719306,0.1444203242624461,0.5052671256281831,0.0237881758479977,0.8571428571428505,1
0.3744807875415188,0.36469652569704736,0.11853965720782556,0.44582411896316093,0.023788175847997667,0.8571428571428399,1
0.3515022597192834,0.3616241810821292,0.15683037384420906,0.4167522178171764,0.024212905402533152,0.8690476190476133,1
0.42082505887573174,0.33354267364033946,0.07268847460341549,0.4118499360507248,0.024637634957068312,0.869047619047592,1
0.507701278532922,0.30975140732933765,0.0837001469210144,0.4600816141202149,0.025062364511604034,0.8690476190475955,1
0.45658202340819093,0.3401344667707574,0.10058346951481734,0.48500894930623184,0.025062364511603936,0.8690476190476026,1
0.4749289882236946,0.3204104168768869,0.06651988622546007,0.41686141180616965,0.02463763495706838,0.8690476190476168,1
0.459116251921298,0.32673037052521564,0.0968431152019591,0.29430984273562194,0.024637634957068846,0.869047619047624,1
0.47194925923796704,0.31244842545191437,0.08718777556461843,0.6242408688467134,0.02463763495706841,0.8690476190476346,1
0.4683897377828853,0.3195631801578427,0.0990728844864639,0.5729586685921233,0.024637634957068243,0.8690476190476133,1
0.4628387549308153,0.33415480340373055,0.08630568784465242,0.3097144540914704,0.02463763495706841,0.8690476190475778,1
0.4964163178224629,0.34622233322143825,0.06490934716622554,0.37958842950060456,0.025062364511603638,0.8690476190475955,1
0.48875024279300716,0.356710450325753,0.07109308401896924,0.5223103502175386,0.0246376349570687,0.8690476190476026,1
0.4776172636124532,0.359742084233438,0.0785168039869586,0.4726421022122224,0.024637634957068145,0.8690476190475742,1
0.4748982509525308,0.3581571288121308,0.08025193237543976,0.3814855112384883,0.024637634957068708,0.8690476190476026,1
0.46776558595433426,0.3595744090866415,0.07980831717321946,0.5139259928316351,0.025062364511603832,0.8690476190476026,1
0.46688952084196983,0.35824637572930285,0.08225117568163337,0.5779848971834024,0.02463763495706838,0.8690476190475991,1
0.4672235206284406,0.35950365190036593,0.0824403364186923,0.4770060159401813,0.024637634957068645,0.8690476190476026,1
0.4678449233010338,0.35830886239552645,0.08171024550366263,0.3871899019396718,0.024637634957068527,0.8690476190476133,1
0.46615744455383,0.3594460121218831,0.08577305164034538,0.43251795986976016,0.025062364511603874,0.8690476190475813,1
0.4680250467385118,0.3583637899122445,0.08268684137474752,0.4706035757805843,0.024637634957068562,0.8690476190475849,1
0.46717669665583117,0.35939181031231765,0.08432921654869774,0.4470817117085575,0.025062364511603805,0.8690476190476168,1
0.46630305955682694,0.3584195600444397,0.08154810698520987,0.3873795747341247,0.024637634957068506,0.869047619047624,1
0.46832379362918763,0.35933140097120864,0.08305076367692976,0.4730683333224129,0.025062364511603777,0.8690476190475991,1
0.4673392241700314,0.35848929098624976,0.08206551310813054,0.500095714432816,0.025062364511604242,0.8690476190476133,1
0.4742234833821844,0.359244211608312,0.07900516045930267,0.47173481376597315,0.025062364511603694,0.869047619047592,1
0.47250980738446174,0.358610357804628,0.0828429827249712,0.421776486074691,0.025487426145541066,0.8690476190475955,1
0.49574963466911603,0.35904864759915045,0.06872771351040624,0.39504765265404285,0.025062364511603687,0.8690476190476026,1
0.5243478495744356,0.35902351440464003,0.056494048104499206,0.4734729701429282,0.024637634957068444,0.8690476190475991,1
0.5081305072207201,0.3569314198155926,0.06786578146568495,0.482023064028722,0.02421290540253307,0.8690476190475955,1
0.5072300170987158,0.3530209737752189,0.06393819488829738,0.4313367390823663,0.024212905402533118,0.8928571428571281,1
0.49968266877373235,0.35296804466406195,0.06896067226601305,0.3653845357157675,0.024637634957068673,0.8928571428571281,1
0.5030310006408705,0.349870324464569,0.06466199327345251,0.47280982588021914,0.024637634957068145,0.8928571428571246,1
0.5027863573069267,0.3521137358218211,0.06907132314924158,0.5622051745928343,0.024637634957068437,0.8928571428571388,1
0.5012071063337027,0.34905486977737543,0.06743229898455377,0.4098389575571393,0.024637634957068416,0.8809523809523583,1
0.4981405082224299,0.35069502488399656,0.07010444295795398,0.424284943083222,0.024637634957068326,0.8809523809523654,1
0.5025196003802395,0.3506656331229379,0.06815108272956588,0.49938064978080343,0.024637634957068777,0.880952380952376,1
0.5062962119015808,0.35146871984124983,0.07002862334296805,0.4785554710149254,0.025062364511603485,0.8809523809523583,1
0.5014195045708922,0.35064405047765634,0.06822774484144917,0.44696385739649774,0.025062364511604,0.8690476190476204,1
0.498307881821016,0.3513385538916716,0.07002820117094294,0.38694589329513446,0.022938716738927084,0.8690476190476026,1
0.4997862251352212,0.35153157842039096,0.06676482635061132,0.47984753532516494,0.024212905402532646,0.8690476190476133,1
0.5001448720672688,0.35132184199402205,0.06928828582191193,0.4814304810498492,0.024637634957068708,0.8690476190476168,1
0.4980308859767474,0.34967682415563467,0.06869456520326106,0.4502259194608315,0.025062364511603527,0.8690476190475955,1
0.4988328285723291,0.351957643017196,0.0696080287272095,0.4065697920872548,0.02463763495706884,0.8690476190476133,1
0.49816107517557473,0.35021732712390063,0.06779280874240923,0.47768966773884564,0.024637634957068076,0.8690476190476133,1
0.49870487436461114,0.351849093280234,0.06943239036001658,0.49432230187145026,0.0242129054025335,0.8690476190476026,1
0.4991656102515007,0.3502165718102535,0.06869187619997014,0.43510642779048564,0.024637634957068354,0.8809523809523583,1
0.49928622121643523,0.35364226953618116,0.06813951579353422,0.4049713582461617,0.024212905402533333,0.8809523809523654,1
0.4943812662728595,0.35184602403558185,0.07391544556349733,0.5089908116774368,0.02293871673892668,0.8809523809523441,1
0.4925478350036711,0.35253654586798766,0.07118647630942071,0.47585597807590707,0.02421290540253307,0.8809523809523618,1
0.4906092514733269,0.3528871074566359,0.0721946748777933,0.430377374443781,0.02378817584799761,0.880952380952376,1
0.4875362326182466,0.3544269212133523,0.07339630722516349,0.3968772969250567,0.023788175847997722,0.8809523809523796,1
0.48838434556582827,0.3573426966320265,0.07598289534901231,0.5015855599179697,0.024212905402533305,0.8809523809523654,1
0.48018578745264634,0.3559716526374668,0.07596500023879083,0.4836801601136836,0.023788175847997667,0.8809523809523867,1
0.49195402281800826,0.352050662004319,0.0719995158763444,0.4672389724861278,0.022088925550454684,0.8809523809523618,1
0.5080142681159665,0.35014239896148736,0.06530710258709016,0.4090360768608027,0.02421290540253295,0.8809523809523405,1
0.4542747952145772,0.35084147450176173,0.08678518492904808,0.46713859758498333,0.024637634957068194,0.8809523809523441,1
0.42287892513030906,0.37096071166882183,0.10285648014545756,0.4704928536143712,0.024637634957068534,0.8809523809523583,1
0.4388244346862564,0.3670297156820485,0.09330011962338597,0.43401017471392767,0.024212905402532833,0.880952380952337,1
0.4694177685089662,0.35689656233876244,0.08220974511028051,0.4744899555102138,0.02463763495706879,0.8809523809523689,1
0.49031639119816495,0.3511190071444013,0.0740824324323423,0.577951441729322,0.02421290540253293,0.880952380952376,1
0.47484162403526176,0.35347455040929965,0.08369420791603216,0.4235426870174995,0.024637634957068805,0.8809523809523689,1
0.46464369822396373,0.35303735887131227,0.08151945982974629,0.3543101903565939,0.024637634957068222,0.8690476190475991,1
0.4769533789927921,0.35040262533417493,0.08296698837374611,0.336389003327152,0.02421290540253286,0.8690476190475955,1
0.474873417348345,0.35188071022031503,0.07863140609872415,0.42976455889766335,0.02378817584799779,0.8690476190475955,1
0.4894104373693921,0.35383419524784343,0.0743160063014458,0.5589307743373925,0.024637634957068194,0.8690476190476026,1
0.486438102973,0.3537369745769864,0.06985317777611699,0.4730356109761284,0.024212905402533284,0.8809523809523654,1
0.4702959987859291,0.35213021149022455,0.08314810274287793,0.4299371628514619,0.024637634957068617,0.8809523809523654,1
0.4610415365417008,0.35059943119682735,0.08632901880582494,0.4176416147098325,0.024637634957068333,0.8809523809523654,1
0.4546242381690933,0.3495303666883002,0.08705183258470506,0.46290455103326766,0.024212905402533264,0.8809523809523618,1
0.4515197710782856,0.350591236096937,0.09445719206685,0.5389781128099167,0.024212905402532896,0.8690476190475955,1
0.461977065040145,0.3507068229297868,0.08643566411863546,0.4498760668155455,0.024212905402533257,0.8690476190475955,1
0.47301079677170277,0.35022264183500484,0.07522530426801904,0.387053555598054,0.023788175847997542,0.8690476190476026,1
0.48136907775226867,0.35169538930630606,0.08040875004513515,0.47118657094279265,0.023363446293462202,0.8690476190475707,1
0.49191781763866166,0.35041858708427065,0.07075496948826099,0.4886288841778654,0.024637634957068534,0.8809523809523583,1
0.49587527133324766,0.3517091433262126,0.0737761541525368,0.4010715856768221,0.02336344629346216,0.8809523809523228,1
0.5010962414533078,0.3490246014291042,0.06737825336994135,0.37310363139856406,0.023788175847998062,0.8809523809523654,1
0.4989449629549603,0.35076071134358117,0.06944809183212741,0.5029305913369728,0.023788175847997542,0.8809523809523618,1
0.49926570041632906,0.35107783436754353,0.06683641302021132,0.4954736358859814,0.023788175847997618,0.8690476190475955,1
0.5011521522553957,0.3502664959138533,0.07044386079585474,0.45823549296275956,0.02421290540253334,0.8690476190476168,1
0.5064872539366698,0.3470928588331694,0.06808754638556974,0.42670326137526454,0.024212905402533236,0.8690476190476026,1
0.4983040457195735,0.35193028043656477,0.06802708237927829,0.5090204764679258,0.02463763495706845,0.8690476190476026,1
0.5046965937307042,0.3480904808040296,0.0669848272730435,0.49567253043263027,0.023788175847997535,0.880952380952337,1
0.5062249281932936,0.35044840633321994,0.06613219131393472,0.4544298698942386,0.024212905402532882,0.8809523809523618,1
0.5026209376779855,0.34881794171513464,0.06890814801342593,0.3905657278040327,0.023788175847997868,0.8809523809523867,1
0.5037975232516274,0.35052702230830063,0.06893231971983227,0.458001744152127,0.024212905402532882,0.880952380952337,1
0.5065202100124866,0.3490388655892146,0.06422396349371334,0.4994047933117095,0.02378817584799761,0.8809523809523974,1
0.5001416057025956,0.3516501099287625,0.06976554623156195,0.46547127583051306,0.024212905402532812,0.8809523809523441,1
0.5038507503041472,0.3496491764290831,0.06753233570678524,0.45283537811629343,0.023788175847997785,0.8809523809523583,1
0.5023968193375384,0.3513437278458663,0.06880311416978296,0.390831227796526,0.02378817584799748,0.8809523809523405,1
0.5102575135636827,0.35065634108942795,0.06350325765703169,0.46981019084687065,0.023363446293462133,0.8809523809523512,1
0.5079419567212793,0.35147284245440924,0.062080098663577055,0.48520523461718695,0.02336344629346216,0.8809523809523832,1
0.5102920565068956,0.3505813991585723,0.06263567111774199,0.4657947460534039,0.024212905402533305,0.880952380952376,1
0.5042101567548936,0.351430645240845,0.06259812334851417,0.3919391516265586,0.02421290540253307,0.8809523809523512,1
0.4807253751787174,0.348331329329568,0.08029904075096661,0.4626137496117677,0.023788175847997875,0.8690476190476168,1
0.461204083774172,0.3455798880504096,0.0862927050395732,0.4876965387766904,0.023363446293462077,0.869047619047592,1
0.4628429977149991,0.3469621861879816,0.08640891568328052,0.4677877411490364,0.02336344629346212,0.8690476190475955,1
0.462981086010531,0.3455867413036966,0.0828487189271499,0.4184080760765806,0.023363446293462667,0.8690476190476168,1
0.4313013033803626,0.34485627496470694,0.10616473275349697,0.4976052603813595,0.023363446293462348,0.8809523809523832,1
0.4187576693608068,0.3425370123116866,0.11065992128472624,0.4689425035126763,0.02378817584799804,0.8809523809523654,1
0.4485541253744373,0.3462581629989445,0.08844644674289764,0.42792357956100946,0.024212905402532854,0.8809523809523405,1
0.4782546241268162,0.34800962315507056,0.08076461498330989,0.38655124788485423,0.02378817584799784,0.880952380952376,1
0.5025007986620297,0.3496232009309004,0.06801510298413393,0.46065445400791943,0.02336344629346216,0.8690476190475991,1
0.5146225593049545,0.3515820631554636,0.0629354134536313,0.4736329813877354,0.023788175847997556,0.8690476190475778,1
0.5060632099914266,0.35056583916993056,0.06314683227593193,0.39851402983468265,0.023363446293462493,0.8690476190476026,1
0.5018837149404655,0.3514994954644923,0.06710462325070671,0.39114737968276975,0.023788175847997292,0.8690476190475955,1
0.4985242330638023,0.35059499645777403,0.06893584385384799,0.47751366979821397,0.023363446293462292,0.8690476190476062,1
0.4955178700548523,0.3514900465402469,0.07074050990796044,0.543239864136736,0.024212905402532868,0.8690476190475813,1
0.4959909723910876,0.3505936999037824,0.06928896324857031,0.4813960040733164,0.023363446293461994,0.8690476190475955,1
0.48991502376803636,0.3514990661626773,0.07359699902260497,0.42620115283760734,0.02421290540253311,0.8690476190476062,1
0.492473630237281,0.35057746050425326,0.07060309776514873,0.46852551649841767,0.021664195995918907,0.8690476190476026,1
0.4882901810440979,0.3515239011945043,0.0782080531980674,0.48398739764296916,0.023363446293462292,0.869047619047624,1
0.5087656627843422,0.3505400309323726,0.06490634072312645,0.4130271523724454,0.022938716738927056,0.8690476190476204,1
0.5274944085388689,0.35256468360631665,0.05789872638376187,0.41279993373034063,0.023788175847997535,0.8690476190475955,1
0.532091960016015,0.3504349536186975,0.05599229535143141,0.48222307431920375,0.02378817584799759,0.8809523809523441,1
0.523562122475757,0.3545897405289169,0.06085554340099092,0.47579257094332694,0.023363446293462285,0.8809523809523583,1
0.517779057593837,0.3544951910675139,0.06129678408027622,0.3838372556547064,0.023363446293462327,0.8809523809523547,1
0.5192196068504747,0.3562514077049101,0.06118044997414113,0.45487562395066944,0.022938716738926633,0.8809523809523654,1
0.5191928501551698,0.3569963676104599,0.06086375395659427,0.5403767264184364,0.02336344629346234,0.8690476190476026,1
0.5228923826673939,0.35954714655459624,0.0578794762489131,0.49384627646941537,0.02336344629346212,0.8690476190476133,1
0.5269629319821157,0.3547191510230592,0.05887660106449816,0.3839364608363781,0.02293871673892689,0.8690476190476204,1
0.5158494109840142,0.3596116816932454,0.06288797456695894,0.43163206212000954,0.02293871673892671,0.8690476190476133,1
0.5137113846346859,0.35903987735158804,0.06252500696864577,0.5023282672339386,0.02336344629346255,0.8809523809523796,1
0.5111465486843196,0.35898595382154885,0.062267359372881415,0.4516542420128476,0.023363446293462105,0.880952380952376,1
0.511196189966081,0.3587161596082076,0.06166286381716635,0.41239270343102363,0.022938716738926883,0.8809523809523654,1
0.5145548458750401,0.359108666180478,0.061581362728853006,0.4503581636897144,0.023363446293461917,0.8809523809523618,1
0.5099184115913125,0.3586477674316724,0.06146631167958516,0.51084604949755,0.02336344629346196,0.8809523809523654,1
0.5093779806081717,0.35915331636654496,0.062292526946091886,0.43589891180292795,0.023363446293462327,0.8809523809523796,1
0.5087272022242957,0.3586158312565175,0.06479931193270272,0.42387225433251524,0.022513655104989795,0.8809523809523583,1
0.5093492197813415,0.3591776090784189,0.06277719674380022,0.47466678006442337,0.02293871673892689,0.8809523809523441,1
0.5088638939338093,0.35859648118743565,0.06401728787237548,0.47925454676547524,0.022938716738926862,0.8809523809523583,1
0.5075494569563004,0.3591936122075323,0.06315381253610469,0.4085732719681186,0.02336344629346218,0.8809523809523441,1
0.5075779252060904,0.3585828011961479,0.06343972902135447,0.448127049547056,0.023363446293462327,0.8809523809523832,1
0.5098040524842916,0.35920567679437054,0.06197413735556706,0.48701345106291205,0.022938716738926807,0.8809523809523796,1
0.5084002011614588,0.3585718234869424,0.061103689104744674,0.47032424005224616,0.023363446293462292,0.869047619047624,1
0.5097309614781141,0.3592159990972267,0.06198814340692155,0.3999818226113202,0.021664195995919032,0.869047619047624,1
0.5082807649899168,0.35954278153541863,0.06116335684134239,0.44879257486124846,0.0237881758479978,0.8690476190476026,1
0.5110958498699274,0.35922619783080156,0.06300436469085974,0.5007060776278536,0.021239466441383588,0.8690476190475955,1
0.5081792454773731,0.35855095275306204,0.0608858867275936,0.4430074246089892,0.023363446293462174,0.8571428571428328,1
0.5126950151126415,0.35923825477271804,0.06220279355793873,0.4067645412622365,0.023363446293462396,0.8571428571428186,1
0.5140217614361992,0.3585366965080197,0.06083355529254986,0.4880656246797913,0.02378817584799757,0.8571428571428221,1
0.5144552089875623,0.35925634238955795,0.06131250328202853,0.49112500320165736,0.022938716738926973,0.8571428571428328,1
0.5107949514648352,0.3585115364019392,0.06208415589036992,0.4187914866981809,0.022938716738926244,0.8690476190476026,1
0.5131634542623045,0.35929659959864624,0.06181124975543978,0.4320181860850028,0.022938716738927098,0.869047619047592,1
0.5145097240136592,0.358425698408067,0.061120797860522935,0.49904866271284465,0.022938716738926737,0.8690476190476026,1
0.5116075785946079,0.3612045738952316,0.06213791193722601,0.4690914010981891,0.02251365510499001,0.8690476190475778,1
0.5125924702900437,0.35862003300333956,0.06031336244598401,0.4169174054667149,0.023363446293462008,0.8809523809523441,1
0.5161418455410896,0.35932613025880933,0.06028658980533086,0.43009925258977866,0.023363446293462237,0.8809523809523547,1
0.5105179951442897,0.3594860214457741,0.06228732918137464,0.5034146197211979,0.022938716738926848,0.8809523809523441,1
0.5192887501620459,0.3593190544208008,0.06121328964599487,0.4442580887364768,0.02293871673892657,0.8809523809523689,1
0.5137131881125285,0.3595937146590407,0.060356429310439774,0.41716592984095424,0.022513655104989788,0.8690476190476168,1
0.5090784154168437,0.35890578374282045,0.06434922234621204,0.4620247521508087,0.02293871673892714,0.8690476190476204,1
0.5091327975784126,0.35880364624220545,0.060194510989454664,0.49896723522533604,0.022938716738927,0.8690476190475991,1
0.5089525156723167,0.35899040943364485,0.06488761938150944,0.4249063419785388,0.022938716738926862,0.8690476190475991,1
0.5092210925349265,0.3588162313824823,0.06228980946272994,0.42716618675884044,0.022513655104989844,0.869047619047592,1
0.5088110063277571,0.35889033883137933,0.0628836062688003,0.4862544632220041,0.02251365510498976,0.8690476190475955,1
0.5083543371127719,0.3591280053534851,0.061182468514316746,0.48587838141076684,0.022938716738926702,0.869047619047592,1
0.4870092383565143,0.3568175476081865,0.07091186023165613,0.40759966569452616,0.022513655104990073,0.8690476190476133,1
0.4449193575165675,0.3498529560579041,0.09761888618827863,0.4240732751156575,0.022938716738926848,0.8690476190476133,1
0.4370023190907398,0.3502857374702169,0.0992678714581437,0.4852818991698318,0.023363446293462133,0.8690476190475991,1
0.4361598220675122,0.3490655826024457,0.10034333535377254,0.4911404352750401,0.022938716738926827,0.8690476190475778,1
0.4435080388263805,0.34968115283268053,0.0946191378775108,0.43995029348517445,0.022938716738926487,0.8690476190475778,1
0.4439919357921389,0.34955304479587246,0.09693706111882422,0.4523485659862031,0.022938716738927126,0.8571428571428292,1
0.44894777588203005,0.3516123811480619,0.0928982757228447,0.4284817448934284,0.0225136551049896,0.8571428571428541,1
0.4565342585892228,0.3505124244183449,0.09055812258294332,0.4317697787474685,0.02293871673892671,0.8571428571428505,1
0.455137566433048,0.3516145557865352,0.08912750742156039,0.4249153712545643,0.02293871673892705,0.8571428571428505,1
0.46391235233057265,0.35020211176127986,0.0863767428894322,0.46705141782269316,0.022938716738926758,0.8690476190475955,1
0.4676996932760005,0.3506507637141213,0.08050982947587576,0.49544879913094997,0.02293871673892691,0.8690476190475955,1
0.4749994679759364,0.3508383229218089,0.08384475183306378,0.45881062669066935,0.02293871673892659,0.8690476190475813,1
0.47553224554440154,0.3520510185418328,0.08102294574770902,0.3977955965815249,0.023363446293462327,0.8690476190476168,1
0.46968970451258035,0.3540767519967976,0.08425611194488825,0.46562986953517893,0.022938716738926494,0.8690476190476133,1
0.46014103540878665,0.35515729658909534,0.08917947150764177,0.5005147120042688,0.022938716738926994,0.8690476190476026,1
0.4593113104095286,0.35391061890960207,0.08502568142189354,0.4877803130956249,0.022513655104989663,0.869047619047592,1
0.4629546423476358,0.35387347231652344,0.0835027420904913,0.4321590569910513,0.02293871673892689,0.8690476190476026,1
0.4667889859153305,0.3561520415615721,0.08374050678740874,0.48377742376757604,0.021239466441383636,0.8571428571428363,1
0.4689384741997906,0.357825824043457,0.08034448483222567,0.4626770140124071,0.022513655104989927,0.8571428571428292,1
0.47088174351669987,0.3578735951392471,0.0817131173748259,0.3892548996057881,0.02081473688684845,0.8571428571428434,1
0.4780116811810104,0.35971357025577877,0.07936134309184345,0.41037902907033774,0.022513655104989518,0.857142857142815,1
0.4744918005838886,0.3535693819702486,0.08185545579455233,0.4940516766944918,0.020389675252911625,0.8690476190476204,1
0.519998578095316,0.36139585993492346,0.06223974773929358,0.49884051556787046,0.02251365510498969,0.8690476190476062,1
0.4846239043759954,0.3611111418547969,0.07207065029182946,0.44362113932472735,0.022513655104990163,0.8690476190475955,1
0.4987030409409923,0.36349854218958566,0.07020670778370819,0.39807415333749147,0.022513655104989996,0.8690476190476204,1
0.49820751550120873,0.36509897459570395,0.06404359007208293,0.48091073694244146,0.022088925550454504,0.869047619047592,1
0.4953930979039674,0.3662731635246387,0.07173268929761767,0.5008174693355716,0.021664195995919046,0.8690476190476062,1
0.49935798326242425,0.36705157903724156,0.06764899462321494,0.47369392239781744,0.022513655104989747,0.8690476190476204,1
0.49797192433616,0.365682194593072,0.07063201550921067,0.37173752572909724,0.02166419599591906,0.869047619047592,1
0.49876231528195014,0.3666404154728697,0.06765653621266488,0.4179985157002939,0.0220889255504546,0.8809523809523547,1
0.4983318981922005,0.3668075777626944,0.0705765835467645,0.49121884468024407,0.021664195995919032,0.8809523809523583,1
0.4985177341492472,0.36666613729129355,0.06717268060382242,0.474541263821735,0.02208892555045463,0.8809523809523583,1
0.4984253982657331,0.3668179742289277,0.06982058719260492,0.4198444791463148,0.021664195995919004,0.8809523809523618,1
0.4962466945444841,0.36666717536466875,0.06817625495035523,0.4181773241245943,0.02208892555045433,0.869047619047592,1
0.4982929265257643,0.3667558315922131,0.07006424108428538,0.4938513178602232,0.02251365510499022,0.8690476190476204,1
0.49730723282969075,0.3656107578644966,0.06824561810499175,0.4731239063355051,0.022088925550454122,0.8690476190475849,1
0.49495900755084,0.3670469640668723,0.06890679442098141,0.42625576855536185,0.02208892555045449,0.8690476190475991,1
0.4980183634013801,0.36643018545121353,0.06711596506030065,0.4399624643875558,0.021664195995918914,0.8690476190475813,1
0.4978191542772143,0.36716405787002365,0.06835803574509974,0.49506611535622286,0.022088925550454726,0.8690476190475813,1
0.49922562503581247,0.3655145283819864,0.0664395280163827,0.4583980707584781,0.021239466441383643,0.8690476190475955,1
0.4971304197863553,0.36546403541826167,0.07002073681538684,0.4073984520833061,0.021664195995919136,0.869047619047592,1
0.5057860024557714,0.36522657486718396,0.06416955071008845,0.44795644437605076,0.02166419599591883,0.8690476190475991,1
0.5414060742159286,0.3584975986094527,0.055928600328544964,0.5030266708304252,0.021239466441384004,0.8690476190476026,1
0.549997876233191,0.3561326545348683,0.05051873742379881,0.4441719238462651,0.02166419599591897,0.8690476190476026,1
0.5568342679233754,0.35992319192250577,0.048251474554886764,0.4139477418250624,0.02081473688684851,0.869047619047592,1
0.5565759814222895,0.3571806460358623,0.0427248618208349,0.46836345775399063,0.021239466441383408,0.869047619047592,1
0.5306536525780203,0.3583920415194948,0.05636830842417867,0.4521340592041531,0.0208147368868484,0.8690476190476026,1
0.5338772303329673,0.3617075643713191,0.05194142351646702,0.40107095309629986,0.02081473688684806,0.8690476190475991,1
0.5423949733558783,0.3586479302350082,0.055721695218436784,0.526839159741709,0.02081473688684831,0.8690476190476204,1
0.538102485480643,0.35914067826034346,0.051920787755513564,0.5021372286737471,0.02081473688684843,0.880952380952376,1
0.5347749645022182,0.35857782218273004,0.059056396848542136,0.4897151337850739,0.019964945698375945,0.8809523809523547,1
0.5204442014230868,0.35938254304697315,0.05656154126636931,0.4025555059755657,0.020389675252911313,0.8809523809523583,1
0.512540019371815,0.3574090530401966,0.06624198118001678,0.40113261898775643,0.020814736886848255,0.8809523809523547,1
0.48910130571102317,0.3583368496629799,0.06829061254036733,0.523006129693129,0.020814736886848338,0.8690476190476026,1
0.45042257836306704,0.34986401244607057,0.09086117964246876,0.4896263358774937,0.01869075703476953,0.8690476190475955,1
0.44894519869887295,0.34516886482588593,0.10050397199778938,0.45772141513634873,0.020814736886848276,0.8690476190476168,1
0.4482618176415133,0.3518237557735777,0.08599609151902815,0.42437128724806716,0.01911548658930494,0.8690476190476026,1
0.4502523315010913,0.3504410436998273,0.09059611370867815,0.4923476020333195,0.020389675252911167,0.8809523809523512,1
0.4526843257153365,0.3515220060124863,0.08858900581279905,0.3515436024311619,0.02123946644138372,0.8809523809523547,1
0.4523701916628425,0.3506516732139899,0.09227048490611728,0.38267704338995956,0.020814736886848262,0.8809523809523547,1
0.46361370202694163,0.35136086355982726,0.08900350443074417,0.43046748188066225,0.02123946644138386,0.8809523809523547,1
0.5061263213035525,0.3508108870057307,0.06331345552335665,0.4950297402749235,0.021239466441383435,0.8690476190475813,1
0.5331717948994041,0.35092627937463755,0.05240288490175632,0.5404596043798529,0.020814736886848685,0.8690476190476382,1
0.5204173185000334,0.35127271161381235,0.06526491958649039,0.4615386895335109,0.020814736886848026,0.8690476190476133,1
0.5128042534427371,0.35075278703187057,0.06225270192591764,0.36034060266673607,0.020814736886848317,0.8690476190475955,1
0.5229804274845807,0.35015402168220566,0.05951656636686403,0.40386234868196574,0.02081473688684808,0.8571428571428541,1
0.5274494561945254,0.351250136218774,0.06141494782293089,0.4918844815077263,0.020814736886848366,0.8571428571428399,1
0.516992292552475,0.3514047502139648,0.06530942508367077,0.5629846378179122,0.021239466441383893,0.8571428571428221,1
0.5187743124560159,0.3517674890885888,0.05822519745473037,0.41726091716790525,0.020814736886848165,0.857142857142815,1
0.5086882519495661,0.35155534340109845,0.0667194688365711,0.43157799507962796,0.020389675252911202,0.8690476190475955,1
0.5151526680967675,0.3528618350735179,0.060315068978052666,0.5037000124549474,0.020389675252911264,0.8690476190476026,1
0.5193902146473046,0.35653339244316606,0.060807691502179684,0.47242132827989913,0.020814736886848165,0.8690476190475991,1
0.5196248724833387,0.35333938561489564,0.06055512616865094,0.39223534617517936,0.01996494569837607,0.8690476190475813,1
0.5221526428025767,0.3516068782833689,0.061142413577662924,0.457982596627233,0.02038967525291139,0.8690476190476026,1
0.5321409800129583,0.35662599307097786,0.05653597077764211,0.48993617814737306,0.020814736886848352,0.8690476190476062,1
0.5342905067690236,0.35841526989359396,0.05560760796764552,0.4578103070430179,0.020814736886848595,0.8690476190476026,1
0.5293552710069305,0.3594195612075289,0.05566143585917227,0.4064065064419075,0.020814736886848054,0.8690476190475955,1
0.5312744608799306,0.35837796265856947,0.0573158733253068,0.4569277452083619,0.020389675252911507,0.8809523809523583,1
0.5263668033568334,0.35937986309099856,0.05857251072485953,0.4924064514204535,0.021239466441383845,0.8809523809523547,1
0.5150717492278496,0.35843194987006266,0.060467770641814134,0.4310501132045567,0.020814736886848012,0.8809523809523583,1
0.5086490412861056,0.3593129391880387,0.062056831463942086,0.4245524124457242,0.020814736886848824,0.8809523809523903,1
0.5103951183241757,0.3585412084502172,0.060801037223184085,0.49410800732846305,0.020814736886847658,0.8690476190475955,1
0.5023123886764276,0.3588810418865144,0.06808726483858618,0.4837364484100398,0.020814736886848706,0.8690476190476133,1
0.49155627734501434,0.35715618565235435,0.07508949266318254,0.416338267178192,0.020389675252911153,0.8690476190475778,1
0.4864865607697619,0.35871187988783243,0.07165702445457661,0.4234907465549336,0.02081473688684865,0.8690476190476133,1
0.492279002465719,0.35759528339436797,0.07124017195232185,0.4921360136879588,0.0208147368868484,0.8690476190476026,1
0.4944325602374405,0.359794600841696,0.07038361818689431,0.47691418403963337,0.02081473688684806,0.8690476190476133,1
0.48654719894343074,0.35670465548582125,0.0741299536351297,0.42153942846219283,0.020389675252911292,0.8690476190475955,1
0.48864984224782226,0.3551618518095405,0.07222105991955075,0.43876926468278726,0.020814736886848685,0.869047619047624,1
0.4880974675136486,0.3572081043774707,0.07050775149414318,0.4815525701736072,0.020814736886848206,0.8809523809523654,1
0.49914291960472573,0.35671483888986494,0.068116555641406,0.4282106020379192,0.020814736886848643,0.8809523809523654,1
0.49727829771987925,0.3582362410527651,0.0700523209155321,0.435767721116436,0.02038967525291118,0.8809523809523441,1
0.501869801473676,0.35849231603887144,0.0679574122479068,0.49415085299698075,0.020389675252911424,0.8809523809523583,1
0.5044355491682901,0.35817530224436356,0.06768065926607564,0.47038859889106727,0.0203896752529115,0.8809523809523689,1
0.5060999683661501,0.35842519828362523,0.06278016546927434,0.4070225875729249,0.01996494569837593,0.8809523809523583,1
0.5094499286022478,0.35845563802106895,0.06314285446571133,0.4372577816440105,0.02038967525291168,0.8809523809523796,1
0.5084083499116321,0.35923483663228256,0.06491443476300263,0.5059274966580496,0.019964945698375487,0.8809523809523618,1
0.5004288167058482,0.35738655354987603,0.0691857300261911,0.4521423031819419,0.020814736886848435,0.8928571428571246,1
0.5074570973378019,0.3564636547815271,0.06332416250657646,0.42767879625244376,0.020389675252911174,0.8928571428571352,1
0.5097991547354463,0.3587606272708328,0.06504002842504053,0.48161851718340104,0.02081473688684879,0.892857142857121,1
0.5194587667540398,0.3577409516598127,0.059755774540125206,0.49574933728066367,0.020389675252911257,0.8928571428571033,1
0.5199256454941567,0.3576362386381406,0.06028279392395486,0.43763464447405703,0.020389675252911424,0.8690476190476133,1
0.519814847235913,0.35871089717659077,0.059424731307086864,0.39570296000753,0.02038967525291157,0.8690476190476204,1
0.5180738348661006,0.35820925202831355,0.06070164854511717,0.47441879000461207,0.02038967525291103,0.8690476190475955,1
0.5200580755183242,0.35950757106119574,0.06089900966261996,0.4803959068952315,0.02038967525291125,0.8690476190475991,1
0.5123756486149977,0.3583531401118275,0.0646052182241546,0.43873684515834,0.019964945698375945,0.8809523809523654,1
0.508829082746941,0.35914285525907635,0.06467499293479556,0.4210691164762553,0.020814736886848338,0.8809523809523867,1
0.5046003928650642,0.357458999219256,0.06658784660853029,0.47571241203352943,0.019964945698376237,0.8809523809523654,1
0.49671589151689766,0.35806341995124924,0.06793022578892316,0.4658718214775675,0.020389675252911285,0.8809523809523654,1
0.48877591353091465,0.35233452777705365,0.07327469547871152,0.42075027650217306,0.0203896752529117,0.8690476190476026,1
0.4879249698252647,0.3567564981973186,0.07424847351223185,0.44763701099979136,0.01996494569837562,0.869047619047592,1
0.4873298683500761,0.3589801366059204,0.07725319069980197,0.5017045841893186,0.020389675252911528,0.8690476190476168,1
0.4941063631837996,0.3587376525567648,0.0705807365239347,0.48164916362321,0.01996494569837607,0.8690476190476275,1
0.5070914610679071,0.35680038902147904,0.06179964341770078,0.4349275295637816,0.019964945698375834,0.8928571428571423,1
0.5050707254357194,0.35743104612365,0.06547176029216162,0.4102082046564509,0.0199649456983755,0.8928571428571068,1
0.4996732283027776,0.35802348739725953,0.0695726803346598,0.48201511352385745,0.01996494569837607,0.8928571428571246,1
0.504521081238175,0.35716901478821145,0.06622210611555235,0.4410811874410082,0.018690757034769523,0.892857142857121,1
0.5084872116798997,0.3561350930760707,0.06586150729411228,0.38926230992107935,0.019964945698375862,0.8809523809523583,1
0.5046950454987666,0.358076436810037,0.06853309936343815,0.4631950768342769,0.019964945698375945,0.8809523809523654,1
0.5009849532047921,0.35520185208168875,0.06612244268007139,0.5110903262725902,0.02038967525291123,0.8809523809523583,1
0.5000820353671762,0.3579701689171981,0.06796906170794176,0.44398346523510157,0.01996494569837596,0.880952380952376,1
0.5019976868249554,0.35604684530447855,0.0690530549444332,0.41122522379351406,0.01996494569837562,0.8690476190475813,1
0.49859471507572495,0.3565972959035355,0.06814694270518634,0.47164247312013974,0.01996494569837627,0.8690476190475955,1
0.5011978739811738,0.356444519615295,0.06948146395776494,0.5034722879094108,0.019964945698375758,0.8690476190476062,1
0.5000465294513621,0.3559680360307079,0.06801137049007361,0.4195261084866435,0.019540216143840633,0.8690476190475742,1
0.5081374954571907,0.35976934127266075,0.06474275794923628,0.4219859395172689,0.01911548658930507,0.8690476190476026,1
0.5088719945514945,0.35811682101818776,0.06493584470348673,0.4950310746601311,0.019540216143840515,0.8690476190476168,1
0.5095320697326773,0.3584235492920076,0.06403018586507253,0.48596475486627955,0.0195402161438406,0.8690476190475742,1
0.5074604394282914,0.35849689412386976,0.06537205011986863,0.4285525744780282,0.01954021614384055,0.8690476190476026,1
0.5063210668022274,0.35683836542420955,0.06643409520053672,0.4149785214309634,0.019964945698375786,0.8690476190475955,1
0.4924940203375958,0.35502277822889794,0.06848536739727024,0.49385853927912055,0.019540216143840772,0.8690476190476026,1
0.4808776204755563,0.35088679458095157,0.07937411179889947,0.48380966548507665,0.018690757034769613,0.8690476190476346,1
0.4677168207389915,0.35109318209977314,0.08981706714973048,0.4189528239497519,0.01954021614384103,0.8690476190476062,1
0.4711467129514149,0.3499568373425757,0.07990266898673076,0.43199671597127487,0.01996494569837573,0.8690476190475813,1
0.4765797366517643,0.3512417482801887,0.08002382748393044,0.502637688891371,0.019964945698376042,0.8690476190476168,1
0.47956179337461213,0.3534605811398663,0.0789060749989996,0.49526977440474856,0.019540216143840404,0.8690476190475849,1
0.4994059251609332,0.35357461056017736,0.06971492210637231,0.41210040341847975,0.019115486589305265,0.869047619047592,1
0.5071756424530612,0.35761746657352356,0.06380125752608928,0.3937988261621392,0.01954021614384057,0.8690476190476133,1
0.5099620357188718,0.358412809237218,0.06190163438204621,0.5134711918735315,0.019115486589304884,0.8690476190475671,1
0.5080812260798326,0.35907661879224023,0.062441519170824356,0.5056925806935455,0.018690757034770085,0.8690476190476133,1
0.5102487278701868,0.3586965608913971,0.06473234828950297,0.37326867872518976,0.0191154865893048,0.8690476190476026,1
0.5074813582606892,0.35916977378629694,0.06178197636618532,0.4030353871895028,0.019540216143840904,0.8690476190476062,1
0.5113238271615796,0.35839633696547785,0.06500623736556282,0.5416680228398665,0.01954021614384044,0.8690476190476204,1
0.49072103426882363,0.36083683300455477,0.06731337396417864,0.4907840915521448,0.019540216143840647,0.8690476190476026,1
0.4933777676217813,0.3576606115301161,0.07622309962782353,0.42377536928708714,0.019115486589305446,0.8690476190476133,1
0.4924682467840429,0.3584560723397865,0.07132027224135179,0.39683517649400596,0.019115486589305168,0.8690476190475955,1
0.47212794453744344,0.3597342417475883,0.08006079452869386,0.4924104949726083,0.01954021614384091,0.8690476190476026,1
0.4834363520683664,0.36036117198295137,0.07499687948021266,0.496084986596243,0.01869075703476942,0.8690476190475849,1
0.4865930064342508,0.3607855855101308,0.07292168122767284,0.4680316193232375,0.019540216143840862,0.8690476190476204,1
0.4895942247537768,0.35943590843092715,0.07576541105218632,0.3848946978842108,0.01869075703476921,0.8690476190476026,1
0.4877991539409566,0.361584601209187,0.07144856255809784,0.41912390415506945,0.018690757034769863,0.8690476190475849,1
0.48856284901875763,0.3579388413744768,0.07441486220585936,0.46257218313147996,0.018690757034769773,0.8690476190476204,1
0.48731375651313213,0.36095739337982946,0.07406902714004765,0.4537238200974571,0.018690757034769606,0.8690476190476062,1
0.4884194059375462,0.3593760369628977,0.0756957682731112,0.4122761445521146,0.018690757034769696,0.8690476190476168,1
0.48740995729361203,0.3598312240699801,0.07388956757151954,0.4606345900923143,0.018690757034769655,0.8690476190476026,1
0.4883192225733514,0.35937107105315025,0.07632731017595618,0.49515944811540386,0.01954021614384059,0.8690476190475991,1
0.4875432028715154,0.3594120305404338,0.07287923759249404,0.44830433280876475,0.018690757034769488,0.8690476190476026,1
0.4885756845690183,0.35932235541533997,0.0723755056764353,0.4182423932839201,0.01911548658930532,0.8690476190475813,1
0.48524179542178303,0.3594727799954147,0.07383379855816391,0.4821164264802157,0.018690757034769488,0.8690476190475813,1
0.4872084700171844,0.35908831555000215,0.0762635390529226,0.4889282232740377,0.01911548658930546,0.8690476190476133,1
0.48637353929969335,0.3608151199133585,0.0741931835867039,0.41519881856750207,0.018690757034769474,0.8690476190475991,1
0.4885094390372158,0.35830862248474227,0.07524198142155097,0.42056060542920676,0.01911548658930544,0.8690476190476133,1
0.48737916494660866,0.3593000850089833,0.0733551915527838,0.5055451724134105,0.01869075703476953,0.8690476190476204,1
0.48832497063834673,0.3588469821450084,0.07229205887667778,0.4779082912126736,0.01869075703476987,0.8690476190476204,1
0.4876724861551103,0.36002945186065144,0.07376373847397072,0.4314660589808879,0.018690757034769474,0.8690476190476026,1
0.4897488162174119,0.35946646214522615,0.07241109677870244,0.393556950498731,0.019115486589305182,0.8809523809523583,1
0.4867734020089179,0.36121239042214665,0.07337300955039239,0.4942328320433942,0.019540216143840508,0.8809523809523654,1
0.48859100296348795,0.3594867277589404,0.07239416634343598,0.4852213683332712,0.018690757034769488,0.8809523809523654,1
0.4887145459689629,0.359293138760658,0.07070821103484859,0.45691059389425787,0.016566777182691186,0.8809523809523654,1
0.48868001185537935,0.35837221333009195,0.0731150373754696,0.40276461284753456,0.018690757034769634,0.880952380952376,1
0.4870797828594222,0.35948102026466516,0.07169240923565984,0.48452430502537086,0.01826602748023419,0.8809523809523547,1
0.48887987472321226,0.35818789652277083,0.0703734675200664,0.48377410479362887,0.01784096584629751,0.8809523809523618,1
0.485818211999325,0.36017534078645086,0.07316350678190026,0.4572308754248559,0.018690757034769655,0.8809523809523299,1
0.4929592651126338,0.35929580937250577,0.06917988068694969,0.3926922819146391,0.017840965846297255,0.869047619047592,1
0.49434050456035683,0.36131491296475116,0.06921089529093577,0.46891380316602677,0.01826602748023453,0.8690476190476168,1
0.49554706449492547,0.3616471896265803,0.06901582349324459,0.4898130671297346,0.018266027480234315,0.8690476190476133,1
0.49732988283498414,0.3608865455742706,0.06919960357999183,0.4679984698263407,0.01826602748023428,0.8690476190476026,1
0.4986979261588595,0.36072852220463486,0.06904084710777703,0.40044347912717293,0.018690757034769558,0.8690476190476133,1
0.49733970039446357,0.35914202289439057,0.06917601190638129,0.43802199591944696,0.018690757034770078,0.8690476190476204,1
0.4981164286330646,0.36066178123523185,0.0690606892122616,0.4967086885466742,0.017840965846297276,0.8690476190475955,1
0.49800110717596136,0.36064361700740266,0.06916006911929584,0.46575177525596556,0.01826602748023419,0.8690476190475849,1
0.4974922117836552,0.3591418839295231,0.06907291570159563,0.41803288476683065,0.01826602748023414,0.8690476190475849,1
0.4973645975173834,0.3605145812874455,0.06915149118761948,0.4504054218406414,0.01869075703476987,0.8690476190476133,1
0.49635178364245774,0.35856352607155995,0.06907761211373137,0.4932295398758617,0.01826602748023437,0.8690476190476168,1
0.49641857693279345,0.3610314878257194,0.06915141763543031,0.45111312429266975,0.018266027480234315,0.8690476190476062,1
0.49860158869337007,0.359649871639984,0.0690713826152849,0.4011933049347051,0.017840965846297387,0.8809523809523583,1
0.49845868595321063,0.3591967872710757,0.06916767633389187,0.46377962817076324,0.018266027480234315,0.880952380952376,1
0.498434200283891,0.358401597927289,0.06903585036468257,0.49681923259963634,0.018266027480233975,0.880952380952337,1
0.4986238967779478,0.36077773867870894,0.06925243126651892,0.44802544702856034,0.018266027480234787,0.8809523809523547,1
0.49786356903733475,0.3610740153863609,0.06870595593506812,0.3944286468445551,0.01784096584629724,0.8809523809523618,1
0.49593284346483063,0.36367447100988165,0.06833100296191447,0.45938555019092014,0.01826602748023471,0.880952380952376,1
0.49913923168361873,0.36252231196909646,0.06936129903816479,0.5022288464786914,0.017840965846297158,0.8809523809523583,1
0.4979737859409343,0.3608553609164823,0.06894817299708844,0.4596615126271426,0.018266027480234683,0.8809523809523583,1
0.4989300603091358,0.3650953405834796,0.06924764326104199,0.4056897661123334,0.017840965846297088,0.8690476190475955,1
0.49803006486629525,0.36079477507043833,0.06899770128732113,0.4665754051069275,0.01784096584629781,0.8690476190475955,1
0.4989292973150191,0.363426525856156,0.07016183719582736,0.5067928262701744,0.01741623629176195,0.8690476190475955,1
0.4979992735454485,0.3663569779681695,0.06903173851839628,0.4667310062824762,0.018266027480234343,0.869047619047592,1
0.49898471518298826,0.3633365562144759,0.06913100444272063,0.4175319881020666,0.01571731807362088,0.8809523809523689,1
0.4979193150896549,0.36474085834970055,0.06803442104676694,0.4065998044871057,0.017840965846296943,0.8809523809523583,1
0.49909389224027584,0.364036246878022,0.06938814885264671,0.5020348753168822,0.01826602748023448,0.8809523809523583,1
0.497770396122464,0.365313929962266,0.06886654518316554,0.47105582902384824,0.018266027480234134,0.8809523809523299,1
0.4993039886571197,0.3652891296513632,0.06937811629063545,0.452851445059163,0.01784096584629717,0.880952380952337,1
0.49744854402734257,0.36475243836340554,0.06879586886082761,0.3980303080401426,0.017840965846297192,0.8809523809523405,1
0.49993838026435194,0.3648102307329892,0.06957821661684349,0.49377527240269714,0.017840965846297498,0.8809523809523689,1
0.49823127579250254,0.36638783934490265,0.06775575750766988,0.47434956060753397,0.017416236291762206,0.8809523809523867,1
0.5005657183587235,0.3637692760056232,0.0672437969643282,0.4501177562335865,0.017840965846297303,0.8809523809523334,1
0.4981834365655298,0.3603975813906173,0.06641634834047078,0.393616573228584,0.018266027480234648,0.8809523809523441,1
0.5127195044331583,0.3589325510335301,0.06288829875906066,0.49332535842551334,0.017840965846297394,0.8809523809523547,1
0.5296914341102736,0.35905414804055813,0.057480812806308734,0.4557292552560909,0.01826602748023428,0.8809523809523512,1
0.5406162456912549,0.3587139566948818,0.05379937120876521,0.4781570888716067,0.017840965846297706,0.8690476190476168,1
0.5426509707317761,0.3590471069309841,0.05403090357654322,0.374719536250543,0.018266027480234308,0.8690476190475991,1
0.5401451849572931,0.35878572892277844,0.05397163687165546,0.4157792211016117,0.017416236291762192,0.869047619047624,1
0.5428156993560354,0.35888527263134823,0.05398941106785443,0.46882193542311135,0.017840965846297414,0.8690476190475849,1
0.5397419051297634,0.3594911248721291,0.05393612556527527,0.5212278572584271,0.0174162362917622,0.880952380952376,1
0.5417150406778468,0.3595040120021925,0.05424266877197148,0.4411242783094989,0.017416236291762033,0.8809523809523654,1
0.5445899367290794,0.3610370299899908,0.05192732316362447,0.4601213234788549,0.017416236291762026,0.8809523809523441,1
0.5465126364761297,0.35976259497219715,0.05012610174509441,0.4873737876940718,0.017840965846297643,0.880952380952376,1
0.5529454008467587,0.3616701860233957,0.05039388267906625,0.4657738315627659,0.017416236291762026,0.8690476190476026,1
0.5577591311273652,0.36044962387411267,0.04558537035090304,0.39619714980042986,0.017840965846297394,0.8690476190476026,1
0.5545613618221382,0.36098689292966935,0.04846091665731911,0.46931470771192874,0.017416236291762255,0.8690476190476204,1
0.5528668429279064,0.36297257262772725,0.04883758084831785,0.4922317459309434,0.0174162362917622,0.869047619047624,1
0.5523850365223791,0.3602744086973651,0.050939645052843874,0.46326070980010237,0.017416236291762206,0.8928571428571281,1
0.5446312771805235,0.3628342419024744,0.052468539184232776,0.3925375530249984,0.017416236291762123,0.892857142857121,1
0.5382816196728555,0.3643383248372614,0.052751909572146705,0.46347131936993646,0.017416236291761984,0.8928571428571423,1
0.5416172668857341,0.36358419482494014,0.05311901384527101,0.4867151373765802,0.016991506737226394,0.892857142857121,1
0.5394515283724329,0.3633146520824626,0.05520724842957275,0.45789743286786583,0.017416236291762255,0.880952380952376,1
0.5329842859158747,0.36386285279719244,0.05583268335549679,0.3820877420588863,0.01699150673722618,0.8809523809523583,1
0.5301750160429435,0.3623636189872726,0.05439658439068712,0.456630469849147,0.017416236291762532,0.8809523809523974,1
0.5350673349936972,0.36288849851475025,0.054472950867826775,0.49786026538943107,0.016991506737226235,0.8809523809523405,1
0.5362638252352743,0.36294327726267367,0.05364505687453891,0.4757676014346309,0.017840965846297352,0.8690476190475742,1
0.5370344030699101,0.3637235198901432,0.0542168006308264,0.39529993471487485,0.01741623629176206,0.8690476190476026,1
0.5381923815586642,0.36374152741199195,0.05364559415776432,0.4588379936755745,0.017416236291761894,0.8690476190476204,1
0.5367667165289278,0.36323770552642926,0.05442493822886685,0.49139056819369553,0.017416236291762095,0.8690476190476062,1
0.5341002238945287,0.3656518400939734,0.05358769479344866,0.4734345690483536,0.016991506737226457,0.8690476190476026,1
0.5314816734345049,0.3617312869357853,0.05442053459806223,0.4024616306560214,0.016991506737226623,0.8690476190476026,1
0.5319665583653399,0.3596531642086396,0.05337680811905776,0.4552876118609956,0.017416236291761977,0.8690476190476204,1
0.5302892157290069,0.35897196549833427,0.05554324198476035,0.4936403667629096,0.0169915067372267,0.8690476190475742,1
0.5297528335738504,0.3590067554811044,0.05689245947887667,0.4660115918970191,0.016566777182690867,0.8690476190475955,1
0.5319753215476155,0.35993593757935755,0.05349856016189092,0.4022765247222861,0.01784096584629779,0.8690476190476133,1
0.5297392454043748,0.35857060229141824,0.054252744355247684,0.470055785317735,0.017416236291761776,0.869047619047592,1
0.5341188701370909,0.3591146173731406,0.05379405887845001,0.49447546735840003,0.017416236291761866,0.8690476190476062,1
0.5312259724578419,0.3587194708192479,0.0541305399067028,0.46170966478418474,0.01741623629176229,0.8690476190475955,1
0.5327300131639564,0.3590274246791764,0.05385649266311199,0.4100848527035505,0.017416236291761818,0.8690476190476026,1
0.5306496452248162,0.3587598677365628,0.0540963138896029,0.4194611086194574,0.01741623629176206,0.8690476190476133,1
0.5312517109661093,0.35959834756962605,0.053874654273663336,0.4962356742761756,0.017416236291761783,0.8690476190476062,1
0.5307042916324451,0.3596922534712807,0.054088919557330195,0.47587725138411663,0.016991506737227192,0.8690476190476204,1
0.5302096750855196,0.36135825342253836,0.053873334136155304,0.43092697958206394,0.016991506737226506,0.8690476190476133,1
0.5301023363221726,0.35934010656847815,0.055044926140446426,0.4001599490910376,0.017416236291762068,0.8690476190476062,1
0.5304376684764464,0.3592557838042051,0.053850779758698286,0.48441863342992153,0.01656677718269154,0.869047619047592,1
0.5299446802741268,0.3623621478011505,0.05414440250254221,0.49280222458926864,0.01656677718269106,0.869047619047592,1
0.5305945780098895,0.36200218514679733,0.053745239900766406,0.42172330277255204,0.016991506737226672,0.8690476190476026,1
0.5297015070183261,0.35834029431439596,0.05461454286540329,0.4007507076012732,0.016991506737226332,0.8690476190475991,1
0.5322346815057295,0.3603558558918719,0.05456435645898394,0.49322236631966293,0.016991506737226846,0.869047619047624,1
0.5316832337393658,0.3581006923949072,0.05378572058661252,0.4931378842451972,0.016991506737226318,0.8809523809523405,1
0.5313598386956992,0.36012393867768355,0.05413012950703883,0.4334879035684552,0.017840965846297643,0.8809523809523796,1
0.5295557269722431,0.3591927418086489,0.053792653982253025,0.39948492036221184,0.016991506737226263,0.8809523809523405,1
0.5315988216850449,0.36107545845648004,0.05455053521287523,0.481272694973168,0.01699150673722709,0.8809523809523547,1
0.5315607460960613,0.3600699725108556,0.054635138303779474,0.49214655461310824,0.01656677718269091,0.8690476190475813,1
0.5310508247417541,0.36323954876237835,0.05371811006762656,0.4234299851286791,0.017416236291762234,0.869047619047624,1
0.5321794198187791,0.36090046577919294,0.0541775687609784,0.41963248874628595,0.016566777182691242,0.8690476190476026,1
0.53113344617779,0.36119755983003077,0.053812650694411324,0.5013793867299985,0.01656677718269172,0.8690476190476168,1
0.5313804748390138,0.3584023534593825,0.05413978014028037,0.49368499260050164,0.016566777182690798,0.8690476190476133,1
0.5325132777619808,0.36219284740904706,0.05383738028477053,0.42161952052717283,0.016991506737226714,0.8690476190475955,1
0.5326989120470192,0.3600143850139635,0.05409144934410032,0.39773571420024567,0.016991506737226728,0.8690476190476026,1
0.5321395365556538,0.36222225374261735,0.05467330868303377,0.4993464644608611,0.01699150673722684,0.8690476190475955,1
0.5324730119654295,0.3592825170796905,0.05437464240245177,0.500887432047811,0.016991506737226603,0.8690476190476026,1
0.5312688276345214,0.36039212327105696,0.05361303683192581,0.4408225870819684,0.016991506737226512,0.8690476190475955,1
0.5302433846538025,0.35985144813004866,0.05441702277246874,0.3990902776053089,0.016566777182691526,0.8690476190476204,1
0.530491528173298,0.36027232629811695,0.054293698547325075,0.4734155506806444,0.016566777182691214,0.8690476190476026,1
0.5298793463980332,0.3590217355667815,0.05605883999499084,0.49262371244614106,0.016566777182691554,0.8690476190476168,1
0.5337866150745708,0.35998502101984564,0.05566458040129846,0.4189886460054252,0.016566777182691186,0.869047619047592,1
0.5372669538185884,0.3580955557121539,0.054506641746551676,0.4235778851360928,0.016566777182691117,0.8690476190475813,1
0.5402581659502608,0.3596049664110501,0.053701918274474014,0.4987231601628588,0.016566777182691443,0.8690476190476133,1
0.5387757792309558,0.35822207904488496,0.05483060434654624,0.4977221008669811,0.016566777182690957,0.8571428571428505,1
0.5358769106389676,0.35953059295394924,0.05424422419323177,0.39051035239635584,0.016566777182691513,0.8571428571428541,1
0.5316233232375943,0.3582750811044544,0.0542767667300868,0.37801488963183555,0.01656677718269104,0.8571428571428363,1
0.5295698277615511,0.3594891472172965,0.05480944942049226,0.5301609433490587,0.014867526885148391,0.8571428571428541,1
0.5315255210537302,0.3583092532798655,0.05370102987238118,0.500728829709613,0.016991506737226575,0.8690476190475955,1
0.5313702571297858,0.3594599998214968,0.05435132781273927,0.4332832894562979,0.016991506737226575,0.8690476190475778,1
0.5309064884077155,0.35833471100223996,0.05524606058841841,0.42015787949516337,0.01656677718269149,0.8690476190476204,1
0.5299177305374312,0.3594373677965668,0.05444949175627817,0.4882899706444099,0.016991506737226512,0.8690476190476026,1
0.5304349074093766,0.3583551120548122,0.053793001644605154,0.47456366372422754,0.016142047628156027,0.880952380952376,1
0.530078347130051,0.35941877027525115,0.054600713035031945,0.41038989166911055,0.01699150673722656,0.8809523809523583,1
0.5303319159801458,0.35837222109309086,0.05479225710930852,0.429389557709965,0.016142047628155798,0.8809523809523583,1
0.5301612869480679,0.35940291739302443,0.0560660817178984,0.5005250479989813,0.016566777182691207,0.8809523809523547,1
0.5302557549189056,0.3583869808881643,0.054572950341930326,0.45868874539163873,0.016142047628155687,0.8809523809523405,1
0.5302388224606962,0.3593891574812079,0.053487481220355015,0.4024746439010142,0.01699150673722688,0.8809523809523583,1
0.5301683761060074,0.3583997456356089,0.055178731291355976,0.48651383790239144,0.016566777182691235,0.8809523809523583,1
0.5303496774672005,0.35937752212018753,0.05381487871062013,0.500573200361487,0.016566777182691103,0.8809523809523654,1
0.5300030322541294,0.3584098590620512,0.05506446696172823,0.4673665705214582,0.01614204762815582,0.8809523809523654,1
0.5306754030284561,0.35936987368528667,0.053825195276375026,0.40070763049968483,0.016566777182691172,0.8809523809523583,1
0.5285222047278944,0.3584127523982499,0.05602314615521148,0.4233263973382429,0.016142047628155846,0.8809523809524009,1
0.5279010018423892,0.3593779755030322,0.05779148296323944,0.490533878779676,0.01571731807362029,0.8809523809523832,1
0.5251085115409424,0.35837188600322345,0.05824889537580036,0.47177271499526313,0.01614204762815602,0.8690476190476026,1
0.5219573372463313,0.3595894024024765,0.059026081261246977,0.41158096826511653,0.016566777182690957,0.8690476190476062,1
0.5220265310194496,0.3606532105014617,0.05960448008214281,0.4374469516053964,0.01656677718269149,0.8690476190476168,1
0.5236748088769516,0.35983395759317516,0.05903370214998488,0.5021257481410805,0.016991506737226394,0.8690476190475955,1
0.5215406080677066,0.35857271056506684,0.059681336728937495,0.4696685432521606,0.01656677718269147,0.8571428571428648,1
0.5251951466982521,0.359093103007673,0.05655218765690634,0.4055702193187378,0.017416236291762206,0.8571428571428505,1
0.5228885821442182,0.35896455566012,0.060149827552794466,0.40283385179026704,0.016566777182690902,0.8571428571428577,1
0.526251219437193,0.3620077709352714,0.05472196994609513,0.5044197846520023,0.016566777182691374,0.8571428571428328,1
0.5274027418951641,0.360139617961362,0.055675263607202596,0.4650204374754961,0.014867526885147891,0.8690476190476204,1
0.5249703396059698,0.3609233914813274,0.0603455549884076,0.452679397380868,0.01699150673722699,0.8690476190476133,1
0.5260582007476333,0.36016814988866863,0.05461424912202989,0.4062545804020547,0.014867526885147773,0.8690476190475742,1
0.5186990451037448,0.360398337776973,0.05990301906607304,0.47448853100804694,0.016991506737226797,0.8690476190475991,1
0.5035471001049545,0.35800629589781346,0.06864749940865983,0.49319466052130856,0.016566777182690895,0.8690476190476026,1
0.5078901983175559,0.3596314005868503,0.06279853863029544,0.4492877244600683,0.016566777182691346,0.869047619047592,1
0.5085497350501136,0.35821665481099924,0.06498958342016375,0.39774795030569593,0.016142047628155798,0.869047619047592,1
0.5080448001121592,0.3595288310709945,0.06498429073292922,0.4928741516293519,0.016566777182691186,0.8690476190475991,1
0.5094471841562145,0.35827794506048005,0.06343973674696513,0.46850400973376927,0.016566777182691603,0.869047619047624,1
0.5088221203783588,0.359488338315462,0.06420792471860176,0.4051508528327217,0.016566777182690978,0.8690476190475955,1
0.5092200153978828,0.3583061506278902,0.0626547031069804,0.4399134482259151,0.016142047628156242,0.8690476190476168,1
0.508948848201097,0.35946824687771023,0.062533617476693,0.49775146273105364,0.016142047628155604,0.8690476190475955,1
0.5091307331891272,0.35832038337641026,0.061733563266862024,0.48319935957628257,0.016142047628156304,0.8809523809523689,1
0.5090214995318014,0.35945859557410065,0.06239596486443516,0.4180736037953271,0.013593338221541684,0.8809523809523512,1
0.5090643308764836,0.3583261661370565,0.061031721629295044,0.42341378403020574,0.015717318073620666,0.8809523809523654,1
0.5090898955987231,0.3594563392114324,0.06200056575484836,0.5061341804568048,0.01529225643968353,0.8809523809523654,1
0.508981392188961,0.35832495283193555,0.0610205889210772,0.4698174430572395,0.0157173180736203,0.8690476190475991,1
0.5092286822193073,0.35946123162457616,0.06293666576165374,0.4198917567903736,0.01571731807362064,0.869047619047624,1
0.5063925244010417,0.3583158684583383,0.06423117755636265,0.43059245726517453,0.016566777182691048,0.8690476190475991,1
0.5089699656170474,0.35947543312934943,0.06307381652502952,0.5067914714524812,0.01614204762815588,0.8690476190475778,1
0.5089493187939309,0.3582949799298452,0.06400553786847568,0.47551784455502905,0.015717318073620506,0.8690476190476204,1
0.5077036509320203,0.3595057151586987,0.06475347840622742,0.41302601815093987,0.01571731807362007,0.8690476190475991,1
0.5093882685955395,0.358250329354438,0.062311382536779536,0.4518972757048741,0.015717318073620555,0.8690476190475991,1
0.5067461502112073,0.3595750090988897,0.06399982170115415,0.5066658593055149,0.015717318073619993,0.8690476190475813,1
0.49821737651356435,0.35813043990446625,0.0697811061275484,0.4611444235666715,0.01571731807362064,0.8571428571428328,1
0.49830855380444905,0.3598427560115587,0.06990911247963333,0.4219849357307737,0.015717318073620222,0.8571428571428186,1
0.49745429513265205,0.3551117777556107,0.07006294126497492,0.39134603306195226,0.015717318073620437,0.8571428571428505,1
0.487464447728985,0.35237698834043857,0.07090745129796472,0.5003864919761841,0.01571731807362066,0.8571428571428221,1
0.4818091158381001,0.34924307125769855,0.0800282176123861,0.47134105477919264,0.016142047628155902,0.869047619047624,1
0.4474529012668965,0.34945007754263535,0.09470252690249065,0.4266470989155677,0.016142047628155583,0.8690476190476026,1
0.5108561090214678,0.3457900436004453,0.07185963543543156,0.3518629633842964,0.01656677718269129,0.8690476190476026,1
0.5112770809629515,0.3551341832705938,0.061538942425655274,0.4517268750775726,0.016566777182691124,0.869047619047624,1
0.538055870280862,0.35731228461648634,0.05278387825345027,0.5258220317245679,0.016566777182691117,0.8690476190476133,1
0.5426476333464559,0.3592953150740733,0.05507762866465127,0.5159883595817096,0.016991506737226603,0.8690476190476133,1
0.5388563914189783,0.3582222362145058,0.056143738638320506,0.4095041131613888,0.016142047628155826,0.8690476190475813,1
0.5403304418395831,0.35832758864071645,0.05288919820551463,0.3921320261684282,0.016142047628155687,0.8690476190475813,1
0.536803020131853,0.35890288254807523,0.05665755983796006,0.5197547321940914,0.01614204762815586,0.8690476190476062,1
0.5401756792795684,0.35894624207512815,0.05357637664877962,0.5013567166283075,0.016566777182691124,0.869047619047624,1
0.526361213026205,0.35886076700996766,0.0599927879190269,0.41034890792188194,0.0157173180736205,0.8690476190475955,1
0.5648382022913672,0.3586710688403662,0.04295119196617653,0.4580675271991919,0.015717318073620395,0.8690476190476026,1
0.5789595449870846,0.3563548486105915,0.0404390232775203,0.47276498490128116,0.016142047628155937,0.8571428571428363,1
0.5601728617773537,0.35863792480620355,0.0508947141309406,0.421580698400081,0.016566777182691124,0.8571428571428186,1
0.5643457583362865,0.35769938936092094,0.046592891371192824,0.417342992195322,0.016142047628155715,0.8571428571428221,1
0.5595059495731327,0.3593890258034892,0.049230522673267385,0.48335159635756325,0.016142047628156124,0.8571428571428328,1
0.5599950358309245,0.35847212651822896,0.0464831950414496,0.4856451944992271,0.016566777182690985,0.8809523809523654,1
0.5612458056897403,0.35927828717281307,0.049168321790951486,0.4222244593086616,0.01656677718269129,0.8809523809523583,1
0.561072390472517,0.35852386450825985,0.04778932876090164,0.4482881129115917,0.015717318073620493,0.8809523809523441,1
0.559661040807027,0.3592443108011909,0.046420536443074145,0.49574932858624743,0.016566777182690964,0.8809523809523618,1
0.5632736059137154,0.35855164008408313,0.04632400265941161,0.4529593033170402,0.01614204762815588,0.8690476190475955,1
0.5609438924680388,0.3592173371910101,0.046514501042101086,0.41473301997217743,0.016142047628155375,0.8690476190475849,1
0.5628941039175424,0.35858180322647587,0.04633756522780719,0.47912189783635495,0.01656677718269136,0.8690476190476026,1
0.5611090527167024,0.3591792635368838,0.046465539689756474,0.4975921122525977,0.016142047628155208,0.8690476190475671,1
0.5629251582801864,0.3586359691473855,0.04641243096669545,0.44623605324364385,0.01614204762815631,0.8809523809523654,1
0.5602038965098693,0.35908970831253684,0.04633858552216197,0.4060092726005979,0.016142047628155284,0.8809523809523334,1
0.5524009841278347,0.35882538804358727,0.04692954785600717,0.4626015672851009,0.016142047628156367,0.880952380952376,1
0.543110291020109,0.3547686834545819,0.053022374029238595,0.49186618258950277,0.015717318073620416,0.8809523809523654,1
0.5227004936726185,0.3518704859513106,0.061132587892602785,0.4457743492436566,0.01614204762815579,0.8690476190475955,1
0.5090019529415133,0.3497707715762843,0.06390427335446824,0.42287707661973767,0.015717318073620618,0.8690476190475991,1
0.5065667725178649,0.34623158522804176,0.06832351657615077,0.48454393255130074,0.01614204762815557,0.8690476190475955,1
0.5003907486822512,0.34612542093862686,0.07029826468451905,0.5067935499335323,0.016142047628155708,0.8690476190476026,1
0.5075905416692368,0.34778339133908676,0.06538003935547027,0.45685799529411214,0.016566777182691145,0.8809523809523547,1
0.5075944103379607,0.35048551628984104,0.06465236973183869,0.36494380914928476,0.016142047628155874,0.8809523809523689,1
0.5098786946711872,0.3497377787015932,0.06219954934730931,0.4326970241787401,0.016142047628155708,0.880952380952376,1
0.5084680269376787,0.35157447171045153,0.0637884955905102,0.4625586922559937,0.016991506737226394,0.8809523809523547,1
0.5116172622410178,0.34955658575928233,0.06320571449174472,0.44564317949609106,0.01614204762815597,0.8690476190476168,1
0.5111875508163843,0.351544064009977,0.06150328484264417,0.4123443508973458,0.015717318073620208,0.8690476190476133,1
0.5117446295549051,0.35054041319537743,0.06149087255912172,0.4523890382260809,0.016142047628155826,0.8690476190475991,1
0.5130469247972201,0.35155403786486655,0.061623745838355726,0.49392950889107795,0.016142047628156096,0.8690476190476026,1
0.5122187068159996,0.35051658935164987,0.0614742011763712,0.4625552061236775,0.015717318073620187,0.8690476190475991,1
0.5139129343422267,0.35159920071260464,0.06161445674289717,0.4096477467915315,0.015717318073620264,0.8690476190476026,1
0.5122710246400357,0.35042996705595003,0.0614895644636389,0.4515294218884254,0.015292256439683335,0.8690476190475991,1
0.5135840629606155,0.3517947767906752,0.06162248700287992,0.5025690994607153,0.015292256439683752,0.8690476190476168,1
0.5144173672292438,0.3486427813554832,0.06271708850082341,0.4650101541395898,0.016142047628155215,0.8690476190475742,1
0.5100838376815201,0.34971115457091206,0.06558462611212956,0.4058670977740501,0.015717318073620895,0.8690476190476346,1
0.508709255792541,0.3487284547078644,0.06280634731540014,0.4133003066752015,0.015717318073619972,0.8690476190475955,1
0.5096882882419409,0.34889757556298207,0.06475375497031244,0.5124633946862754,0.0157173180736205,0.8690476190475955,1
0.5178526818694945,0.3484416551859247,0.06277014566746825,0.4847897234532189,0.016142047628155916,0.8690476190475813,1
0.5128251934204617,0.34990107392741765,0.06598009620946599,0.46293427942334775,0.016142047628155534,0.8690476190476204,1
0.5095449993369328,0.35147964939083864,0.06507095377361871,0.3774597341693149,0.01614204762815593,0.8690476190476133,1
0.5079870508878048,0.35507563732733555,0.061049379849686725,0.482450454852916,0.014867526885147878,0.8690476190476026,1
0.49848159099075007,0.35666316076828686,0.06745164027429768,0.4914145581578121,0.015292256439683266,0.8571428571428328,1
0.4828986061647774,0.35456710980231537,0.0792197163729243,0.4751912081314175,0.014867526885148141,0.8571428571428434,1
0.500018625923011,0.3550727313277377,0.06360968955414703,0.41662971239498625,0.015292256439683308,0.857142857142815,1
0.5085440452409409,0.3562338723026872,0.06458867376120275,0.4987703094788272,0.0152922564396836,0.8571428571428577,1
0.5119113179858678,0.350812306024438,0.062268423754261115,0.5077993315497547,0.015717318073620055,0.8809523809523583,1
0.507897999477321,0.3521874212572209,0.06281197538577782,0.44842830560723607,0.016142047628156284,0.8809523809523796,1
0.5116345907155518,0.3501848759522092,0.0674831324612637,0.33350143308514524,0.016142047628155555,0.8809523809523654,1
0.5071620817170306,0.3518460813230731,0.06404312833953518,0.48241767532236524,0.015717318073620895,0.8809523809523547,1
0.5091539812623485,0.35141158706216363,0.06284523278733317,0.5082978573698891,0.015292256439683467,0.869047619047592,1
0.5081547890799643,0.3514651825563837,0.06639066592730564,0.46824782995929415,0.013593338221541844,0.869047619047592,1
0.5077433357298655,0.3516109057290343,0.06531413026160976,0.4154838734747366,0.015292256439683856,0.8690476190476133,1
0.5063116662057752,0.3513722480892816,0.06827702250969525,0.4200085185408758,0.014867526885148169,0.869047619047592,1
0.5114256461201924,0.34963839857073875,0.06321268859811763,0.48203656453452814,0.015292256439683745,0.8571428571428363,1
0.5081019387396635,0.35157912464671587,0.06295742018449896,0.47567259198377443,0.015717318073620465,0.8571428571428577,1
0.5103060957446015,0.35057955739748836,0.06202363350230322,0.41937150810010915,0.015292256439683502,0.8571428571428399,1
0.507305226914645,0.3514617783057995,0.06437126828485079,0.42390991653771903,0.014867526885148218,0.8571428571428434,1
0.5177470925089489,0.35067013877500797,0.0621399564401976,0.4903871085316449,0.015292256439683585,0.8809523809523547,1
0.5152451771935778,0.3513571596583801,0.06334047051607228,0.47005762771675286,0.015292256439683669,0.8809523809523547,1
0.5100273908818692,0.350825839482067,0.06320604397462548,0.43560499814168646,0.014867526885147996,0.8809523809523547,1
0.516391441927908,0.35104498501642645,0.06248342007929192,0.3975434095159632,0.01529225643968371,0.8809523809523547,1
0.5131402037492832,0.35261384422647524,0.062071056461950325,0.491287605586875,0.015717318073620472,0.8690476190475955,1
0.5147726271206625,0.3530001859050189,0.06262945323727337,0.48355463661599896,0.014867526885148023,0.8690476190475991,1
0.521842488164423,0.35030071507637095,0.060109778368446,0.46705358152863696,0.015292256439683523,0.8690476190475991,1
0.514216881979068,0.3527742852920275,0.06338024984280421,0.40309821417880193,0.015717318073620277,0.8690476190475955,1
0.5159353040861201,0.35009348987506866,0.06430293041313456,0.4345301173177658,0.015717318073620472,0.8690476190476026,1
0.5053629365167581,0.3518819284869976,0.06505620900062936,0.49146594576825064,0.01571731807362016,0.8690476190475813,1
0.49871103302581393,0.3502386366242686,0.06921865047844794,0.4760870865015654,0.015292256439683967,0.8690476190476133,1
0.4987533333708035,0.35187618993046194,0.07059501217780062,0.4585140220867745,0.015292256439683224,0.8690476190476026,1
0.49882220301183705,0.34985900647072127,0.0691650941452927,0.4061756841781259,0.015292256439683967,0.8571428571428541,1
0.4972628074182878,0.3508424567972888,0.07133544976260242,0.4743392468639179,0.015717318073620277,0.8571428571428541,1
0.5072910042724126,0.3518229462133677,0.06342802538656023,0.4878246696367517,0.014867526885148023,0.8571428571428221,1
0.5246973903187577,0.35520292244725127,0.0568103821826933,0.4227382663713143,0.01529225643968355,0.8571428571428328,1
0.5188621099220677,0.35067750309602475,0.06302132683195777,0.4104425107623574,0.01444279733061267,0.869047619047624,1
0.5220744720205197,0.3526802659423296,0.060206067791681195,0.4747326588323659,0.015717318073620673,0.869047619047624,1
0.5222698499299765,0.35026548812877956,0.06075278986876148,0.4642535028422999,0.015292256439683488,0.8690476190476026,1
0.5173861578686261,0.3525509135601026,0.0598937799760173,0.4192834985387064,0.015292256439683412,0.8690476190476133,1
0.5089441191436406,0.35068477197331166,0.06567269207270121,0.4503939528302709,0.014867526885148252,0.8690476190476026,1
0.5101774906049072,0.35163312312038847,0.065936775603122,0.497535315869925,0.01571731807362004,0.8690476190475742,1
0.5021465208524596,0.3495343295973165,0.06684060821188209,0.47486867887192497,0.015717318073620853,0.8690476190476204,1
0.4862844273655575,0.35154250115600677,0.0783911187098601,0.4329115488426329,0.015292256439683148,0.8690476190476062,1
0.4862646225186002,0.34858299943305326,0.07605672771984795,0.4179566830786006,0.014867526885148329,0.8690476190476026,1
0.47671686715863554,0.35019058649274903,0.08201024052480016,0.48369023553522067,0.014867526885147878,0.869047619047592,1
0.4682089906863356,0.34610785845897096,0.08510972660245397,0.48176959630013566,0.01529225643968346,0.8690476190476026,1
0.4754063269821899,0.3470325044595029,0.08375785554222209,0.44409727955893136,0.014867526885148252,0.8690476190476062,1
0.4993467962564113,0.3489317458822154,0.06485846030199383,0.4102618435661474,0.014867526885147697,0.8690476190475813,1
0.5025494303218219,0.3501487189774968,0.06632631999409655,0.4999992197374071,0.014867526885148225,0.8690476190475813,1
0.4896558770951482,0.34724832407550543,0.07413070958762641,0.4649521325302256,0.01486752688514778,0.8690476190475955,1
0.4863848703833754,0.34992509488768475,0.07673433050182743,0.4084914451813542,0.014867526885148308,0.8690476190476133,1
0.4859030733510647,0.34458319753104083,0.07607024445593547,0.3891941284509191,0.015292256439683488,0.8690476190476275,1
0.48506222918068265,0.34594852252488106,0.07703054682323074,0.5304985428017279,0.015292256439683467,0.869047619047592,1
0.48947174162737483,0.3422310952982076,0.07489085215579222,0.5042301740136387,0.014867526885147947,0.8690476190475955,1
0.48448139703817467,0.3489665939912209,0.07652811949363425,0.4496065832264918,0.015292256439683412,0.869047619047592,1
0.4757504615736334,0.34562145972446384,0.08143185638196049,0.3844427763802738,0.014867526885148113,0.8690476190475955,1
0.47486785478290905,0.346071403954769,0.08272734951102256,0.46527577674251314,0.01486752688514803,0.8690476190475955,1
0.4698993244249639,0.34427871239779695,0.08330280565839382,0.48411551137195,0.014442797330612787,0.8690476190475955,1
0.4702860619512822,0.3457758412638224,0.08348623846949016,0.46101926437319746,0.01486752688514794,0.8690476190476133,1
0.47100951326343676,0.34643736106676415,0.08408585809292052,0.41498182391318317,0.014867526885148051,0.8571428571428186,1
0.46949212471901447,0.34945370710276097,0.08389433425955634,0.4884415726322921,0.014867526885148218,0.8571428571428363,1
0.470354133445861,0.3497641694879445,0.08384401025263394,0.4733755496264667,0.015292256439683523,0.8571428571428221,1
0.4753762637306368,0.3484683944142701,0.07919648185990857,0.44172696130031,0.015292256439683523,0.8571428571428505,1
0.47236752192256226,0.3502506392009299,0.08129088849351157,0.38978737117694606,0.015292256439683273,0.8690476190475991,1
0.4844778385196977,0.3511012807653598,0.07741956825372592,0.48722900034800515,0.014867526885148495,0.8690476190476026,1
0.5004889432595692,0.34983756934076904,0.06632613552203886,0.48841952801724087,0.014867526885147878,0.8690476190476026,1
0.4984924185178469,0.3514634065013442,0.07108851053886495,0.4586669286931876,0.01444279733061278,0.8690476190476062,1
0.5055104420810219,0.3505995735731403,0.06412861397166675,0.36842085859415385,0.014867526885147989,0.8690476190475991,1
0.49952239670189724,0.35156707091570416,0.07158500237170085,0.45135354081745377,0.014018067776077343,0.8690476190476062,1
0.49317478815012844,0.34873485158573636,0.07099362719612573,0.4825853152772539,0.014867526885147822,0.869047619047592,1
0.48899627012376307,0.3499128955523844,0.0755630569234591,0.4959673780898409,0.01444279733061292,0.8690476190475955,1
0.4883154170343617,0.34993757045122964,0.073938755452227,0.41528045560445365,0.01486752688514803,0.8809523809523583,1
0.48668789869564266,0.349661915032672,0.07660284622870711,0.4865714587715767,0.012318817478534243,0.8809523809523547,1
0.48597081318128166,0.3490428473174025,0.07550430884913306,0.49268543697315115,0.013593338221541768,0.8809523809523689,1
0.4879292698148156,0.35083756912382535,0.07692692765387177,0.45828307826195286,0.0148675268851483,0.8809523809523796,1
0.48870904481412736,0.35097389508775995,0.07473897721577055,0.38636032540851006,0.014442797330612482,0.8690476190475813,1
0.488556778981876,0.3512060953706084,0.0764556496633701,0.4579162501313833,0.014442797330612975,0.8690476190476133,1
0.4890075824344803,0.35082571699960896,0.07536731821823228,0.4856744577370499,0.014018067776077323,0.869047619047592,1
0.48910596180569793,0.3513022735676149,0.0756871092354614,0.4711325495122063,0.014867526885148308,0.8690476190476133,1
0.48858084693003395,0.3507458756883823,0.07390207131658522,0.40668104573415065,0.014442797330612697,0.8690476190476026,1
0.4866498436962245,0.3513837899612226,0.07544107702034203,0.4422499668743933,0.014442797330612697,0.8690476190476026,1
0.5006658777236732,0.35064170086341057,0.06797619338547223,0.48922592094374007,0.014442797330612663,0.8690476190476026,1
0.5139424426224529,0.3515628063805882,0.06494527796818217,0.4707332979541347,0.01401806777607701,0.8690476190475991,1
0.5020976158397898,0.35008121111436424,0.06925445587657192,0.4240174162128699,0.014442797330612975,0.8809523809523512,1
0.4952331159262085,0.34938548494191196,0.07174857779819904,0.4204035074985039,0.014442797330612364,0.8809523809523583,1
0.4817994902392809,0.3479715713007215,0.07882825428802398,0.46397009776030185,0.014442797330612926,0.880952380952376,1
0.48037067406885386,0.34829100735540314,0.07611869325311738,0.4731186868693529,0.01444279733061244,0.8809523809523512,1
0.48006834389306413,0.34570263001125123,0.07784780009481768,0.4721087353900929,0.014442797330612718,0.8690476190476204,1
0.4829915653743116,0.3446965978620191,0.0752246377492769,0.4252806810697664,0.014442797330612843,0.8690476190475955,1
0.47372064901120886,0.34693570588286055,0.08148385864339652,0.4927504226594033,0.014442797330612614,0.8690476190476026,1
0.46626189804043605,0.344790356722914,0.08493546267804047,0.45698158903199343,0.014018067776077565,0.869047619047592,1
0.46608361271201343,0.3435254154182927,0.08402381736236497,0.44950920535041183,0.014018067776076872,0.869047619047592,1
0.47669255775788344,0.3474859906556291,0.0806675539099197,0.3948195710259261,0.014442797330613044,0.8690476190476026,1
0.49914061289625816,0.3499845217272026,0.06569174143562567,0.4693664289411563,0.01401806777607701,0.8690476190475955,1
0.4980465824471164,0.3512955356241672,0.07094843061479084,0.48759107321946416,0.014442797330612933,0.8690476190476346,1
0.49089392415333,0.35087784601189714,0.0751076263221695,0.4438509015700459,0.0140180677760771,0.8690476190475955,1
0.4861673016211764,0.3495216986528422,0.07739421992189655,0.4084042498606698,0.01486752688514778,0.869047619047592,1
0.4876528760798738,0.35042943090416423,0.07532910033717627,0.4500197311623701,0.014442797330612878,0.869047619047592,1
0.48768362159139994,0.3511977904890297,0.07689041298030108,0.49824672335732195,0.014018067776076892,0.869047619047592,1
0.48815122794888227,0.3491358126543005,0.07645105072730446,0.45548931406016335,0.01401806777607767,0.8809523809523654,1
0.48760785384321303,0.3494780967543267,0.07689320495590851,0.41548914760703226,0.014442797330612496,0.8809523809523583,1
0.4882322115938219,0.3498264255893769,0.07648318777411722,0.4800758475687315,0.013593338221542066,0.880952380952376,1
0.4864164581347417,0.351028780586715,0.07685835992271195,0.482604455924551,0.014018067776077336,0.8809523809523654,1
0.4878787622174276,0.3501577369405011,0.07652677087979004,0.4212938627526991,0.013593338221542045,0.8690476190476026,1
0.48782149096549077,0.34975201694534136,0.07668693000645255,0.4246955166278928,0.014442797330612593,0.8690476190476026,1
0.4879696539665797,0.3485476352908507,0.07447590064816817,0.5041615549832442,0.014018067776076948,0.8690476190475849,1
0.4878317620654074,0.35075736333467006,0.07434208117703,0.481866996337877,0.014442797330612829,0.8690476190476026,1
0.48788734255262345,0.34986707377914134,0.07601114656922192,0.4414302913026686,0.012743547033069326,0.8690476190475955,1
0.4882123012222102,0.3512994951964038,0.07458095407962706,0.3951782620168006,0.014442797330612933,0.8690476190476026,1
0.489619853118023,0.3507641120550884,0.07476463756188068,0.48485649663103625,0.014442797330612815,0.8690476190476133,1
0.4940291269360975,0.3513340411030916,0.0728973378473553,0.4864002714144296,0.014867526885147989,0.8690476190475991,1
0.49642734218334694,0.35074611346723433,0.06807774178400039,0.451791335987107,0.01401806777607751,0.8690476190476204,1
0.49818467897430097,0.3513432794200004,0.0691047289140268,0.4052394112412846,0.0140180677760769,0.8690476190476062,1
0.4987168513202859,0.3507433234521792,0.06737104285374323,0.47905478653617134,0.014442797330613141,0.8690476190476133,1
0.49828189273431606,0.3513397911084173,0.06841719368022181,0.4785688194393742,0.014018067776076733,0.869047619047592,1
0.4985460176050803,0.3507545386559674,0.06912201160035464,0.446452009908213,0.014442797330613058,0.8690476190475955,1
0.49949113217147423,0.3513170137671274,0.0686153762757154,0.39937786210786086,0.014018067776077156,0.8690476190476026,1
0.5022958574115854,0.3507982061335449,0.06591325182741431,0.48618684570008197,0.014018067776076865,0.8690476190475849,1
0.5002617489367887,0.3512253943969773,0.0693881168421644,0.48478773048379625,0.01444279733061287,0.869047619047592,1
0.5071795422340399,0.3510047462793079,0.06794378127298212,0.4646836204939761,0.014442797330612496,0.8690476190475955,1
0.5046789635305005,0.35232429738908483,0.0669544488836234,0.39590860242397,0.0135933382215419,0.8690476190476133,1
0.5031029998977292,0.35046716747291384,0.06934486112704752,0.4408170004866117,0.014018067776077198,0.869047619047624,1
0.5170872517390837,0.3514892390634434,0.060430466318159626,0.49997920716375455,0.014018067776077177,0.8690476190476026,1
0.5183628950644639,0.35069491206496667,0.060873694059357164,0.4609809219354347,0.013168608667006435,0.8690476190476026,1
0.5117469029130631,0.35121643479260434,0.06288673129818045,0.43572906537164025,0.013593338221541434,0.8690476190475955,1
0.5226058656639844,0.35183572017799586,0.05951841905152816,0.3895471477240935,0.013593338221542323,0.8690476190475991,1
0.5209032456234617,0.3527564433928662,0.06165646590065965,0.4623579251144899,0.01316860866700606,0.8690476190475955,1
0.5197124884160744,0.3499670631320888,0.0613304414971762,0.50846744788696,0.014018067776077642,0.8809523809523654,1
0.5176231639435216,0.3538188581504615,0.06182362585418333,0.44329391859087536,0.014018067776076733,0.8809523809523299,1
0.5186273244829362,0.35038000785341045,0.06122060985550071,0.3999681749422588,0.014018067776077538,0.8809523809523796,1
0.5199084790237549,0.3517807486325609,0.06193641867164662,0.49290246692298595,0.014018067776076983,0.8809523809523583,1
0.5196141508689551,0.35024996933144326,0.061076143311592,0.4912436262055472,0.013593338221542121,0.8690476190476026,1
0.5194795156011547,0.3519261665654227,0.062158895579077666,0.43580703225925005,0.014018067776076872,0.8690476190475955,1
0.5200651233500224,0.3499673379754436,0.06063035700738628,0.3991833018641873,0.013593338221541879,0.8690476190476026,1
0.5139288924910095,0.35291714855972134,0.0654091434034762,0.4999321921603007,0.01316860866700615,0.8690476190476026,1
0.5071569534700097,0.3510768642249611,0.06407164997575149,0.47795227253245165,0.013593338221541879,0.8571428571428399,1
0.49620213356887766,0.350772077942113,0.07317107802430184,0.4402223729083264,0.014018067776077184,0.8571428571428577,1
0.49500679294496963,0.35083554102287107,0.07309255410348908,0.39980628497184445,0.013593338221541879,0.8571428571428328,1
0.5054806069743965,0.35142115541405283,0.06519876766997013,0.49475766069128196,0.014018067776076872,0.8571428571428541,1
0.5091127225025263,0.3505538021141839,0.06266021689330653,0.5140507580825449,0.014018067776077628,0.8809523809523547,1
0.5092476185524994,0.3516336455580121,0.06462403485941137,0.4678095327473982,0.014442797330612551,0.8809523809523654,1
0.5117729920922823,0.3503367374055981,0.061271369702667555,0.3512617751491757,0.013593338221541587,0.880952380952376,1
0.5079221883837065,0.35191535061525003,0.06540381936945044,0.47192375263755,0.014018067776077198,0.8809523809523583,1
0.49902422607454244,0.3498632670943769,0.07298193951259196,0.495303762050955,0.0114693583694633,0.8690476190476133,1
0.5006130757510499,0.35334173946280323,0.06645532783621294,0.4550932315203786,0.013593338221541955,0.8690476190475991,1
0.480896007418663,0.3483121781950044,0.07879395551772933,0.3928254066423347,0.013168608667006157,0.8690476190475849,1
0.4916735065050152,0.3488135672604637,0.07333281088258742,0.4801132602648474,0.013593338221542357,0.8690476190476204,1
0.4996993190250371,0.351586028688506,0.06909320623274129,0.5039375828371457,0.013168608667006108,0.880952380952337,1
0.4976997252071543,0.3509296489223608,0.06937143393694051,0.4405460710541966,0.014018067776077711,0.8809523809523618,1
0.49936770619944815,0.3508712676794301,0.06921739459630621,0.41685362212904964,0.013593338221541483,0.8809523809523512,1
0.4937704358889056,0.35170469181741226,0.06870426456674361,0.447836047046072,0.013593338221542128,0.880952380952376,1
0.4778338362207929,0.35105758464182485,0.08301332496037678,0.47013681916069333,0.013593338221541629,0.8809523809523547,1
0.47818440752585095,0.34831281663335295,0.07705204512344499,0.46762306922364494,0.01401806777607753,0.8809523809523867,1
0.47747492319667934,0.3514027970167961,0.07947107967600803,0.4161588128868249,0.012743547033069479,0.8809523809523583,1
0.4772372676589188,0.350880664464941,0.0756417030324949,0.5031347704395234,0.013168608667006289,0.8809523809523547,1
0.4773093601594493,0.3511102627355052,0.07740626973166553,0.5016162440199708,0.013593338221541885,0.880952380952376,1
0.477450985023307,0.35103608594925484,0.07609156215694601,0.4289379541780896,0.012743547033069062,0.8809523809523583,1
0.48348012741440866,0.35100814510756206,0.07719212835571815,0.3683186053221095,0.01359333822154224,0.8809523809523654,1
0.4831188814479514,0.35111040335549315,0.07620859626852294,0.4707828767516129,0.013593338221541677,0.8809523809523654,1
0.4802642263069325,0.350950651088911,0.0771332745167555,0.4913382954266811,0.013168608667006323,0.8809523809523654,1
0.4763625703683056,0.3511567514500229,0.07621976409203202,0.4647327913662076,0.013593338221541795,0.8809523809523618,1
0.4805875813884125,0.3509121477093071,0.07717732040393582,0.40001907818874816,0.013593338221542205,0.880952380952337,1
0.48308423229138453,0.3511894940705511,0.0760820951733468,0.44863646324981926,0.013593338221541587,0.8809523809523547,1
0.4877463002101214,0.3508837663830268,0.07756838062691673,0.5023308800234488,0.013593338221541844,0.8571428571428328,1
0.494834356050281,0.35121450160644974,0.07226035148856547,0.447487905191467,0.013168608667006483,0.8571428571428186,1
0.4991776575117033,0.350861405655833,0.07057535296442774,0.4022524027532576,0.013168608667006594,0.8571428571428328,1
0.49803513435526486,0.35123477213696985,0.07031107663390568,0.4713652704787584,0.013593338221541913,0.8571428571428328,1
0.49881240501013124,0.35084278188556806,0.068790104655863,0.4804178573102612,0.013168608667006247,0.8809523809523228,1
0.4981922640795559,0.35125211825693514,0.06929496606520708,0.44021396075614533,0.011469358369463216,0.8809523809523228,1
0.4987252075725947,0.3508263898674434,0.06899719807917742,0.37686108743511904,0.013593338221541837,0.8809523809523583,1
0.4982466796371014,0.3512678581555839,0.06919293683479655,0.4895062262485178,0.011469358369463188,0.880952380952376,1
0.4986897295045354,0.3508109982164248,0.06906096725087785,0.5092867000607642,0.013593338221541615,0.8690476190476026,1
0.4982689990344546,0.3512832347899318,0.06914467784211387,0.46860093939348857,0.013168608667006462,0.8690476190476204,1
0.49867871466425684,0.3507952359068212,0.06910837606195097,0.4075282208712024,0.013593338221541566,0.869047619047592,1
0.4982674480635732,0.35129991156504037,0.0690747929256143,0.4425899595885536,0.013593338221541934,0.8690476190475955,1
0.49869865784863326,0.35077687997723517,0.06931260040070503,0.49772199900959124,0.013593338221541455,0.8571428571428328,1
0.49821315210553263,0.35132115931249774,0.07004745981499833,0.46999423917798755,0.013168608667006525,0.8571428571428292,1
0.49881018466626864,0.35075061372439126,0.06904913529120421,0.41732326540966114,0.013593338221541545,0.8571428571428328,1
0.4934321683649543,0.3513566635788328,0.07197215784246769,0.43878312802313435,0.013168608667006691,0.8571428571428399,1
0.48940612060552835,0.35069590925277405,0.07603423142324495,0.5001168849364683,0.013593338221541566,0.8809523809523654,1
0.4879650291611106,0.35146212222843776,0.0767926133813332,0.47154909928012123,0.013168608667006462,0.8809523809523689,1
0.4877913281206669,0.35033562485132297,0.07657433505099265,0.4269548543023636,0.01316860866700683,0.8809523809523618,1
0.4880337705117911,0.35052684819367763,0.07681702902520493,0.42534537315275617,0.012743547033068917,0.8809523809523405,1
0.4876368266711837,0.35098632327272516,0.07640421677879689,0.49903631615824773,0.013168608667006601,0.8809523809523583,1
0.4887123298939181,0.3512342460555431,0.07569638493821479,0.4609819240118842,0.013593338221541344,0.8809523809523441,1
0.48874225817240874,0.35019472004813124,0.07574306688036431,0.4573667831212984,0.013168608667006823,0.880952380952376,1
0.48762493816447766,0.35017768589431936,0.07603650018741992,0.38544187682728764,0.013168608667006317,0.8809523809523547,1
0.48799960184931923,0.35049354236005226,0.07614978867721478,0.4533946217147678,0.012318817478534264,0.8690476190475955,1
0.4879412982242112,0.3513676412917887,0.07603868064714064,0.47797508985221454,0.01359333822154181,0.8690476190475813,1
0.48725433202745666,0.35075348202353296,0.07690868027834541,0.47068387657331245,0.012318817478534208,0.869047619047592,1
0.48685947888543873,0.3513271738494629,0.07653577966260572,0.411659484259755,0.013168608667006441,0.8690476190476168,1
0.4883504771584466,0.35075324041441874,0.0767855379777958,0.44711842971532184,0.013168608667006296,0.8809523809523583,1
0.48755225604400665,0.35135346709754,0.0765981834772918,0.48952364143916505,0.013593338221542017,0.8809523809523654,1
0.4881758371276392,0.35066127301644223,0.07671946798733625,0.47059958082681064,0.013593338221541573,0.8809523809523618,1
0.48896125622203224,0.3513125974263608,0.07633245281155776,0.4089227396758448,0.013593338221541622,0.8809523809523441,1
0.4881230380131509,0.35090694681144674,0.07546441755858324,0.424266332507258,0.013168608667006303,0.869047619047592,1
0.48767463653461063,0.35122610205661753,0.07606015565207497,0.4995860645803152,0.014018067776077177,0.8690476190476026,1
0.4880960724413872,0.3508493401459705,0.07500779976883148,0.48142409609790227,0.013168608667006525,0.8690476190476168,1
0.48769568053157486,0.3512308658085246,0.07676735552526937,0.44481571268816333,0.013593338221541573,0.8690476190476026,1
0.488078985001991,0.35089746897889795,0.07664886141717014,0.3921661632250305,0.013168608667006684,0.8809523809523441,1
