wrist_ACC_1,wrist_ACC_2,wrist_ACC_3,wrist_BVP_1,wrist_EDA_1,wrist_TEMP_1,label
0.47004047430602447,0.28873788173526477,0.8197198895914869,0.5071937105366879,0.6229168645700156,0.6752136752136781,1
0.48101960362379814,0.28988673516064717,0.8217403654078074,0.4786650847120916,0.6199886579921088,0.6794871794871806,1
0.4737340958948876,0.28921667984267163,0.8197189287521178,0.45201806101994724,0.6130340958382496,0.6794871794871788,1
0.47952026009511406,0.2894212698636607,0.8217844142053344,0.4582800925347786,0.600955315235715,0.6794871794871806,1
0.4753387052735397,0.28966858869143186,0.8199478232534679,0.49759712628260505,0.6020534642337618,0.6794871794871788,1
0.48229665938203903,0.28897370651028015,0.821641813542624,0.45968269006024626,0.6002231205285764,0.6794871794871815,1
0.478031740491058,0.2901227072570695,0.8182749579146926,0.4420627405596791,0.5969289596597624,0.6794871794871833,1
0.48445069031483,0.28849906538949477,0.8220090286604868,0.4654133991637229,0.5936347987909487,0.6794871794871815,1
0.47854886079245995,0.29064991030783294,0.8200630277622077,0.4668896253914181,0.586680236637088,0.6794871794871833,1
0.47561524578122705,0.2876493788624378,0.8228791029480473,0.4293142130524941,0.5998571662376682,0.6752136752136755,1
0.47677944900995495,0.28158321178619633,0.8160926626821137,0.46730682864183143,0.5987590172396227,0.6752136752136755,1
0.47345273025451307,0.2733346400202479,0.8173336191676812,0.4659248263544081,0.5929026040838095,0.6752136752136755,1
0.4905026235602147,0.2685595975960978,0.798792958843106,0.4385335470640951,0.5910725465039488,0.6752136752136755,1
0.5206846822187602,0.24901013962273968,0.7853738174447602,0.46273443304460105,0.573869261327415,0.6752136752136781,1
0.5229729926432206,0.24258800267120026,0.758800221384011,0.4746119360777196,0.5658168363008342,0.6752136752136799,1
0.5214227116251384,0.22334668508949562,0.7641425699963786,0.44148178741270305,0.5530058609911603,0.6752136752136781,1
0.550515714274181,0.25440298932891936,0.7586587526079978,0.4899347839789959,0.5544699642801134,0.6752136752136799,1
0.506658243512701,0.2122346049610718,0.7886427409273231,0.44799978574143207,0.5599604231450199,0.6752136752136755,1
0.7159312480424413,0.34894522441611314,0.6659760518724104,0.42760514420394286,0.5870461909279956,0.6752136752136755,1
0.415302986753319,0.33883531658715865,0.8218000764974804,0.4620943250437322,0.5976611543669013,0.6752136752136755,1
0.08250941374974752,0.2828010601980633,1.0,0.4340199969879699,0.629505186307644,0.6752136752136773,1
0.36583219589381855,0.39687963102436286,0.9056752807073085,0.43255353288257986,0.6317014843037367,0.6752136752136755,1
0.3666838499555033,0.38423206618449024,0.9033921601251139,0.5911663860999333,0.6287732777258297,0.6752136752136781,1
0.4360088393986963,0.3575983612359102,0.8708785659716296,0.5574794020783422,0.6262110254388302,0.6752136752136755,1
0.44623942922712734,0.3495983661143795,0.8644068268097298,0.29351214361099365,0.6210868069901554,0.6752136752136781,1
0.47937758620000037,0.37174495548797726,0.8559618398118634,0.4367139591530668,0.619622703701203,0.6752136752136773,1
0.4471600069978102,0.38132789157742036,0.8532441257158062,0.46114097625008793,0.6174264057051098,0.6752136752136773,1
0.49946690572138686,0.3810043242087449,0.8365646283792963,0.4675696061499592,0.6155963481252498,0.6752136752136773,1
0.48889243390357484,0.39143645777553004,0.8117761933888705,0.4956486704811852,0.6166942109979714,0.6752136752136755,1
0.5409835219924914,0.38034317178018107,0.818992460252078,0.503596817704604,0.6218187155719701,0.6794871794871815,1
0.49464804063401524,0.3512449728030746,0.7803002291879074,0.5752908317606599,0.6258450711479231,0.6794871794871815,1
0.6159831307011883,0.2987893050795951,0.7553779529663043,0.4162029511187155,0.6269429340206447,0.6794871794871815,1
0.6491329730044273,0.28224748164316515,0.6947662765557665,0.43842508244238343,0.6313355300128303,0.6794871794871815,1
0.5779082707005709,0.3036791116987932,0.7389841446150643,0.3887868559368356,0.6280413691440159,0.6709401709401766,1
0.49512027606125764,0.2812839489187602,0.8084295880296164,0.34925317604239464,0.6360937941705966,0.6709401709401748,1
0.4785342814643888,0.2795034578129803,0.8072627455855654,0.38600967001709763,0.6338974961745052,0.6709401709401766,1
0.45957780842890295,0.27385281693205676,0.8319025169190537,0.4586641985904137,0.6331655875926905,0.6709401709401748,1
0.4455576520607373,0.2805819479597208,0.8296481837610898,0.3538569101960483,0.6320674385946425,0.6794871794871815,1
0.4653921064531822,0.2800384150307047,0.828446308849565,0.4265390783047536,0.6243809678589696,0.6794871794871833,1
0.4668780412060958,0.2745935733554726,0.8155626260528871,0.589905080560771,0.6306033353056897,0.6794871794871815,1
0.48611466253762103,0.28756503581112425,0.8186365670982851,0.5329375602347057,0.6360937941705969,0.6794871794871833,1
0.48867095985838827,0.29391171469782895,0.8131464515873458,0.5010854900735222,0.6364597484615033,0.6709401709401739,1
0.5065748147853192,0.29906975446724127,0.8116617995434385,0.4752079486130807,0.6382900921666885,0.6709401709401721,1
0.49013830983619056,0.29138280543004524,0.808571250880224,0.4561421720754745,0.6386557603322707,0.6709401709401739,1
0.4935679319615216,0.29020654921728617,0.8141058270069781,0.4420100368743847,0.6412180126192706,0.6709401709401748,1
0.4532557169726964,0.29510455473369357,0.8300854728291078,0.456321062912892,0.6423161616173165,0.6752136752136773,1
0.46823063650023644,0.2913764495257044,0.8324149388059634,0.4420381787498944,0.6529308389308979,0.6752136752136799,1
0.4305251264199542,0.2938661293262144,0.8393059598372642,0.4056697633856668,0.6664740089477101,0.6752136752136773,1
0.5588200581505651,0.2743917779003888,0.8241351528572133,0.4605790871434621,0.6829450994171054,0.6752136752136799,1
0.500240881391063,0.38205105986739485,0.7765732406553625,0.44803134097423014,0.6909978105690109,0.6709401709401721,1
0.5802905848281092,0.4075506688694212,0.7245075536525803,0.4058832317671685,0.6855073517041042,0.6709401709401703,1
0.6967335676871396,0.4219637447084394,0.6606648566063923,0.5663928394222915,0.682579145126198,0.6709401709401721,1
0.67069442028258,0.44096387898320344,0.6452661508494475,0.5700940368903661,0.6814809961281523,0.6709401709401703,1
0.6780648008484427,0.41980635170079206,0.6479460854282484,0.6960266169772178,0.6851413974131975,0.6709401709401703,1
0.6649089096608378,0.4218761259512504,0.6711546726199838,0.32438204133368936,0.6686700208184777,0.6709401709401721,1
0.6655726513947875,0.33970714571313854,0.6767153978204585,0.2358989228173574,0.6459765629023626,0.6709401709401703,1
0.670751233121408,0.3617814076767404,0.5905282105935132,0.5146267807339507,0.641950207326411,0.6709401709401721,1
0.7574122081352539,0.40254914892608373,0.3961496927990216,0.644124271606879,0.6104718435512495,0.6709401709401703,1
0.6998134153421216,0.40281023871671195,0.44401286042100574,0.42415630587102315,0.5903406379221348,0.6709401709401694,1
0.7192846852792714,0.4129796894678907,0.47995220735730126,0.42959978184229997,0.5804578691903679,0.6709401709401703,1
0.7085608584072127,0.3820812079173872,0.5507173137522977,0.03650442419039168,0.5797256744832289,0.6709401709401694,1
0.7108629795540327,0.39443311823019966,0.5314239852845369,0.4703606783391736,0.5800919148994608,0.6709401709401739,1
0.7375084416949904,0.369327936396599,0.5505034475818033,0.6464710410297341,0.5830198353520426,0.6709401709401766,1
0.6352598434033507,0.3575653667498653,0.6631736107591528,0.47867381895028843,0.5811897777721824,0.6709401709401739,1
0.6880060880419641,0.38736939031340667,0.6480712193223458,0.488101688160528,0.6005893609448083,0.6709401709401766,1
0.7238674532104341,0.34796183949743426,0.6069098246000292,0.4827847140461162,0.5826538810611355,0.6709401709401766,1
0.6862907024777991,0.3991463415210216,0.6719172332195166,0.43250831932137473,0.5672809395897878,0.6709401709401748,1
0.7549922084915226,0.4730449682786277,0.574352359548889,0.6195470986406623,0.5639864925956486,0.6709401709401748,1
0.5295205969173256,0.5150856006182809,0.4914930380505882,0.4129376386047697,0.5669149852988811,0.6709401709401748,1
0.7964235138694236,0.4826689192259106,0.43136969307596357,0.3107060825763161,0.5405608399723945,0.6752136752136755,1
0.7510385512078706,0.38636864809356325,0.5816606896421764,0.6385890951588843,0.5409270803886264,0.6752136752136799,1
0.5362841349453074,0.38277250011218383,0.7423486496872609,0.38845044540037854,0.5508095629950682,0.6752136752136755,1
0.6053079127059375,0.3894905542168797,0.7923254400154585,0.3687469614277255,0.5837520300591816,0.6752136752136799,1
0.5346742193711038,0.3028369973455205,0.7744201570298321,0.46309512361602384,0.5991252576558548,0.6752136752136781,1
0.4962788145648912,0.20749749753297933,0.784359811689247,0.5388930117410214,0.6013212695266228,0.6752136752136773,1
0.524931355075558,0.26626501804068403,0.7714431222535545,0.5132685314088643,0.5940007530818561,0.6752136752136781,1
0.5423831130652716,0.2409285080538319,0.7473027002722444,0.2954235255144315,0.5888765346331812,0.6752136752136755,1
0.58580293291816,0.29739072051627735,0.7480306926881493,0.4997537510164403,0.5606923317268346,0.6709401709401748,1
0.5609498746419608,0.27761528504464694,0.7421101835124654,0.5355575201989262,0.5504436087041615,0.6709401709401766,1
0.575109855093906,0.2950920298272982,0.7462912999142175,0.44839958529709106,0.5438550008412084,0.6709401709401748,1
0.5530366821182382,0.28029384441657335,0.7519298192499686,0.41791988707996697,0.5423911836775794,0.6709401709401766,1
0.5681045594577452,0.2874283211338965,0.7539418273402017,0.45338433007379725,0.5434893326756258,0.6709401709401703,1
0.5458710959978128,0.2770810358451577,0.7579332486833545,0.459444680120603,0.5442212412574401,0.6709401709401694,1
0.5571709215018603,0.2834485101064621,0.7550979303717957,0.45305505527156115,0.5317762202386742,0.6709401709401703,1
0.5423226126535785,0.27434920865959145,0.7578378600433877,0.43587201595298364,0.5372666791035807,0.6709401709401694,1
0.5591610592311118,0.28299721609865297,0.7549486659614282,0.4745030014837221,0.5354366215237192,0.6709401709401694,1
0.5430212658128908,0.2741365253003307,0.7618348623078819,0.47926423090863485,0.5379988738107195,0.6709401709401703,1
0.5826823027451489,0.28789442972592555,0.7509998427207708,0.4412349222070913,0.5354366215237198,0.6709401709401694,1
0.5227904643738617,0.2809294396297013,0.7678670043621993,0.4904106780873514,0.5694769514605538,0.6709401709401703,1
0.5654091614256029,0.28893092719965113,0.7588023205592257,0.4672704096007032,0.5936347987909487,0.6709401709401739,1
0.5544600795177361,0.2830378563829231,0.7525738170326164,0.44997477891382776,0.5764315136144154,0.6709401709401703,1
0.5601623371548676,0.28887224750554186,0.7552937023131148,0.49892155948979644,0.5683790885878339,0.6709401709401721,1
0.5581407275507724,0.2815825635739505,0.7546269949097557,0.5078998890864946,0.5599604231450208,0.6709401709401748,1
0.5656433239397409,0.29061184519050226,0.7545173987430532,0.44874748460875186,0.5563000218599747,0.6709401709401694,1
0.5546470015197213,0.2864964371817087,0.755078322360809,0.42564144413371763,0.5530058609911608,0.6709401709401739,1
0.5644072198086614,0.2948850706049405,0.7511089186393443,0.41147628249774837,0.5533718152820679,0.6709401709401694,1
0.554171892816556,0.28538701048863546,0.7491577692212088,0.4303717705860468,0.5665487448826474,0.6709401709401721,1
0.5832299360194979,0.2966952992875934,0.7394339084146917,0.4672001678680348,0.5522736662840215,0.6709401709401739,1
0.5756899464379464,0.2899952586568342,0.7403018959316626,0.48446020793631184,0.5438550008412084,0.6709401709401721,1
0.5834180544132552,0.29661538089396194,0.7361546799398376,0.43889692692930793,0.5383648281016269,0.6709401709401739,1
0.5744835011126215,0.2903998309653375,0.7395161835393583,0.4793231587346391,0.5354366215237201,0.6709401709401703,1
0.5907122429749159,0.2956207803166492,0.7364047467299579,0.5083212587924233,0.5336062778185351,0.6666666666666661,1
0.5755569661806399,0.2892938566272769,0.7393713362428853,0.41604866750369324,0.5336062778185344,0.666666666666667,1
0.5863868217395103,0.29407869876682124,0.7366150440922419,0.4222148750059039,0.532508414945813,0.6666666666666661,1
0.5708167296495898,0.2880195053729333,0.7408789293689331,0.46557656579959006,0.5306783573659533,0.666666666666667,1
0.5811040127926048,0.2911255552413869,0.7384853853553358,0.4542661495187633,0.5266520017899994,0.6623931623931654,1
0.5667867316896424,0.2877082502977212,0.739099553355171,0.43565232629212175,0.5281161050789531,0.6623931623931636,1
0.5813678680287055,0.29108007607833364,0.7365790853121732,0.46630798430533593,0.5229916005049542,0.6623931623931654,1
0.5762860021245988,0.2891618811815678,0.7400267587903913,0.4766156850642717,0.5233575547958609,0.6623931623931636,1
0.5827159164297753,0.295007546753275,0.7380299258403971,0.4507648724770035,0.5200633939270469,0.666666666666667,1
0.5748176219858092,0.28784914250588695,0.7393965165026608,0.44361280928935753,0.5193314853452331,0.666666666666667,1
0.5857444993455572,0.29113189908174153,0.7365914854834159,0.48798334779105557,0.5167692330582343,0.666666666666667,1
0.5816021996443219,0.2884657260362128,0.7392101950017764,0.4745664008051549,0.5127428774822802,0.666666666666667,1
0.5888990505822254,0.2963943055424529,0.7366491728634109,0.43796425196503297,0.5127428774822798,0.6623931623931636,1
0.5795958595737807,0.2922457221817166,0.7391712254433379,0.4702846314482851,0.511644728484234,0.6623931623931627,1
0.5916236734636036,0.293033299612512,0.7366863407998187,0.48182447035255144,0.5116447284842343,0.6623931623931636,1
0.5822877947938103,0.2937256352276615,0.7391292681818356,0.4381449289202208,0.5105468656115129,0.6623931623931636,1
0.5907491842647028,0.29495190852193137,0.7367389255085893,0.4621494478566644,0.5123769231913724,0.666666666666667,1
0.5801717737686862,0.29286542542412175,0.739056715650937,0.47712991440695984,0.5116447284842334,0.6666666666666687,1
0.5899641446836583,0.2949579405996918,0.736852644407054,0.45768721000629975,0.5131088317731867,0.6666666666666661,1
0.575626076266484,0.28739196281795076,0.7388314643999675,0.43598846326996127,0.5156710840601872,0.6666666666666687,1
0.5809180303694514,0.2911930584624272,0.7378239877555164,0.4680669509611018,0.5149391754783725,0.6623931623931636,1
0.566266572422113,0.28778266976452427,0.7416036709655324,0.470603093030668,0.5160373244764191,0.6623931623931636,1
0.5740381169516915,0.2910244809184217,0.7390047797552561,0.4557924891794599,0.5120109689004653,0.6623931623931654,1
0.5671709280321322,0.287879465779029,0.7420899301877352,0.43458035527890115,0.5123769231913731,0.6623931623931636,1
0.5737141257012275,0.29095869395620894,0.7382835155173618,0.44670149113536867,0.5101806251952803,0.666666666666667,1
0.5655399769675955,0.2879499050618407,0.7413816100434657,0.4797097441472809,0.5101806251952803,0.666666666666667,1
0.5789972277655409,0.2901830509397242,0.737481125577127,0.46458404004527265,0.5054223610375135,0.666666666666667,1
0.5696514779400979,0.2804479956135626,0.7440908449918562,0.4488156934427884,0.5046904524556994,0.666666666666667,1
0.5593835241600176,0.26741222085821414,0.7543895776218584,0.43984996328377346,0.5065205100355585,0.6666666666666625,1
0.485649265623188,0.22407700750280216,0.7736871983933837,0.480652911436302,0.5185992906380921,0.6666666666666625,1
0.47986222354988894,0.2197092171547077,0.7823362570288742,0.4722610368260924,0.5295802083679066,0.6666666666666625,1
0.48732513692684987,0.23135530346439262,0.792316652594784,0.4531790580135252,0.5478813564171614,0.6666666666666625,1
0.48187476990807954,0.22824550290649512,0.7873948590582383,0.4374655390982853,0.5577641251489287,0.6623931623931636,1
0.4743287251591143,0.22053948596299047,0.7870306085595657,0.4642294270275201,0.5573981708580202,0.6623931623931671,1
0.49520664854464613,0.22966032607663306,0.7849090720986065,0.5055449353488429,0.5621564350157886,0.6623931623931636,1
0.4930500457725139,0.22858650344386847,0.785947529214705,0.4871665504632682,0.5595941827287869,0.6623931623931671,1
0.4907087168166244,0.22629902704408522,0.7836128796999279,0.4280482091572836,0.5610582860177415,0.655982905982909,1
0.4935277216795305,0.2240870949660597,0.7818896148460771,0.47055888285976344,0.5606923317268346,0.6559829059829072,1
0.4972771141549708,0.22558619182824335,0.7759559400592166,0.43172892773378896,0.5632545840138352,0.655982905982909,1
0.4970197731338031,0.22645378629475155,0.7779504886116486,0.4157996147547106,0.5606923317268349,0.6559829059829072,1
0.5076405571075423,0.23650276438942422,0.7786189908593941,0.46198059466269364,0.5603263774359273,0.6623931623931627,1
0.49883110512657625,0.2349363449327276,0.7823998491580282,0.47651026664185936,0.5599604231450208,0.6623931623931654,1
0.5046586273856546,0.23437040675758408,0.7806172723484777,0.4490091948700862,0.5581300794398354,0.6623931623931627,1
0.49446166327318786,0.23002497435674127,0.7854339010903468,0.47636980920770117,0.5563000218599747,0.6623931623931654,1
0.49991602681431313,0.23441047151576025,0.7805170980682135,0.4542833991471428,0.5533718152820679,0.6623931623931636,1
0.4990609089852873,0.23284104844022632,0.7776539562627508,0.44089619118911894,0.5552021589872533,0.6623931623931636,1
0.5123186047025912,0.23725344701390066,0.7755080674415564,0.45577598346136383,0.554104009989207,0.6623931623931636,1
0.49868059541366294,0.23434821747686724,0.7826382645308648,0.4399392436189686,0.5555678271528357,0.6623931623931627,1
0.5071665091505158,0.23698903260457627,0.7804809149610414,0.4579209500538109,0.5522736662840215,0.6623931623931636,1
0.5065653248856827,0.23459859194142785,0.7814090109522711,0.4906346006207519,0.5537377695729744,0.6623931623931654,1
0.512701591384713,0.23830379678385366,0.7763676694355829,0.4304198027878583,0.5500776544132533,0.6623931623931636,1
0.5067335331471955,0.23432559881892365,0.7808897056163439,0.46762796812193314,0.5508095629950676,0.6623931623931654,1
0.5123554083147095,0.23702766747859771,0.7789085016631443,0.4969117227073052,0.5475154021262545,0.6623931623931636,1
0.5079886496325455,0.23445054824765107,0.7820091733229507,0.4795871054795697,0.547515402126254,0.6623931623931636,1
0.514264200327516,0.23697307578384724,0.7802274958122732,0.4202435475801635,0.5460512988373019,0.6623931623931636,1
0.5079683533071992,0.23446239565093216,0.7821551142133227,0.45440022298800015,0.5434893326756258,0.6623931623931636,1
0.5143013849227398,0.23705690115756556,0.7794358534083046,0.4821819988066632,0.5438550008412084,0.6559829059829054,1
0.5065511405884219,0.23589794560076438,0.7837994580502348,0.46344135052020047,0.5427571379684872,0.6559829059829072,1
0.5083822886169816,0.2366892024576008,0.7768056976576518,0.4419456001355539,0.5420249432613482,0.6559829059829054,1
0.5030904417767731,0.2346985497244857,0.781311351042403,0.44722702623321436,0.5387307823925334,0.6559829059829072,1
0.508722064464528,0.23675244471111037,0.7796845053441122,0.4853114748765956,0.53909673668344,0.655982905982909,1
0.5026114004725851,0.234689182927484,0.7808018799360301,0.4644656587052989,0.5365347705217662,0.6559829059829072,1
0.5076300091002297,0.23674638570016748,0.7789272156021765,0.4409846972314058,0.5266520017899996,0.655982905982909,1
0.5051072376411848,0.23470155381330604,0.7820986646634429,0.44070862471374805,0.5328743692367199,0.6559829059829099,1
0.5054110839978558,0.23673094018343352,0.7806905804216613,0.47461004171144816,0.531776220238674,0.6623931623931636,1
0.5039958595476932,0.23471869792995756,0.7846782183598784,0.46922441669670034,0.5310443116568597,0.6623931623931654,1
0.51212204176116,0.23671271353632134,0.7790468062511947,0.4460569445122244,0.5270179560809058,0.6623931623931636,1
0.5028951863249251,0.23473777411497965,0.7789997742031705,0.44899461060009693,0.5295802083679069,0.6623931623931671,1
0.5132440658550115,0.23669277013717638,0.7783430958932535,0.46866267372747306,0.5288480136607676,0.662393162393168,1
0.5043080940696443,0.2347588363096179,0.7791817460324265,0.45196857497223913,0.5288480136607676,0.6623931623931671,1
0.5104548818274236,0.2366700237911914,0.77803549327943,0.4519610705843909,0.5259198070828603,0.662393162393168,1
0.5043219617112583,0.23478438006528018,0.7804094716222549,0.46735870320225964,0.5255538527919543,0.6623931623931654,1
0.5078841861039821,0.23663942182677414,0.7771729055230082,0.457691595668234,0.5237237952120934,0.6559829059829072,1
0.5007405074968148,0.23482515092825698,0.7803241401236345,0.4414039774453723,0.5266520017899992,0.655982905982909,1
0.5043904220893656,0.23657447822208139,0.7819764610343691,0.46727430562804156,0.5248216580848137,0.6559829059829072,1
0.5001279870991582,0.23497009105924943,0.7811830726746083,0.4669978938234403,0.5240897495030001,0.655982905982909,1
0.5005243701699237,0.23551319024594908,0.7813910627145928,0.4430989553824001,0.5226256462140468,0.6623931623931636,1
0.5008346994946425,0.23429340236015272,0.7848643141299181,0.45736384145547165,0.518599290638093,0.6623931623931636,1
0.5035712590053146,0.23697294218377965,0.7803361607777297,0.47541366489842773,0.5204293482179547,0.6623931623931636,1
0.5011602274859842,0.2343070777352921,0.7825036253717502,0.45025845806548603,0.51969743963614,0.6623931623931636,1
0.5040762794941276,0.2354858622087154,0.780188652320731,0.4435283982510208,0.5200633939270474,0.6623931623931671,1
0.5024802969278307,0.2350110247886134,0.784450343887171,0.4751665164709721,0.5193314853452329,0.662393162393168,1
0.5063750420538243,0.23652001324914274,0.7804722049418793,0.46893220164897964,0.5189655310543255,0.6623931623931671,1
0.5019211473585943,0.2348930400354145,0.7847835550487909,0.4434833540071566,0.5160373244764191,0.662393162393168,1
0.5060515615997271,0.23655825596004978,0.7829733633609393,0.4712615604702449,0.5171351873491399,0.666666666666667,1
0.495364333737062,0.23487862433954954,0.7856355983812957,0.48008000470452916,0.5178673820562794,0.666666666666667,1
0.5054769519005168,0.23656296521674947,0.782832446471236,0.4631301920650355,0.5156710840601872,0.666666666666667,1
0.49444366110795357,0.2348783592307881,0.7856850208348878,0.4304959261192822,0.5145732211874654,0.666666666666667,1
0.4992270062375793,0.23656124545101812,0.782826646604978,0.4521167125719284,0.5098146709043729,0.6623931623931654,1
0.49982198223619856,0.2348806911696457,0.785568324106249,0.4935664475204423,0.5120109689004659,0.6623931623931698,1
0.5124967496919461,0.236559198884734,0.7810966942093198,0.4757910144752863,0.5112787741933269,0.6623931623931654,1
0.49999527789382103,0.2348818053628434,0.7836700715427575,0.44892666551567895,0.5112787741933267,0.6623931623931698,1
0.5081320295226238,0.2365593863338166,0.7816126023885263,0.42769251356345245,0.5090827623225589,0.6559829059829116,1
0.496265823350722,0.23488077866582166,0.7849161936354854,0.48297039871492414,0.511278774193326,0.6559829059829099,1
0.5092042775101376,0.23655706396949105,0.7828218973524834,0.4743779524567115,0.507984613324513,0.6559829059829116,1
0.4996346356962128,0.23491506060296347,0.7857049483485816,0.4575353564544404,0.5098146709043734,0.655982905982909,1
0.5028722347420644,0.23543168469426537,0.7805481913590573,0.4203951018681789,0.5087165219063274,0.6559829059829054,1
0.5042803978326944,0.23435640315971876,0.7800600533369524,0.46717461380310116,0.5120109689004655,0.6559829059829054,1
0.5155407297779604,0.23761254212953362,0.7802225179625659,0.48202795589009456,0.5142069807712328,0.6559829059829054,1
0.49754792053100527,0.23712880606681233,0.7855160376406978,0.4655860475738893,0.5149391754783725,0.6559829059829054,1
0.5094338650059768,0.2361309366852173,0.7815292667662839,0.4419086493179297,0.5156710840601864,0.6559829059829054,1
0.5019063887247879,0.23657294895040779,0.7865198197535217,0.4788658501464795,0.514939175478373,0.6559829059829054,1
0.5094176314270871,0.2361658667472855,0.7802628928010977,0.4724751463963319,0.5142069807712346,0.6559829059829054,1
0.5054929827640968,0.2348652455720179,0.7795776068386011,0.4323213095611229,0.5109128199024198,0.6559829059829054,1
0.5016144615010019,0.2343105635803906,0.7800024614156504,0.4183035303455016,0.5112787741933271,0.6538461538461569,1
0.4818211598328722,0.22441186415014322,0.7866645953705166,0.4567003286004619,0.5079846133245125,0.6538461538461604,1
0.483970446130486,0.2151148621218842,0.779916500826559,0.4732989083285204,0.5083505676154192,0.6538461538461569,1
0.48881835140480334,0.20977832763042206,0.766293520422692,0.4505302801385182,0.5101806251952805,0.6538461538461604,1
0.52847055169685,0.21741838377061834,0.739196097435316,0.4172491493436373,0.504690452455699,0.653846153846156,1
0.5695607986537115,0.24891536363812977,0.7299033393803254,0.4648383482308607,0.4940757751421181,0.6538461538461542,1
0.6077599024991271,0.27403065549287536,0.7032855848191313,0.5299907629711152,0.45674099821114456,0.653846153846156,1
0.6045504804365549,0.28025659663711144,0.7040266729852944,0.46826517814885243,0.44136777061447163,0.6538461538461542,1
0.6051641521156883,0.2848351332846288,0.7049285406385106,0.429065165147537,0.4322171965898436,0.6538461538461542,1
0.6018488064697196,0.28209028679229065,0.7105938356758543,0.43623452159766724,0.43331534558788953,0.6538461538461569,1
0.607883845278953,0.28185986542389063,0.7086790501613888,0.4567942617197607,0.4300208985937508,0.6538461538461542,1
0.6035897790689235,0.2792593080138982,0.7092254495160091,0.4500243094431202,0.42928899001193677,0.6538461538461569,1
0.6078476577890282,0.28013116735564725,0.7008901239529164,0.47035738549401035,0.424896680145076,0.6495726495726535,1
0.6035209512204878,0.27846137868559045,0.7034465971566701,0.49287809347812317,0.42562858872689047,0.6495726495726517,1
0.6079293782289825,0.2843813823843108,0.6996529656604167,0.4398960532523997,0.42526263443598333,0.6495726495726535,1
0.603441639106026,0.28413292270948154,0.7037407677417489,0.44873116366802884,0.42343257685612334,0.6495726495726508,1
0.6080071807573402,0.2863298495246658,0.6988427477091474,0.4876043638114559,0.424621141456927,0.6495726495726473,1
0.6033469670011633,0.2882469145416713,0.7028821773616127,0.44622743556318695,0.42059507200629875,0.649572649572649,1
0.6082842453808186,0.29012505440014846,0.6987825823369884,0.4720857667356083,0.4213269805881128,0.6495726495726473,1
0.6072857775577045,0.2888209419005231,0.702969270942368,0.47411292385010056,0.4165687164303453,0.6495726495726473,1
0.6088200189993875,0.290010988908254,0.6986880814907896,0.4442509269166069,0.41547056743229915,0.6538461538461542,1
0.6030601404740552,0.2888776393800131,0.703069355015711,0.4708700979904832,0.4125423608543921,0.6538461538461542,1
0.6082839815350432,0.28997259639531225,0.6985820306985004,0.4573758464217871,0.4132742694362068,0.6538461538461542,1
0.6031347272076466,0.28888152518258003,0.703181618964455,0.4395234396436216,0.40888195956934736,0.6538461538461542,1
0.6082843425166291,0.2867681555096909,0.6984661077049017,0.4723560533162934,0.40815005098753177,0.649572649572649,1
0.6031054031399989,0.2858390285162819,0.7032787594185704,0.4654644173389653,0.40668594769857913,0.6495726495726535,1
0.6083334948355783,0.2858533099644027,0.6988117902718998,0.4367812353782362,0.4022936378317188,0.649572649572649,1
0.6030335256960953,0.287160941527121,0.7074077694049784,0.4617616647034559,0.4019276835408119,0.6495726495726535,1
0.6084455621315799,0.28980038808514175,0.706185034336205,0.4756522841929749,0.4015614431245791,0.6538461538461569,1
0.6027907148998728,0.2874732025582795,0.7124754036347116,0.45846786444332993,0.40485589011871914,0.653846153846156,1
0.6057749926261828,0.28882576882705446,0.7076521308978501,0.4372497261731285,0.40558779870053274,0.6538461538461569,1
0.595954236078521,0.2836214884146292,0.7143871388635551,0.4592157618771308,0.41181016614725374,0.6538461538461569,1
0.5998687094606436,0.2818499073689668,0.713534883557829,0.4819474725247172,0.41473837272516034,0.6538461538461542,1
0.5880494375241065,0.2810207133416778,0.7269895798183104,0.45069301209668183,0.424621141456927,0.6538461538461569,1
0.5850906617188125,0.2792105521823847,0.7271278003321263,0.4536371796101294,0.4275493480348338,0.6538461538461542,1
0.5597988468140414,0.26608792570948847,0.7403806693865649,0.4733517945979982,0.43523581877050743,0.6538461538461569,1
0.5645940757123187,0.25841129980525324,0.7345220125745003,0.4522213874860326,0.43853026576464726,0.6495726495726508,1
0.5505735251042403,0.25404758845088815,0.7468134597570533,0.42878441393374883,0.4440207246295529,0.649572649572649,1
0.5485890004948324,0.24941544748116012,0.7429334769412794,0.4627263007370966,0.43706616247569396,0.6495726495726508,1
0.5364561248705335,0.24295039406219646,0.7565809155079344,0.4576634569993083,0.4403603233445086,0.6495726495726473,1
0.5367196923321493,0.23713550775044667,0.7554335196847426,0.4416550548413092,0.44548454179318164,0.6538461538461569,1
0.48616034230501304,0.2289665359406854,0.7924032031907317,0.4564386007783257,0.472936549992389,0.6538461538461569,1
0.44469703830203344,0.21748503941846822,0.801072410812016,0.48188004539971174,0.48355122730596967,0.6538461538461569,1
0.4638018488562383,0.21205457128317054,0.7889043893463463,0.45909476159307194,0.4875775828819233,0.6538461538461569,1
0.5305773368425535,0.2504914944326567,0.7626117941543938,0.4324315606264892,0.48830977758906235,0.6559829059829116,1
0.5583088540453869,0.273124388807922,0.7716318705641344,0.4824175494329015,0.49379995032864277,0.6559829059829099,1
0.5376281116195216,0.2767187503827056,0.7511025528724585,0.5107392068020586,0.4945321450357827,0.6559829059829116,1
0.5701829905462097,0.27197841725012595,0.7917307372134484,0.4630033504220639,0.4937999503286439,0.6559829059829099,1
0.6920805002644159,0.29883843484384653,0.5637085156388908,0.4651301086734116,0.4872116285910144,0.6559829059829054,1
0.6938922723478511,0.4022894670731131,0.4260510160771712,0.41479031329050814,0.46415193025866874,0.6559829059829072,1
0.6834543118895027,0.4454029075692811,0.5731246848073421,0.413382907867361,0.45426944765222665,0.6559829059829054,1
0.754425295699217,0.4458002580355555,0.5590368611455739,0.4439076777160635,0.4626878269697152,0.6559829059829072,1
0.6953804441192264,0.3755472071210332,0.414095712192845,0.5172198477422177,0.46158967797166817,0.6538461538461569,1
0.7049201936246619,0.4320221485985659,0.3612299030301689,0.4295743505452604,0.46232187267880787,0.653846153846156,1
0.6859753226079144,0.4599953045685035,0.4172077617758204,0.4318702381613153,0.45426944765222665,0.6538461538461569,1
0.6748590103990806,0.4265603021864054,0.3866983219354517,0.5062575422926862,0.4582955171028553,0.6538461538461569,1
0.730422790115224,0.38044991107579423,0.39120447848000306,0.4466645001332242,0.46342002167685314,0.6538461538461569,1
0.6848274791953521,0.3681136019720449,0.3691239845817015,0.48458871552190586,0.4648841249658078,0.6538461538461604,1
0.695658802377926,0.3539777696690585,0.3740080539920804,0.44985995631750453,0.4608577693898541,0.6538461538461569,1
0.6680239831744252,0.37054674172983987,0.356140646762619,0.44746243088471055,0.4601255746827144,0.6538461538461604,1
0.6931762345501222,0.37136141379296084,0.3758024784341525,0.4582148578879095,0.4575636085210404,0.6538461538461569,1
0.6866511152530295,0.36954333080436924,0.41109371630822306,0.4839539928936035,0.4531712986541805,0.653846153846156,1
0.725946691204016,0.360666505827971,0.47249434659918993,0.41585898865096926,0.4495108973691342,0.6538461538461569,1
0.6819157251307193,0.34473995658646595,0.5614059297246421,0.5022472314394589,0.4451185875022752,0.6538461538461542,1
0.7178685529842435,0.3306726058492142,0.5488030882366248,0.43560585831349263,0.44255662134060025,0.649572649572649,1
0.6973354808078451,0.34835754094554144,0.5397976686702478,0.4276657690928655,0.44658269079122737,0.6495726495726508,1
0.7290399049520659,0.37118602064879136,0.5445994344374253,0.488649664165249,0.4476808397892733,0.649572649572649,1
0.6880944965081377,0.3551960549440922,0.5804127665267946,0.5117522219033915,0.44548454179318164,0.6495726495726508,1
0.685715700069021,0.4023821406950176,0.6032659117233988,0.41343072790135227,0.44877898878732037,0.653846153846156,1
0.7002053038371661,0.37628919289939966,0.6083530860262031,0.4809847774350625,0.4399943690536001,0.6538461538461524,1
0.7106948584372572,0.41257359804938987,0.5817793477794507,0.4539576668527138,0.43816402534841514,0.653846153846156,1
0.7043175524746035,0.4077612449707919,0.5949238947163805,0.4642630454344735,0.4396281286373678,0.6538461538461524,1
0.7076459230158465,0.4311937009951066,0.5916048453205563,0.39008993911381207,0.4399943690535997,0.6538461538461569,1
0.6898754075257834,0.40069426396344593,0.6015863181582997,0.5678377177389369,0.44328852992241385,0.6538461538461604,1
0.7205779505541585,0.3945060430141397,0.566376320536542,0.6182606458562094,0.4337717154815546,0.6538461538461569,1
0.6944527314192852,0.3887658800362529,0.5867394165019373,0.3223122470372992,0.4297456460309266,0.6538461538461586,1
0.7250698534665976,0.39607410013288114,0.5633199074895994,0.3274306035068347,0.4308437950289723,0.6495726495726508,1
0.6864329433451306,0.37797412227043076,0.6246633575484335,0.5252627904348156,0.4345039101886947,0.649572649572649,1
0.7551934167962289,0.3609052784722022,0.538796804521238,0.33494588520493773,0.44145847234255364,0.6495726495726508,1
0.7213880179308874,0.4484806785967348,0.4954813157260809,0.6883082132456585,0.4846493763040163,0.649572649572649,1
0.6399141197506888,0.42167638260231866,0.648055252463049,0.5537012532493782,0.5051471084746888,0.6495726495726473,1
0.6261473763341809,0.4914296826450769,0.6696757476768602,0.10447382362526719,0.5058790170565028,0.6495726495726517,1
0.7927230395175409,0.3797039861305124,0.42791409741625586,0.3613857046989134,0.47074053812162187,0.649572649572649,1
0.6009762627816673,0.30605602077216565,0.680266572346835,0.37851389306595024,0.47366874469952713,0.6495726495726517,1
0.4086104882147302,0.26552411530219877,0.8691111556889927,0.5683314876082317,0.49379995032864366,0.6495726495726508,1
0.455118542123635,0.29779277542571114,0.8406979248810635,0.7290144905698865,0.5014867071896425,0.6495726495726473,1
0.4491691538038056,0.2741790682733285,0.8418522517336471,0.4888759474537493,0.4846493763040163,0.649572649572649,1
0.4065872612352055,0.23083469989401187,0.8403225146943532,0.37783400801700373,0.4791592035644343,0.6495726495726473,1
0.3683830050897371,0.22092357016928252,0.8566605635357845,0.41992139663314093,0.4784270088572946,0.6538461538461569,1
0.39609393987646024,0.21372108912876644,0.8333988804734707,0.43802870276305395,0.476962905568342,0.6538461538461569,1
0.46539053029382993,0.2256469263475635,0.8044749708679094,0.5107198558081448,0.4744006532813423,0.6538461538461569,1
0.5095939355912719,0.241510973888233,0.7830872151271318,0.4830892225052674,0.4765969512774346,0.6538461538461569,1
0.5117308459423842,0.2579196070391396,0.7865313071899337,0.412771336148228,0.48098926114429497,0.6538461538461506,1
0.5062864064681746,0.25131106865885056,0.7820834384668645,0.46606462398979076,0.4765969512774346,0.6538461538461506,1
0.5081430562705662,0.25640926152222243,0.7897731905100969,0.46862668781887407,0.47623099698652815,0.6538461538461524,1
0.5209187155715448,0.2504819363402023,0.7751508445545294,0.44532311423851795,0.47659695127743595,0.6538461538461506,1
0.5167256896153848,0.2559122675901626,0.7755204351666241,0.4366381887914988,0.47696290556834064,0.6452991452991439,1
0.5155949873074521,0.24992060951587364,0.7759658711385509,0.45908868357326327,0.4718384009943417,0.6452991452991457,1
0.5093980278093243,0.2465471798047517,0.7777648257585406,0.4720199831206763,0.47037429770538886,0.6452991452991439,1
0.510897551130471,0.24434405182405483,0.7800770514550793,0.43415120095446863,0.46927643483266723,0.6452991452991457,1
0.5092205021030898,0.2508972453930766,0.7828392883940172,0.47890475947325495,0.46744637725280747,0.6452991452991501,1
0.5165292294629674,0.2544169961619691,0.7752756705187316,0.4937554636460357,0.4656160335476216,0.6452991452991501,1
0.5117310779929781,0.25838618962541865,0.7761436735873211,0.44759188056322485,0.4656160335476216,0.6452991452991501,1
0.5160738148711627,0.25589701468781745,0.7739878913071289,0.43369066063417083,0.46268782696971567,0.6452991452991519,1
0.5090243108937084,0.2540655165053858,0.7768544154827814,0.4925625546893886,0.45866147139376223,0.653846153846156,1
0.512783831549885,0.2505870917512004,0.7784109187256298,0.4488480429397124,0.45646545952299444,0.6538461538461569,1
0.509674322076385,0.248868116237659,0.7815730262684237,0.4627470051214278,0.45573355094117995,0.653846153846156,1
0.5123813049136261,0.24632817443234067,0.7757339134246786,0.4823680797293146,0.45683141381390113,0.6538461538461569,1
0.5099767086022041,0.24788302831909298,0.7760844650643496,0.4632147311107028,0.4528053443632738,0.649572649572649,1
0.5121352198910576,0.24588308004926426,0.7739511982363637,0.4242468745893707,0.4520731496561341,0.6495726495726473,1
0.5101854089570484,0.25077413472847165,0.7759197706960561,0.4637063858984937,0.44731488549836707,0.649572649572649,1
0.5119540040935694,0.2456883356079857,0.7741882873646317,0.48807961604755123,0.44768083978927464,0.6495726495726473,1
0.5103449471839243,0.24748838539665322,0.7774505153255632,0.4672876347223921,0.44621673650032134,0.6495726495726473,1
0.5118125198415149,0.24554466518336412,0.7762986802470806,0.4293846982750593,0.44658269079122737,0.6495726495726473,1
0.5104706556844795,0.2469611497591668,0.7798895213790957,0.43788573021500815,0.4447526332113676,0.6495726495726473,1
0.5117012856897307,0.24431044831695517,0.777917898441518,0.47543429937834925,0.4425566213406007,0.6495726495726473,1
0.5105678397838306,0.2478209512298536,0.7806527095844722,0.4625364524353491,0.4399943690536001,0.6495726495726535,1
0.5116187445915417,0.2452532043815951,0.7752800009799518,0.44451383110506565,0.4425566213405996,0.6495726495726517,1
0.5106336246435228,0.2475956978366429,0.7789421482506049,0.43164631205332893,0.433039806899741,0.6495726495726517,1
0.5115746550097302,0.2453873951893595,0.7756327621105767,0.4824022616215888,0.4359680134776476,0.6495726495726508,1
0.5106446634986099,0.2474834069130665,0.7753606401823951,0.47778805547684067,0.4374321167666002,0.6452991452991474,1
0.511626497799083,0.24551287760683801,0.7750118204452274,0.4482939413244448,0.4359680134776467,0.6452991452991483,1
0.5104217264151627,0.24727509288219898,0.7764452077540239,0.4479749240410563,0.4370661624756944,0.6452991452991474,1
0.5131162704761876,0.24643413293665087,0.7740244328448125,0.48695534639547056,0.4341379558977865,0.6452991452991483,1
0.5121076054526252,0.2481323815368838,0.775835669519444,0.46358622658403914,0.4348698644796003,0.6452991452991457,1
0.510770697625926,0.24595845684442444,0.7741907060152955,0.4327287503484206,0.4341379558977867,0.6452991452991439,1
0.5113187759568272,0.25014025940087536,0.7757445604816318,0.4552070155367839,0.43486986447960163,0.6452991452991457,1
0.5109518995083423,0.2475270585974671,0.7742507645301435,0.48618662083986597,0.43120946319455467,0.6452991452991457,1
0.5112551006964143,0.24741872741191,0.775704766590225,0.4502731165996576,0.43413795589778603,0.6452991452991439,1
0.5109733589160844,0.24684574863079864,0.7742707917205326,0.43637919919125384,0.4323078983179256,0.6452991452991483,1
0.5112520526896613,0.24743021680824423,0.7757134272658789,0.4712166880702344,0.43157570361078723,0.6452991452991439,1
0.510968360638892,0.2454927417446569,0.7741980546346661,0.48165472137810245,0.4323078983179267,0.6452991452991483,1
0.5112593218721617,0.24743472204970476,0.7760894291250975,0.44418907536050806,0.4308437950289732,0.6452991452991501,1
0.5109630800426698,0.24548868699525156,0.7753521899314255,0.43503562339700513,0.4337717154815546,0.6452991452991501,1
0.5112581999591096,0.24744243190705476,0.7752632835763604,0.47142466167834357,0.42974564603092635,0.6452991452991501,1
0.5109769698164838,0.245472167044425,0.7746180947273456,0.47174076188294767,0.43084379502897296,0.6452991452991474,1
0.5112195689255149,0.24747892724564757,0.775381679522384,0.4413141513337527,0.43047755461274084,0.6452991452991474,1
0.5110690760154383,0.24537566410900782,0.7745784949992951,0.453138905517473,0.42937940561469445,0.6452991452991483,1
0.5109771686287216,0.24801118176060996,0.7753958515086439,0.47961797456111643,0.42681743945302,0.6452991452991474,1
0.5122254868223508,0.2473686774054593,0.7745745459477895,0.4572362629618132,0.42864749703287996,0.6452991452991483,1
0.513037804261142,0.24785322912836602,0.7753960831633284,0.43809018190575844,0.4275493480348327,0.6452991452991439,1
0.5101564944926831,0.24525251873834905,0.7745740628650095,0.47633808157496277,0.4275493480348329,0.6452991452991439,1
0.5119091303789084,0.24802517046172487,0.7754005990172366,0.4654739358529096,0.42681743945302,0.6452991452991439,1
0.5103415086709497,0.24658488647699534,0.7745596937794584,0.43573848718037755,0.424621141456927,0.6452991452991439,1
0.5119334320287271,0.24713492233110465,0.7754383572378224,0.46216370941625995,0.4257192904549736,0.6452991452991457,1
0.5124613962308918,0.24557299217712347,0.7744483789180405,0.4791637018855059,0.42315703816797257,0.6452991452991483,1
0.5134661982984575,0.24835972598459646,0.7763482387686683,0.43808179829032434,0.42462114145692786,0.6452991452991457,1
0.5117299745362247,0.24750395779404816,0.7750215966876978,0.45363513191233595,0.42425518716601895,0.6452991452991483,1
0.5111770290935624,0.24700062815788842,0.775139537068599,0.47732162737821676,0.4242551871660196,0.6495726495726535,1
0.5108839018408475,0.24586522708008224,0.7747854318339507,0.4604087219889401,0.42132698058811346,0.6495726495726517,1
0.5114143546923056,0.2470769262240765,0.7763609241215892,0.4327980196508686,0.4231570381679748,0.6495726495726535,1
0.5107667094679662,0.2458647616690709,0.7747616158689916,0.4659831262968035,0.42242484346083464,0.6495726495726535,1
0.5114853019661543,0.2469788309150363,0.7752109869979683,0.4765448364459587,0.4220591752952516,0.6452991452991439,1
0.5107199436364923,0.24647951547030608,0.7747608415546936,0.4507952048520914,0.421326980588113,0.6452991452991501,1
0.5115156307387838,0.248209683978363,0.7752075148017629,0.4374835130854733,0.41913068259202135,0.6452991452991439,1
0.5107049203328794,0.2465317668323381,0.7747668706022907,0.4758429066368757,0.41949692300825325,0.6452991452991501,1
0.5115099956002028,0.24925437519657076,0.7751998716710988,0.47256413999392755,0.4180328197192986,0.6452991452991501,1
0.5107512438549937,0.24654282256115734,0.774775561118076,0.4435442009660074,0.4205950720062994,0.6452991452991474,1
0.5113380782953407,0.24809083727091752,0.7751904938612942,0.45865717318659643,0.41839877401020575,0.6452991452991501,1
0.5130566425664829,0.24741719693259978,0.7747853874375098,0.4822620209358641,0.41839877401020664,0.6452991452991474,1
0.5145194631735872,0.25166302815248986,0.7751803827764046,0.441281325323188,0.4147383727251601,0.6452991452991474,1
0.5097541540751743,0.2501627654826648,0.7747956679421302,0.4449805012690504,0.415104613141392,0.6452991452991483,1
0.5129922816822328,0.2480702179102417,0.7751700159161453,0.4774839656992057,0.4154705674322994,0.6452991452991474,1
0.512256208089646,0.24730626266266761,0.7748060602091972,0.4695741931697228,0.4147383727251597,0.6452991452991483,1
0.511291877591784,0.24867633733285782,0.7751596437284747,0.42994149970360507,0.41510461314139313,0.6452991452991501,1
0.5107285670798276,0.2468812108969568,0.7748163777913157,0.45835889404248087,0.4132742694362075,0.6452991452991483,1
0.5115825892165243,0.2464527066778678,0.7751494074677625,0.4804018504049171,0.4143724184342541,0.6452991452991501,1
0.5105858367927948,0.24665481822596197,0.7748265115426927,0.462491917150335,0.4125423608543921,0.6452991452991483,1
0.5116855054914721,0.24784764557967515,0.7751393936089344,0.43135547975945693,0.4132742694362075,0.6538461538461586,1
0.5104872109686797,0.2475380779651178,0.7748363905610084,0.45634927748588633,0.41290831514530013,0.6538461538461613,1
0.5118065240332509,0.24799323575478052,0.7751296631056253,0.4821404954336568,0.4129083151452999,0.6538461538461586,1
0.5102974566044207,0.2465950681742136,0.7748459590803636,0.4610350792874841,0.4081500509875329,0.6538461538461613,1
0.5145965932534887,0.249108653524642,0.7751202709082419,0.44129183422021545,0.4110782575654395,0.6452991452991501,1
0.5122633118602085,0.24680316066081992,0.7748551585643675,0.46675400288191515,0.4099801085673931,0.6452991452991501,1
0.5151024536346543,0.2474966832697652,0.7751112839982278,0.4801275055755155,0.40998010856739375,0.6452991452991501,1
0.5190905125204435,0.24735102848003276,0.7748639077617258,0.44399418990399925,0.4088819595693469,0.6452991452991519,1
0.5138601848709614,0.2483485305092923,0.7751028053646618,0.44929831227133804,0.40888195956934736,0.6452991452991501,1
0.511238131298671,0.24719493793999095,0.7748720718533486,0.48019782884992857,0.4085160052784391,0.6452991452991546,1
0.510687334621315,0.2528479626550534,0.7750950158801857,0.4536969968345623,0.4085160052784387,0.6452991452991501,1
0.5127691719125749,0.24811702107390912,0.7748794031348103,0.43579855007869356,0.40851600527844023,0.6452991452991537,1
0.5149518911932358,0.24708347939452782,0.7750882614759933,0.4722034353052268,0.40631999340767266,0.6452991452991546,1
0.5110044958987848,0.2457512457528372,0.7748854083304937,0.4713488317297481,0.4092479138602536,0.6452991452991546,1
0.5138518618623984,0.24716184357457616,0.7750832626526936,0.43691597379563646,0.4048558901187196,0.6452991452991546,1
0.5099020734961788,0.24579068479269595,0.7748890037467654,0.45389111943682403,0.4074178562803945,0.6452991452991537,1
0.5118730483487908,0.24726359041807935,0.7750817110784789,0.48053017604706844,0.4044896497024868,0.6452991452991457,1
0.5114533565632179,0.24868641547718806,0.7748874161911761,0.4479500829563172,0.4074178562803936,0.6452991452991474,1
0.5136990159652053,0.2491204432433862,0.7750884707927421,0.4348289524524326,0.40631999340767244,0.6452991452991457,1
0.5113987216475964,0.2482074630078109,0.7748712186637394,0.47728217362127545,0.4041236954115799,0.6452991452991474,1
0.5165289632722918,0.25326613575795376,0.7751250730658554,0.47730825549027495,0.40448964970248635,0.6538461538461586,1
0.5216374275872945,0.25548271823954155,0.774771955110264,0.4431085258164888,0.40485589011871825,0.6538461538461569,1
0.5241850695946484,0.2571376753340745,0.775964754281147,0.4639938556812881,0.40448964970248724,0.6538461538461586,1
0.5251596729204008,0.2559544816439001,0.774063362323001,0.4814114140445992,0.40229363783171834,0.6538461538461569,1
0.5271150889008906,0.25824964295961605,0.7752396554196808,0.44446917804325586,0.4030255464135335,0.6495726495726535,1
0.5299619096479429,0.25629949307714894,0.7717533431163741,0.4564588871340627,0.39899919083758006,0.6495726495726553,1
0.5305137287246955,0.2578937602191641,0.7743925225482884,0.47988841765814055,0.40412369541157944,0.6495726495726535,1
0.5293258455860534,0.258451035530715,0.7748430021974708,0.44177728015000217,0.3993654312538124,0.6495726495726553,1
0.5309841384007832,0.2591607919438677,0.7723966998754724,0.44091612898728405,0.4004632941265329,0.653846153846156,1
0.5283245169325803,0.2556744206845786,0.7744072038543899,0.4796610421239354,0.39716913325771963,0.6538461538461542,1
0.5288549409149048,0.25880859235524506,0.7745819721277545,0.45566795074677824,0.39204491480904613,0.653846153846156,1
0.5295747373927715,0.25400425858511566,0.772506249348378,0.4297929153715746,0.39716913325771963,0.653846153846156,1
0.5246384148414027,0.254847274998101,0.7721143578288521,0.4644409145938984,0.3964372246759058,0.6495726495726535,1
0.5252947545219354,0.25435023227721,0.7711412149685211,0.47401792152871647,0.3993654312538124,0.649572649572657,1
0.5243107587520064,0.2555093855060696,0.7691247973115636,0.44506836489115364,0.3975350875486272,0.6495726495726535,1
0.5293271907314916,0.2567851363800061,0.7708775559289571,0.439600835268688,0.3979013279648589,0.649572649572657,1
0.5280975129744039,0.25779361750331303,0.771115862637059,0.4855476022075235,0.39350901809799854,0.6538461538461569,1
0.5299588650076796,0.2565599436315423,0.769747881477723,0.4743934661321256,0.3968031789668123,0.6538461538461569,1
0.5283078564334289,0.2578756022376635,0.7710440932159917,0.44186488870033147,0.3942409266798128,0.6538461538461586,1
0.5286399145658478,0.25652595380986554,0.7726863232063786,0.4693855508779663,0.39753508754862676,0.6538461538461569,1
0.5285016157544027,0.2578849293848017,0.775018147955033,0.47943764655966475,0.3949731213869525,0.653846153846156,1
0.5295549154574726,0.2565340904049467,0.7726933304417489,0.4401547064882889,0.3975350875486263,0.6538461538461569,1
0.5277272491040874,0.2578596510256709,0.7724965204592851,0.44449819625261267,0.39607127038499823,0.653846153846156,1
0.5307990388003301,0.2565826016159808,0.7702671685248113,0.4815245479791848,0.39643722467590514,0.6538461538461569,1
0.5286636696630338,0.2577683475241434,0.7717309242701342,0.4583462424119726,0.39753508754862654,0.6495726495726508,1
0.5286985077921615,0.2567898599550944,0.76996038171085,0.43274630951838317,0.3957050299687661,0.649572649572649,1
0.5260707647804939,0.25616289173713697,0.7722890668983154,0.4695387533435837,0.39497312138695406,0.6495726495726508,1
0.5218562728698721,0.2534765949560657,0.7729877627675792,0.47625740592850185,0.39277682339085973,0.649572649572649,1
0.5303580713465277,0.2568627622485685,0.7726511270642964,0.43694431925346516,0.39424092667981325,0.6538461538461542,1
0.5262947766915141,0.2551749970259261,0.7702521664440292,0.4413256971640985,0.39314306380709185,0.6538461538461569,1
0.52793347774503,0.2582955192167462,0.7700975764552924,0.4826875775556836,0.3938749723889059,0.6538461538461542,1
0.5244270293288056,0.25622541374461616,0.7736675310160902,0.4667617397109569,0.39167896051813833,0.6538461538461569,1
0.529106500271584,0.2581377612471436,0.7736043138121546,0.4406794898073215,0.39241086909995215,0.6559829059829116,1
0.5242642313227546,0.25630244893027554,0.7729524343717323,0.4695789835156627,0.3902145711038598,0.6559829059829099,1
0.5273619654951227,0.25808654824449256,0.7720578119127834,0.47387514913385353,0.39167896051813833,0.6559829059829116,1
0.5292611526860236,0.2563442976902951,0.7726111882107113,0.43710253718126274,0.3913127201019069,0.6559829059829099,1
0.5300617039584741,0.258044614129637,0.772381954930303,0.46319658260391494,0.3909467658109993,0.6559829059829072,1
0.5272784344871858,0.25639676960075053,0.7733499260749317,0.47608708370217334,0.3872863645259528,0.6559829059829116,1
0.530981239083925,0.2579609701477726,0.7724172718840727,0.4342476774496379,0.38801855923309203,0.6559829059829054,1
0.529392238087288,0.2565789505862224,0.7696116454934314,0.4544664381563092,0.38948266252204533,0.6559829059829099,1
0.5280248413077497,0.2570425356296301,0.7708066565354101,0.48148240583249224,0.38875046781490585,0.6538461538461604,1
0.5302111707941868,0.25577596096661903,0.7746262654875682,0.44020247313594557,0.3880185592330925,0.6538461538461586,1
0.5255927567892843,0.2573846821594749,0.7741625140610722,0.4520478119259193,0.3883845135239994,0.6538461538461604,1
0.517756718243355,0.2510720939088845,0.7726236463710308,0.4833791416041178,0.38765260494218534,0.6538461538461569,1
0.5239842465676722,0.2562575476220783,0.7736244594793102,0.44049107041661256,0.387286364525953,0.653846153846156,1
0.5256721518599268,0.25480870846307335,0.7749501130445912,0.445016781709977,0.38911670823113886,0.6538461538461569,1
0.5271931555167683,0.2571677212701926,0.7716341713637824,0.48064907601766155,0.38765260494218534,0.653846153846156,1
0.5267504761260164,0.2535690761157516,0.7725696843971144,0.451164853047228,0.3836262493662319,0.6538461538461569,1
0.5272026699775291,0.25302023727993006,0.7737040807138584,0.4545510950032823,0.38435844407337094,0.6559829059829099,1
0.5097702320415662,0.2456201644178089,0.7734880042937384,0.48429946745419516,0.3847243983642781,0.6559829059829099,1
0.5190465232375884,0.2567803737296609,0.7784604629703853,0.449960958806517,0.38435844407337205,0.6559829059829099,1
0.5152570222873661,0.2585573451265493,0.7773764352433947,0.45847987288861036,0.3843584440733716,0.6559829059829099,1
0.5210129254989787,0.2563979960336983,0.7760166808118218,0.4725418228397017,0.38289434078441786,0.6559829059829072,1
0.5101012945595182,0.2560248161250295,0.7776979585106645,0.43460100419154035,0.38509035265518543,0.6559829059829099,1
0.5200082172346057,0.26110323696817017,0.7755151025680582,0.47193568969424926,0.3817961917863715,0.6559829059829072,1
0.5300350609760291,0.2682120070830946,0.7750472259992751,0.45450087152299024,0.38179619178637125,0.6559829059829099,1
0.5304779888331503,0.26761179895810294,0.7696471139710377,0.4273248177533538,0.38069804278832464,0.655982905982909,1
0.5293635393018439,0.26539105715893374,0.7690738212682469,0.46570858066725107,0.38399220365713926,0.6559829059829072,1
0.530914636622152,0.2583772989151454,0.7705724632098457,0.503632328574814,0.3847243983642785,0.655982905982909,1
0.5280045291290065,0.2577343024473685,0.7712943956346525,0.45625969919254783,0.38692041023504586,0.6559829059829099,1
0.5264269768500435,0.25808531950845126,0.7708278464166741,0.43289886120499355,0.38655445594413895,0.6623931623931627,1
0.525111127640626,0.25655588524723105,0.7751890365384144,0.46974983909835155,0.3887504678149065,0.6623931623931654,1
0.5280750609083134,0.25920714336974404,0.7717558377998242,0.4429501494454973,0.3894826625220458,0.6623931623931627,1
0.5301781941673434,0.25941706254018443,0.7692768866808022,0.4482654354071063,0.3891167082311384,0.6623931623931654,1
0.5301371722396138,0.26696810675838273,0.7668905767505914,0.48300829591494254,0.3887504678149065,0.6559829059829072,1
0.5298642577277792,0.2591642637180303,0.7667795693379882,0.46061052980542333,0.3883845135239994,0.6559829059829054,1
0.5301853062382766,0.2582886999451057,0.7673246706254699,0.45821788329974233,0.38765260494218556,0.6559829059829072,1
0.5298252351823993,0.2550043129142752,0.7666731294971001,0.49276488372806954,0.38765260494218645,0.6559829059829054,1
0.5244868190407179,0.2555198184175038,0.7703128805305087,0.44634182804139655,0.38728636452595366,0.666666666666667,1
0.5287508442298525,0.2542629248961202,0.7683690590101717,0.4228379768319095,0.38618850165323226,0.666666666666667,1
0.5258682894625564,0.2549808604034319,0.7718592864365952,0.46375891026034693,0.3854563069460921,0.666666666666667,1
0.5199419262600703,0.24780549187851547,0.7700999444261699,0.4745865370384639,0.38143023749546523,0.666666666666667,1
0.5240311693859189,0.2523516786152152,0.7695756637692533,0.4405861160322221,0.38472439836427874,0.6623931623931654,1
0.528092281618034,0.2549351278170613,0.767518527557327,0.4509809672319048,0.3806980427883242,0.6623931623931636,1
0.5314546658814461,0.26352754302198006,0.7695391784160837,0.4863843425862542,0.3825281003681864,0.6623931623931654,1
0.5287885499472738,0.26342401192469084,0.7682495557012881,0.46539450422431083,0.3781357905013256,0.6623931623931636,1
0.5311640112708895,0.2603124188788529,0.7656430011761325,0.44747021102479795,0.3785017447922323,0.6666666666666643,1
0.5289772164608357,0.2595432605129058,0.7711380443806276,0.4711612654697361,0.377037641503279,0.6666666666666661,1
0.5310195227097754,0.25858430850145253,0.7684902137193335,0.47592097296520564,0.3774038819195116,0.6666666666666643,1
0.529047299851684,0.2573281724812496,0.7688706407377645,0.43091405820275286,0.37630573292146474,0.6666666666666661,1
0.5278759482502702,0.258029422070804,0.7744140431186297,0.44239757277500424,0.37776983621041826,0.666666666666667,1
0.5275094890037997,0.2586568359079126,0.7730199053693689,0.46617115555423444,0.37886798520846443,0.666666666666667,1
0.5292448243680354,0.26193145903574333,0.7738417332349954,0.4401164529862979,0.3737434806344657,0.666666666666667,1
0.5281450153984963,0.25889924805713077,0.7710490039793143,0.4590393064346326,0.3755735382143264,0.666666666666667,1
0.531434604599347,0.26119960749847193,0.7716588598787916,0.4790787050642306,0.3741094349253713,0.6623931623931654,1
0.5287975514738914,0.2580668331615506,0.7723378028100658,0.44773508715994914,0.37447567534160453,0.6623931623931698,1
0.5311366629871557,0.2572342431944061,0.7730783668780683,0.4572869314745766,0.3741094349253713,0.6623931623931654,1
0.5291122067731777,0.25702024503032395,0.772805398476121,0.47746349636657415,0.37410943492537263,0.6623931623931698,1
0.5288182744730814,0.2574617229133963,0.7721904105421096,0.4382840656247428,0.3722793773455113,0.6666666666666714,1
0.5287873886158254,0.2569064147586594,0.7709302726130786,0.4443505920374196,0.373011572052651,0.6666666666666705,1
0.529851136451235,0.25753378686185624,0.7747801771540259,0.47755944684290075,0.3634947576117915,0.6666666666666714,1
0.5268524084356005,0.2568562311504933,0.7732302225942811,0.448569418706298,0.37118151447279146,0.6666666666666687,1
0.5263913533390069,0.2575693946192798,0.7743487555595097,0.45869787327230516,0.3686192621857911,0.6666666666666687,1
0.5270230279302042,0.2568330938720478,0.7739773042802841,0.48381014286518964,0.3697174111838375,0.6666666666666705,1
0.5322188043727996,0.2575776241423077,0.7743303112670414,0.4480913394976479,0.36898521647669735,0.6666666666666687,1
0.5251826712646355,0.25685258053904975,0.7719294768171756,0.466800291378651,0.36971741118383816,0.6666666666666705,1
0.5277475424353433,0.25746174611235084,0.7739887041061209,0.4774032231556737,0.3697174111838375,0.6709401709401703,1
0.5210124197183685,0.2554877101072186,0.7750902065599383,0.43770919410951675,0.3722793773455124,0.6709401709401703,1
0.5302921436830801,0.25719782916800604,0.7721277944392189,0.4675056214249638,0.370449319765652,0.6709401709401703,1
0.5234411055638734,0.25827866719425174,0.7750753235195154,0.47393244544372215,0.37008336547474485,0.6709401709401703,1
0.5223906926971691,0.25798997220135594,0.7709013919148145,0.43622046808390535,0.36935117076760515,0.6752136752136755,1
0.5280582457486409,0.261675376166014,0.7697648844685703,0.4580246652742469,0.3693511707676054,0.6752136752136781,1
0.5315766032326867,0.26166244214757006,0.7656909732336514,0.47003278576312485,0.36861926218579133,0.6752136752136755,1
0.5352202434041027,0.26587181503959956,0.7649928132607688,0.43332442594177634,0.36825302176955943,0.6752136752136781,1
0.5442394024366091,0.2684251617600648,0.7619135524060227,0.46077839697283035,0.36605700989879186,0.6752136752136799,1
0.5378349996425986,0.2678191153888199,0.7599012325487882,0.49280260012736465,0.3693511707676056,0.6752136752136781,1
0.5504990012561617,0.27069280432563086,0.7590139950191126,0.45525300287287324,0.37044931976565243,0.6752136752136799,1
0.5511500611712592,0.27031083590393984,0.7607183929733616,0.44640525510874074,0.372645617761745,0.6752136752136799,1
0.5371593050298309,0.26792564438734756,0.7621957596411538,0.4768399828238356,0.3741094349253724,0.6709401709401703,1
0.5455828848837543,0.2676188019606114,0.7596360703437088,0.4532768688403642,0.37337752634355836,0.6709401709401739,1
0.5479030542347696,0.26416674187296507,0.7615218732948452,0.42993608077152295,0.37374348063446594,0.6709401709401694,1
0.5344547877022532,0.26072274090571806,0.7651760511391686,0.4748000976658204,0.3715471826383723,0.6709401709401739,1
0.527617213923474,0.262192268087348,0.7700561233924782,0.45211934670412796,0.3719134230546053,0.6794871794871788,1
0.527021203046327,0.25495152198423654,0.773594903439434,0.4739847583060657,0.3686192621857918,0.6794871794871788,1
0.5246894648223367,0.2533269299228934,0.7742365549863182,0.471167988069389,0.3708152740565591,0.6794871794871788,1
0.5176107477596529,0.2502998359034426,0.7726739375752609,0.4243929135764184,0.36605700989879186,0.6794871794871771,1
0.52083766969925,0.25247718342030906,0.7733060240650356,0.4526836364782073,0.36935117076760493,0.6837606837606858,1
0.5225252956530325,0.25660660739554053,0.7727010885980528,0.47734439627854175,0.3715471826383736,0.6837606837606867,1
0.5245210797273085,0.2561414476177545,0.7709340180282713,0.4347758074171811,0.37227937734551175,0.6837606837606858,1
0.5236044557070801,0.25687079383041767,0.7736716136568915,0.47883472153166545,0.37484162963251166,0.6837606837606867,1
0.5282437306053152,0.2575848176352414,0.77211027306864,0.47606356288230395,0.3781357905013254,0.6794871794871788,1
0.529759152673857,0.2567953633581771,0.7680953746636008,0.4321643393831257,0.3803320884974182,0.6794871794871771,1
0.5287649676384916,0.2576370579458143,0.7691072509293442,0.4563710413001932,0.3817961917863715,0.6794871794871788,1
0.5254477483609438,0.25675872892874113,0.7716887221495441,0.4786961373385764,0.3821621460772795,0.6794871794871771,1
0.5292265265890077,0.2576628947330877,0.7674446288885732,0.44604149995892334,0.3825281003681853,0.6837606837606822,1
0.5294156892422563,0.2567409261892535,0.7720839067962056,0.45555648193133264,0.3817961917863706,0.683760683760684,1
0.5310309372087909,0.2576741206342189,0.7735505550560737,0.47840109683606463,0.37703764150327923,0.6837606837606822,1
0.5268221400832318,0.25673575992012426,0.7721404530491611,0.4421240204749472,0.37923393949937134,0.683760683760684,1
0.530758863949419,0.2576728769860611,0.7720878710313104,0.453353398797827,0.3759397786305585,0.6794871794871806,1
0.5289180540834078,0.25674486818497966,0.7695191444468277,0.4811283329740896,0.37850174479223275,0.6794871794871788,1
0.5316143942861207,0.2576525631882678,0.7697094272914908,0.4380368687514171,0.375207583923419,0.6794871794871806,1
0.5263467465374685,0.256783799433296,0.7692942915343667,0.4506163696634992,0.3748416296325121,0.6794871794871815,1
0.5278403271020577,0.2575765372937623,0.7700251477341091,0.4789341673552573,0.37410943492537263,0.6880341880341856,1
0.5301209911454066,0.2569572911271139,0.7688137507966643,0.45214357732116534,0.3777698362104187,0.68803418803419,1
0.5303395705193572,0.2569116263721578,0.772255231491783,0.45923640549978373,0.37630573292146474,0.6880341880341856,1
0.5226378013095331,0.2530293820211558,0.774646703638189,0.47796477455326836,0.379233939499372,0.6880341880341891,1
0.5237763942295115,0.25816520443151847,0.7750614189594078,0.44839104326668583,0.37740388191951135,0.6837606837606858,1
0.525199695585049,0.2563583392561939,0.7748465410226975,0.44525061727753334,0.3748416296325121,0.683760683760684,1
0.5261599942399203,0.25801606244345276,0.7759482712894743,0.47575807351478366,0.375207583923419,0.6837606837606858,1
0.5189496577344744,0.2563882151175405,0.7754209973762263,0.44227447851393314,0.37410943492537263,0.6837606837606822,1
0.5282199450784786,0.2580913944529494,0.7747398442585267,0.45425115605262123,0.3733775263435595,0.6901709401709404,1
0.5254981495030459,0.25594998043868344,0.7751859777929423,0.4727798439092879,0.3711815144727917,0.6901709401709404,1
0.5258293795093869,0.2567579064027664,0.7748152359959634,0.4375447579860284,0.3726456177617439,0.6901709401709386,1
0.5259780203121966,0.2569075225364741,0.7742616440386095,0.4567565124576117,0.3704493197656522,0.6901709401709404,1
0.52108089554485,0.2575975664395432,0.773729477735329,0.47050188402084525,0.370449319765652,0.6880341880341891,1
0.5256276568113595,0.25680576031519076,0.774795097210875,0.4383252439665199,0.37118151447279124,0.6880341880341874,1
0.5210190244955162,0.2575536334030569,0.7742163554300107,0.4729675940736941,0.3704493197656522,0.6880341880341891,1
0.5163854649943859,0.25703697647632806,0.7743576146911643,0.4658095989329343,0.36861926218579133,0.6880341880341874,1
0.5143089921513386,0.2528464790348742,0.775261729706965,0.44034430534059027,0.3675211131877447,0.6901709401709404,1
0.5142064728547899,0.2476977175339634,0.7747888644998913,0.48167760271289345,0.37081527405655845,0.6901709401709404,1
0.5140825685285163,0.24913529006014187,0.7751592763234836,0.45628910985264504,0.37008336547474574,0.6901709401709404,1
0.5152209449243398,0.25114241655257125,0.7747986490992087,0.4435702492985718,0.3693511707676054,0.6901709401709404,1
0.5190629110729846,0.2564952486052383,0.7740928012178488,0.4812533578411292,0.3693511707676054,0.6880341880341874,1
0.5175319206734544,0.25413830595538245,0.7740965180852758,0.45001682448148617,0.368619262185792,0.6880341880341856,1
0.527802362441713,0.25581468773588,0.7742304863198001,0.44882325992262434,0.368253021769559,0.6880341880341874,1
0.5204392484146271,0.2556590109174691,0.7725658789079037,0.4888583914803286,0.3675211131877454,0.6880341880341874,1
0.5234781765796941,0.25719669609808304,0.7728499809963665,0.44827921278488464,0.3675211131877445,0.6880341880341856,1
0.5218360361200701,0.2567744421298409,0.774175791138979,0.44600703282878684,0.36642296418969855,0.6880341880341891,1
0.5249930774823764,0.25775266020671583,0.7741633956728169,0.48866508355270993,0.364226952318931,0.6880341880341856,1
0.5266691808331049,0.2566328779747894,0.7743784963653226,0.45142025085838644,0.36312880332088593,0.6880341880341891,1
0.5233497764157407,0.25671780945720496,0.7752668424662552,0.44469521720206107,0.36312880332088526,0.68803418803419,1
0.5191078168968299,0.25594966473726166,0.7747618185006777,0.48462483099540965,0.36349475761179173,0.6880341880341874,1
0.5277213654939006,0.2537096584668934,0.7752087101247357,0.4491686743427258,0.3612984596156994,0.6880341880341891,1
0.5178638389490492,0.24966543637687583,0.7747201408041642,0.44167187538371905,0.36276284902997746,0.6880341880341874,1
0.5253703564394293,0.2558541776900071,0.7742302142964013,0.4827114613328185,0.3612984596156992,0.6901709401709377,1
0.5178444475792507,0.25373832673968066,0.7729890749797874,0.464333144607059,0.36386071190269886,0.6901709401709386,1
0.5235572209652029,0.2525334541947202,0.7736182686519151,0.42462196783837175,0.360200596742978,0.6901709401709377,1
0.5169403584838597,0.25392889265231267,0.7716005518237592,0.46578772194130164,0.36093279145011703,0.6901709401709386,1
0.5292067559036626,0.257781464843874,0.7747564669841647,0.4846962328734731,0.3565401954579306,0.6880341880341856,1
0.5290391931212224,0.25666636978385504,0.7722905910241631,0.4416899119853034,0.3598343563267443,0.6880341880341856,1
0.5311816851327418,0.2578448072459494,0.7711884189869109,0.4388562457763731,0.3503178280112116,0.6880341880341856,1
0.5288108194213019,0.2580538396472596,0.774895499289378,0.4893444958701211,0.3572723901650714,0.6880341880341856,1
0.531304224703504,0.2575241739140709,0.7705324227268703,0.4744073966582896,0.35617424116702523,0.6880341880341918,1
0.5287357752685959,0.2568248742848852,0.7741418893569411,0.4362773135246311,0.3565401954579315,0.6880341880341936,1
0.529519578937095,0.2575801539755328,0.7750256261583235,0.45520738093267105,0.3569064358741638,0.6880341880341918,1
0.5210066766181443,0.2569301767043143,0.7750705927614137,0.4752852599249432,0.3561742411670239,0.6880341880341945,1
0.5195060381384742,0.2560231064439764,0.7748621765734764,0.4394313593457232,0.3576383444559772,0.6880341880341918,1
0.5199104892544538,0.2549203415891317,0.7751169723464143,0.4391296701923629,0.35763834445597875,0.68803418803419,1
0.5215892880437087,0.2550924548723956,0.7748894987815729,0.48010584129117445,0.35910244774493316,0.6880341880341918,1
0.5216612560667879,0.25460452373740133,0.7743653960147887,0.46670568594166656,0.3572723901650714,0.68803418803419,1
0.522644922700276,0.25786470125279437,0.7735379613915782,0.4315674425672034,0.3591024477449316,0.6901709401709359,1
0.5224620205918297,0.2556275972502651,0.7748024958287701,0.4584987888519326,0.35617424116702456,0.6901709401709404,1
0.5274102088141779,0.2571291676524997,0.7748563449135393,0.48326316439218175,0.359834356326747,0.6901709401709342,1
0.5244769521654178,0.25688175932580504,0.7752177348661451,0.45421150006634486,0.35690643587416426,0.6901709401709386,1
0.5242775460595305,0.257626284384586,0.774631773051498,0.4394455320932007,0.35983435632674565,0.6901709401709404,1
0.5230184041736294,0.25674245419275654,0.7732118207901135,0.4761149692657058,0.36166470003193174,0.6901709401709386,1
0.5269538244797826,0.2576895183629484,0.7731822053946189,0.4710191755135693,0.35800429874688566,0.6901709401709404,1
0.5283412467243123,0.25671263241775377,0.7742603538609316,0.42941753336630534,0.35837053916311823,0.6901709401709377,1
0.527744791350927,0.25769714062943005,0.7732717554775441,0.46009275026158514,0.3583705391631171,0.68803418803419,1
0.5262356630489251,0.25672659370597045,0.7728931193503104,0.4753593008377526,0.3583705391631171,0.6880341880341918,1
0.5301049473932082,0.25765298384490487,0.7721974077329935,0.43885473785306445,0.35727239016507095,0.68803418803419,1
0.529349413748559,0.2568333218419766,0.7710799950147079,0.4574772476160664,0.35654019545793214,0.6880341880341918,1
0.5300705946389199,0.25725793111446693,0.7737466878668067,0.481492152782086,0.35288008029821105,0.6944444444444438,1
0.5240190878505536,0.2544416428449218,0.7752419810664646,0.4428542966553323,0.35580828687611743,0.6944444444444438,1
0.5239841330991476,0.25386629911331043,0.771429151659258,0.46377138002405693,0.35434418358716524,0.6944444444444438,1
0.5249868435526068,0.25026520192987706,0.7720395705434671,0.47459019442834793,0.35800429874688455,0.6944444444444438,1
0.5229195979402133,0.254250126076335,0.7757969158671076,0.4301176695954385,0.3558082868761181,0.6901709401709422,1
0.5190725185084655,0.2530552797305364,0.7744145331290329,0.4489328024028334,0.3594686881611633,0.6901709401709448,1
0.5130691316862591,0.256618601414477,0.7754545226080968,0.48436312906298407,0.35690643587416426,0.6901709401709422,1
0.5169391605809862,0.2559829496339332,0.7745771122838467,0.44869956648349263,0.35873649345402425,0.6901709401709448,1
0.5225425803198537,0.2583478971728778,0.7753417841880778,0.4645593458516587,0.3583705391631178,0.6944444444444482,1
0.5269419595158285,0.2560844943874826,0.7747168484655499,0.4805576645393557,0.3609327914501177,0.6944444444444464,1
0.5261525723201618,0.2583271200167213,0.7746554804228621,0.442062882971025,0.35873649345402514,0.6944444444444482,1
0.5219104036581181,0.2560651118595115,0.773603467250658,0.4669755833524356,0.3572723901650703,0.69444444444445,1
0.5268407687002564,0.25839839253497443,0.7732690224140746,0.474400374395136,0.35544233258521096,0.6901709401709404,1
0.5235180110181281,0.25573559226202497,0.7736503245352779,0.425652455702595,0.35727239016507095,0.6901709401709448,1
0.5173753751777707,0.25622142736664355,0.7754292679830657,0.46229509510858946,0.3576383444559774,0.6901709401709404,1
0.5175714888096066,0.25580282860855436,0.774607094123013,0.47007511373635247,0.35727239016507184,0.6901709401709448,1
0.523924813970968,0.2574153549358241,0.7731995599363019,0.4376238407545488,0.356174241167025,0.7008547008547064,1
0.5215390748905695,0.25407120481895307,0.7743875777950544,0.4673969614765977,0.35654019545793236,0.7008547008547064,1
0.5259054496997936,0.25849794451786867,0.7749234098841459,0.4820755093181055,0.3558082868761179,0.7008547008547064,1
0.522706034924455,0.25412142444103547,0.7708938834729169,0.4399909874918779,0.3547101378780724,0.7008547008547046,1
0.5306588865372914,0.25972828774435786,0.7767944667338891,0.4472025139804586,0.35324603458911863,0.6901709401709404,1
0.5236156480469948,0.2544893666781203,0.7730816173077848,0.4886146183107857,0.35324603458911774,0.6901709401709422,1
0.5273037602026552,0.2603506810843558,0.7763803021809919,0.46024843650494834,0.35104973659302563,0.6901709401709404,1
0.524998386157966,0.25204036598381074,0.7677920638907574,0.4379107148516825,0.3510497365930261,0.6901709401709422,1
0.5348091620436162,0.26457783888301023,0.7808401331394896,0.47967094057326937,0.35068378230211916,0.7008547008547046,1
0.5123818774754645,0.25900060198137276,0.7925378588542229,0.47056637370943877,0.3481215300151186,0.7008547008547037,1
0.4596721900702837,0.31710380187251874,0.8453007191714293,0.43253773072678325,0.3499518737203049,0.7008547008547046,1
0.5041348863222072,0.35437860068792565,0.729718666293955,0.44279832317148643,0.3510497365930252,0.7008547008547037,1
0.6869075283501771,0.16194000760430483,0.5096964540903121,0.483726493161196,0.36020059674297844,0.7008547008547037,1
0.5191332273963005,0.0967117350034592,0.5760976063144666,0.4166814870653923,0.33897095599049143,0.7008547008547046,1
0.45829209543804017,0.07609524243219551,0.6580764725947783,0.4796736295012876,0.3104207987932377,0.7008547008547037,1
0.4304900804853786,0.07128137926284661,0.6866223401176101,0.5451360124367884,0.293583754032936,0.7008547008547046,1
0.43122882219321623,0.06791965674940387,0.696507775142342,0.3487623779247593,0.2917536964530758,0.7008547008546993,1
0.4145032199229072,0.06522165997462664,0.7028838683702067,0.4592109188048525,0.28150497343040204,0.7008547008546975,1
0.4076199018906651,0.06601370265760537,0.7114888103462376,0.5327334817531391,0.28077277872326434,0.7008547008546993,1
0.4043376733359647,0.06288658259039681,0.7157371232120238,0.41771078135504225,0.27912355234891684,0.7008547008546993,1
0.4051500512167834,0.06165253983637814,0.7124669046203504,0.4500698591815902,0.2743650020658248,0.7051282051282053,1
0.4117810155824413,0.0642513375108083,0.7105534557544309,0.4663966547099547,0.26924078361715087,0.7051282051282097,1
0.4072404804614598,0.06369525432038614,0.7102378502899773,0.4607936360940627,0.27070488690610395,0.7051282051282053,1
0.4115060537650612,0.06381714434558494,0.7100408993201103,0.4448759495453189,0.2699726921989647,0.7051282051282097,1
0.4114467125596669,0.06507139217068314,0.710155839587948,0.43396130985337433,0.27033893261519704,0.7008547008547046,1
0.4162337575075915,0.06409661330655708,0.7101152370754439,0.48606475321116205,0.27070488690610417,0.7008547008547037,1
0.4131476185449169,0.06361242232451236,0.7101004983648448,0.47608427895504196,0.2677766803281971,0.7008547008547046,1
0.4124069423792356,0.06472837733938142,0.7101556364853714,0.4381585632641096,0.2677766803281971,0.7008547008547019,1
0.41292116585228134,0.0650767219669049,0.7100710098354317,0.4815696488903408,0.26594662274833736,0.7094017094017087,1
0.4145274540557359,0.06913754150892204,0.7101771585226566,0.4808583790790104,0.2674104399119641,0.7094017094017104,1
0.41587943258576887,0.0690527417161248,0.7100553902259222,0.4336760944851904,0.26631257703924316,0.7094017094017087,1
0.41656686860460757,0.06714762084442283,0.7101883230279251,0.4629650472220009,0.2655803823321037,0.7094017094017104,1
0.41297930037462893,0.06760582818080474,0.710047657436917,0.4849153483135498,0.26301841617042965,0.7094017094017087,1
0.41281229426423105,0.06663131796714616,0.7101933529825273,0.4420872693460072,0.26301841617042965,0.7094017094017069,1
0.41408112123406826,0.06984129378620035,0.7100448104703216,0.45799151891043377,0.2597239691762925,0.7094017094017087,1
0.416882253752516,0.06644178155241665,0.7101943840584919,0.47622324172317326,0.2597239691762909,0.7094017094017069,1
0.4164891981667208,0.07012323863133124,0.7100453442288859,0.4393669732916066,0.2589920605944769,0.7094017094017087,1
0.4163632390851205,0.0677057909673709,0.710192443488141,0.442669684653904,0.2597239691762907,0.7094017094017104,1
0.4168325141536452,0.07011339910693393,0.7100486140057037,0.4741861828852358,0.2556976136003377,0.7094017094017087,1
0.41602873883834846,0.06972390398008987,0.7101878452789843,0.45603654119658865,0.2535016017295708,0.7094017094017104,1
0.4172849277204769,0.07235147834863526,0.7100546226260958,0.43560220967029745,0.25423379643670896,0.7094017094017104,1
0.4149225366989676,0.06566887553161316,0.7101802432372886,0.46907021196371085,0.255331945434756,0.7094017094017087,1
0.41539642494504503,0.06930338036971212,0.7100641396089039,0.47047858038009105,0.24508322241208225,0.7094017094017104,1
0.4155839202709851,0.06449710535503345,0.7101682797150328,0.438889243288238,0.24874333757180378,0.7094017094017087,1
0.4124820005917188,0.06418543096481544,0.7100794302072692,0.45027567650781863,0.24727923428284915,0.7136752136752138,1
0.4139916201308689,0.06317268363190742,0.7101481466164018,0.48047080570739464,0.2469129938666168,0.7136752136752182,1
0.41378167378102304,0.06813796713228482,0.7101072038302124,0.46186508924146086,0.24618108528480342,0.7136752136752138,1
0.41763157045984867,0.06972952228593998,0.7101069654974427,0.4390933510346612,0.24581513099389607,0.7136752136752182,1
0.4156613094959791,0.07199035384734148,0.7101759520905185,0.46504860094093586,0.24727923428284893,0.7222222222222268,1
0.41744642686042444,0.07330900461555528,0.7099629517072992,0.47891755175684514,0.24654703957571078,0.722222222222225,1
0.4142906002200608,0.07165689117271784,0.7107698297092357,0.44391517155557425,0.2447169819958499,0.7222222222222268,1
0.41585297651442976,0.0690393640670135,0.710941760044133,0.4502046386361116,0.24618108528480298,0.722222222222225,1
0.41589371043856493,0.07146737074806897,0.7109498736054041,0.4787551861312546,0.24764518857375717,0.7222222222222268,1
0.4142635301393379,0.07212301669361759,0.7103462562936322,0.45197113428891283,0.24764518857375717,0.7222222222222276,1
0.417447187936402,0.07141436117858863,0.7099383747116063,0.4459384420675486,0.24801114286466341,0.7222222222222268,1
0.41569020131107726,0.07151175090479167,0.7102733628457365,0.48201850750302117,0.24691299386661725,0.7222222222222268,1
0.41666746252845344,0.07383001387011173,0.709985288899929,0.461327172712919,0.24581513099389607,0.7286324786324787,1
0.41235325205449436,0.07119990715376806,0.7102378891471418,0.43934221685165836,0.24654703957571034,0.7286324786324769,1
0.4161470860334524,0.07298646100232176,0.7100156637274107,0.47059382027387064,0.24435102770494366,0.7286324786324787,1
0.41665462104918416,0.07260001150183937,0.7102089264107649,0.47008798836590837,0.24252097012508278,0.7286324786324769,1
0.41642605983683023,0.07462287814594248,0.7100461578895203,0.4345610015078298,0.23959276354717507,0.7350427350427378,1
0.4166443092087445,0.0731631234936273,0.7101735910007223,0.4527446633832406,0.23776241984198943,0.7350427350427413,1
0.41628197942592204,0.07328184734593812,0.7100913484010355,0.4805306050449635,0.23739646555108318,0.7350427350427378,1
0.4170612021445166,0.07412045851347987,0.7101089116924673,0.45910191453304566,0.23703051126017494,0.7350427350427413,1
0.4144307824285782,0.07225780804337129,0.7101990305339858,0.4358695584574893,0.23483421326408305,0.7286324786324805,1
0.4110685408863195,0.0674447456494291,0.7098751834933621,0.46908633662506555,0.2370305112601756,0.7286324786324787,1
0.414672171947717,0.06708629561325347,0.7115074282222119,0.47865803222958764,0.23410230468226945,0.7286324786324805,1
0.41591692690731386,0.07088643543351086,0.7117692714823148,0.44876887057724224,0.23410230468226945,0.7286324786324814,1
0.4151924344427532,0.07336380150174504,0.7118877939573116,0.4369766897718462,0.2326382013933157,0.7350427350427333,1
0.4150932089458045,0.06981885688670897,0.7119167805911616,0.4702177448549904,0.23520016755498996,0.7350427350427369,1
0.4174934207088673,0.0733050088886828,0.7104765484243182,0.4702644283097924,0.230075949106316,0.7350427350427333,1
0.41568484137113204,0.07288956349068437,0.7114469155266709,0.44369259137463096,0.23227196097708314,0.7350427350427369,1
0.4172804334220265,0.07378320470378835,0.7100571879895093,0.44699844630145047,0.22970999481540932,0.7435897435897463,1
0.415809961238335,0.07433414381179382,0.7102657381377595,0.4799587103061776,0.23190600668617667,0.7435897435897454,1
0.41717032427613043,0.07485660497181162,0.7099508213525535,0.46202263137411825,0.23007594910631668,0.7435897435897463,1
0.41839186488543434,0.07430098363508048,0.7103013259742299,0.4365470632831711,0.2297099948154102,0.7435897435897436,1
0.41969791241247634,0.07486884163357443,0.7099191595397402,0.4671015874041617,0.22897780010826985,0.7435897435897454,1
0.4152246820941279,0.07428807190865672,0.7103774471137421,0.4826182793142506,0.22861184581736294,0.7435897435897454,1
0.4193652456260295,0.0748856946656557,0.709119943905935,0.44496416027339014,0.22861184581736294,0.7435897435897463,1
0.4217322317518989,0.07426541562839417,0.7088946329267091,0.43699220673011385,0.22824589152645602,0.7435897435897454,1
0.4205914026623737,0.07491767939641436,0.7097547396618298,0.4777309202794811,0.22861184581736338,0.7435897435897463,1
0.4182138735348836,0.07421452024234826,0.7103410620136077,0.4766069137086218,0.2264158339465947,0.7435897435897454,1
0.42138559241220264,0.07502672999938659,0.7099250224697049,0.4375050665720287,0.2267817882375025,0.7435897435897463,1
0.4199390594186643,0.07296374609976658,0.7103062657798769,0.4414354019028679,0.22312138695245642,0.7435897435897454,1
0.41640447770023425,0.07471807496572092,0.7099338864452742,0.48393374609874845,0.22604959353036258,0.7478632478632488,1
0.4163788184570294,0.07432904509518945,0.710307962973076,0.47190006939740564,0.22385358165959546,0.7478632478632496,1
0.4166201196396848,0.07488981026415498,0.7099252934763124,0.43740326952992187,0.22458549024140906,0.7478632478632488,1
0.4180060568341163,0.0742220999330791,0.7103225127579116,0.44615410798099203,0.22348734124336245,0.7478632478632496,1
0.41803222526318096,0.0750176855906537,0.7099072664039174,0.48367008953171675,0.22458549024140906,0.7564102564102599,1
0.4187434089221619,0.07398464738598581,0.7103094098071023,0.4616759803385583,0.22568363923945545,0.7564102564102582,1
0.4239486624524169,0.07594876965628072,0.7091533255967483,0.4385687427198911,0.22495144453231664,0.7564102564102599,1
0.4250103544397388,0.08016207622524185,0.7081442403548497,0.462408409047093,0.22604959353036325,0.7564102564102599,1
0.43074650688419824,0.07723467939735185,0.7063702589289175,0.4810216734987973,0.2253176849485483,0.7521367521367548,1
0.4261316450781858,0.07629099053060284,0.7086599042973614,0.4449697515405089,0.22458549024140884,0.7521367521367575,1
0.41684888272181,0.07443284031594116,0.7134020167320922,0.45729628948250217,0.2220232379544098,0.7521367521367548,1
0.42395592320639763,0.07836205022971077,0.7131018755013543,0.4765325882979979,0.22312138695245598,0.7521367521367575,1
0.42360144105854725,0.077991181769127,0.7141843453769465,0.448313082178229,0.22165728366350224,0.7521367521367566,1
0.42246926281468955,0.07648479120115004,0.7143459516684858,0.44568747112222146,0.22055913466545607,0.7521367521367548,1
0.41677370657119917,0.07664854989625902,0.7153975609842625,0.47505252623901034,0.2201931803745485,0.7521367521367566,1
0.4226889431034918,0.07377620481231728,0.7110285451835178,0.4515358951304636,0.2187290770855963,0.752136752136753,1
0.4194309066146922,0.07519674660796533,0.7103376019224422,0.43949363327774177,0.2165330652148283,0.752136752136753,1
0.42685371765157154,0.07403699193799507,0.709288885056923,0.4753550790723466,0.2172649737966421,0.7521367521367548,1
0.43211148384481124,0.07752635516698475,0.7089159326114287,0.45411687959357,0.21689901950573498,0.752136752136753,1
0.43113840746360876,0.07551322998260246,0.7087511115809444,0.43689131807135945,0.21763121421287512,0.7521367521367548,1
0.43325599438829476,0.07688839635902611,0.7091035790017839,0.4761225174964162,0.2147027215096422,0.7564102564102537,1
0.433045628702766,0.07624745777846981,0.7092234980102969,0.4622757110027474,0.21580087050768904,0.7564102564102537,1
0.4311931854451173,0.07847963234944527,0.7093805105162925,0.44598232976947133,0.21433676721873618,0.7564102564102537,1
0.4329219337601595,0.08112550987432643,0.7046546029080543,0.4802780582705328,0.2147027215096422,0.7564102564102537,1
0.4373914673866802,0.0837636267265705,0.7015916065315652,0.45839706825122783,0.21433676721873574,0.7564102564102537,1
0.43655805145626814,0.08480140121147917,0.7029631840653008,0.4475606814923329,0.21616711092392138,0.7564102564102564,1
0.43591168104235145,0.08302858323825807,0.7005206739666431,0.4829919450865653,0.21433676721873574,0.7564102564102537,1
0.4348391540885599,0.0842731509894567,0.7011768485765836,0.44478220526628903,0.2132386182206898,0.7564102564102564,1
0.43606596049030133,0.08483001827954262,0.700524048622221,0.4437468732501344,0.2121407553479684,0.7628205128205181,1
0.43480273061951136,0.08207764438336235,0.7012263265737732,0.4809830233449509,0.21287266392978288,0.7628205128205181,1
0.4360721490756868,0.08239587840711449,0.7003255741817167,0.44877589887373376,0.21250670963887597,0.7628205128205181,1
0.4348074731061803,0.08110463767699899,0.7032664921719473,0.439556648997382,0.21031041164278297,0.7628205128205181,1
0.4360623581069859,0.08075966823351705,0.7026102356463455,0.48569095191512046,0.20884630835382922,0.7628205128205137,1
0.4348203725821508,0.08325504739163841,0.702955195035035,0.46963385890953285,0.20921254877006157,0.7628205128205181,1
0.4360468920228462,0.08560296439008924,0.7052725147041069,0.4300389529478954,0.20957850306096848,0.7628205128205137,1
0.4348381881278581,0.08531983155222833,0.7065211961485534,0.46147896660856064,0.2084803540629212,0.7628205128205181,1
0.4360279980712096,0.08512651062007759,0.7096066779416951,0.4843438372835477,0.2095785030609687,0.7628205128205119,1
0.43485073579765066,0.08585461376899933,0.7075221265073139,0.45214785125127027,0.20665029648306232,0.7628205128205119,1
0.43606631702872567,0.08336365038045757,0.7091801900408764,0.4411056208645903,0.20152579190906272,0.7628205128205119,1
0.43427177323460264,0.08087064040702424,0.7103980256913254,0.4757186435895655,0.20628405606682998,0.7628205128205083,1
0.42440572111245534,0.08247346221153629,0.7110927637901676,0.47162705355052303,0.2059183879012476,0.76923076923077,1
0.42881675268476016,0.08291715272483424,0.7102733121403808,0.4329942514336096,0.2051861931941088,0.7692307692307718,1
0.43384483241421057,0.08448424537656957,0.7099770218520426,0.45881852879782886,0.20518619319410836,0.76923076923077,1
0.43367029894794207,0.0825857565958153,0.7102616407503841,0.48001058966710464,0.20262394090710845,0.7692307692307718,1
0.4349923846248448,0.08193547140208507,0.709968380402038,0.45197128823958715,0.20152579190906272,0.7692307692307665,1
0.4311455643637775,0.07965648330223346,0.7102931813861522,0.4384729420347705,0.2037220899051546,0.7692307692307656,1
0.4348792213901267,0.08277474012141417,0.7098958909306711,0.47745241550770073,0.20152579190906295,0.7692307692307665,1
0.43130028850053914,0.08132024273343036,0.7104771919724213,0.4728372037808104,0.2015257919090634,0.7692307692307656,1
0.4345872028921356,0.08522443888607689,0.7090331679888134,0.43854298724540125,0.19823163104024788,0.7692307692307683,1
0.4368740856378548,0.0847237593921556,0.7074605792691073,0.4422792256559335,0.2018920323252944,0.76923076923077,1
0.43554626870202184,0.08592181638610363,0.7081537198302764,0.4790506590802851,0.20115983761815515,0.7692307692307683,1
0.43503302439672575,0.08474947197875166,0.7093979274290225,0.4596208387559093,0.19932978003829405,0.76923076923077,1
0.43599953500544786,0.08587983818906392,0.7094049642572922,0.44239506806227197,0.20006168862010898,0.7735042735042716,1
0.43469705992977636,0.08478593019876574,0.7059708831864067,0.4743973237654231,0.19932978003829516,0.7735042735042699,1
0.4370107403838296,0.0858497569718833,0.7032715340917925,0.4753140533607448,0.19713348204220282,0.7735042735042716,1
0.43819528236579486,0.0848107659468742,0.7076149036811018,0.4335039449893458,0.19896382574738825,0.7735042735042734,1
0.4366737876829554,0.085829052041419,0.7075038316072575,0.4587166495075204,0.19786567674934163,0.777777777777775,1
0.43466711600697916,0.08482821294286064,0.7100453386843457,0.4772338847040991,0.19786567674934163,0.7777777777777786,1
0.43614823069683395,0.08581420433677511,0.7094166649542286,0.4405749695594144,0.19713348204220216,0.777777777777775,1
0.43473661026354304,0.08484095925997537,0.7075738321536227,0.45340433984566575,0.19566966487857407,0.7777777777777786,1
0.4361445116893382,0.08580317834376716,0.7087946576394032,0.48396164667324126,0.19640157346038856,0.7820512820512846,1
0.4347184357459064,0.08485056094833426,0.7075782109492623,0.4374934686483671,0.19420527546429533,0.7820512820512828,1
0.43617580290866054,0.0857947675477092,0.7088518626449001,0.443939075373821,0.19493747017143503,0.7820512820512846,1
0.43467368926118577,0.08485796751886981,0.7068885994040895,0.4744578805723702,0.19200926359352777,0.7820512820512819,1
0.43624015005432615,0.08578821394007136,0.7082885937604163,0.4460579704412368,0.19493747017143526,0.7820512820512846,1
0.4345740546692962,0.08486379225059731,0.7096036157151083,0.44386092277994965,0.19420527546429578,0.7820512820512846,1
0.4364179264676382,0.08578301511054531,0.7074346787791324,0.4844257949994288,0.1931074125915746,0.7820512820512846,1
0.434148184402782,0.0848684515730257,0.7085309608918646,0.4492761704695085,0.19310741259157505,0.7820512820512846,1
0.44047837510414356,0.08577882203669068,0.7082026544419409,0.46026020229513026,0.19274117217534203,0.7863247863247906,1
0.4358711776865256,0.08487224117008152,0.7061273551351969,0.48157770363288216,0.19237521788443468,0.7863247863247897,1
0.43558330475493046,0.08577538156321207,0.7047465316516859,0.44271713978960453,0.19054516030457513,0.7863247863247906,1
0.43513159968383663,0.08487538009096185,0.7032985391555269,0.46328023001711927,0.19091111459548182,0.7863247863247897,1
0.43581672210810196,0.08577250209370457,0.7007050300408662,0.4787724734455204,0.18908105701562117,0.7820512820512819,1
0.4350205822611728,0.08487803780830988,0.7062887889386307,0.43466142959419396,0.19237521788443468,0.7820512820512819,1
0.435874662389802,0.08577003194968896,0.7086703821188984,0.4621785776027176,0.18944701130652852,0.7820512820512819,1
0.43499515650203424,0.08488035177692782,0.7097754767142137,0.4819137424026702,0.18981296559743566,0.7820512820512819,1
0.4358712920557243,0.08576784490878941,0.708165731030837,0.44093932501952704,0.18542065573057465,0.7863247863247853,1
0.43503928952281157,0.08488243953452734,0.7101824575427326,0.44899377568274274,0.18981296559743543,0.7863247863247853,1
0.4357200323274293,0.08576582991116061,0.7100141995972179,0.4831661940186096,0.1883488623084819,0.7863247863247853,1
0.43720426154714065,0.08488440760505311,0.7090579029078928,0.45069763193378176,0.18798290801757456,0.7863247863247853,1
0.43629928533912565,0.08576388323849982,0.7078366689697867,0.4329883522299199,0.1879829080175741,0.7905982905982869,1
0.4347660762341723,0.08488635844969211,0.7104178270898015,0.47122862969730284,0.18871510272471403,0.7905982905982896,1
0.4360268021856033,0.08576190231771441,0.7078355139702905,0.47801115183588927,0.18798290801757478,0.7905982905982869,1
0.434938460146159,0.08488839590612851,0.708550671009116,0.44147653221099,0.18651880472862192,0.7905982905982896,1
0.4357416364649914,0.08575978120872324,0.7076343361262598,0.45205328744876305,0.1876169537266683,0.7863247863247853,1
0.4368381482454802,0.08489062833631378,0.7085483370821817,0.48315193374782556,0.1854206557305753,0.7863247863247835,1
0.43687867873849007,0.08575740971723711,0.7093303984852656,0.4625809107788403,0.1865188047286217,0.7863247863247853,1
0.4343975847193928,0.08489316553023563,0.7080492238520635,0.4316422117866567,0.183956838566947,0.7863247863247818,1
0.4363745038779787,0.08575468374950801,0.7091302015433498,0.46743967505432593,0.18615285043771435,0.7905982905982931,1
0.43454341001700947,0.08489609477994614,0.7097450788455069,0.4784568478592166,0.1865188047286208,0.7905982905982931,1
0.43631428911952685,0.08575155535907114,0.7104037320014809,0.4496828634186115,0.1854206557305753,0.7905982905982913,1
0.4345653917295065,0.08489937858091506,0.7098696513694738,0.43098709573868793,0.1846887471487606,0.7905982905982931,1
0.4363169375820235,0.08574824529132669,0.7103515771474657,0.4742596675414073,0.18505470143966707,0.7905982905982869,1
0.43454041909326124,0.08490239152182133,0.7098963173557782,0.47747040323962114,0.18615285043771346,0.7905982905982851,1
0.4363705239379184,0.08574633882545363,0.7103404200979919,0.437628961197041,0.18285840344357585,0.7905982905982869,1
0.43443457632897486,0.08490096117246143,0.7098968885242185,0.4413243275788122,0.18395683856694656,0.7905982905982851,1
0.4366273334878854,0.0857587067337578,0.7103349343492956,0.4832361078813954,0.1821264948617618,0.7948717948717947,1
0.4325434204476387,0.08483775164534546,0.7104084144319143,0.4649890945234226,0.1839568385669461,0.7948717948717974,1
0.4357594025420718,0.08669327030045237,0.7093651288017067,0.43932437498488675,0.1810283458637152,0.7948717948717947,1
0.4569673821203867,0.09342661230322963,0.7045103856736947,0.4682574350622117,0.1821264948617607,0.7948717948717974,1
0.48051853251365795,0.1054837435080162,0.6956060297822085,0.47522112203020017,0.17993048299099335,0.7948717948717974,1
0.47231129952290374,0.10500920231668709,0.6972926199245947,0.43896421240564115,0.17700227641308697,0.7948717948717965,1
0.46488421028625904,0.10328898369889705,0.6959976222064789,0.4668078480071961,0.17663603599685596,0.7948717948717974,1
0.47769766659688484,0.10853896312921363,0.6957544213439452,0.47146882880763274,0.17480597841699463,0.7948717948717965,1
0.46609494852465694,0.1053601335696599,0.6982124690579814,0.4339334636323372,0.17334187512804022,0.794871794871792,1
0.4817676110312723,0.10423748921782972,0.6870839708601932,0.4525966795250354,0.17297592083713398,0.7948717948717947,1
0.4894151761451401,0.10261735337603783,0.6783056309624113,0.4780578922736693,0.17480597841699486,0.794871794871792,1
0.47852620109294997,0.10480557874782592,0.6819970166781192,0.44284227793932807,0.17334187512804067,0.7948717948717947,1
0.48008825779681286,0.10775106566936088,0.6839920378809106,0.45506550550674696,0.17407378370985493,0.7970085470085468,1
0.47885608405379587,0.10618697655574533,0.6861366510623629,0.4663282172202,0.1707796228410423,0.7970085470085468,1
0.47348964638065827,0.10637394717301984,0.6913961691018002,0.4580977313456088,0.1748059784169944,0.7970085470085468,1
0.4724908412946215,0.10568471499601778,0.690746208034724,0.45832487682341133,0.17260968042090208,0.7970085470085451,1
0.4738188541258479,0.107671730790657,0.6933047265451454,0.48588758841480933,0.1748059784169944,0.8012820512820511,1
0.4727852397265304,0.10603354817351046,0.6926431636912178,0.43475180779948014,0.1726096804209012,0.8012820512820529,1
0.4737840668735104,0.10753904138582904,0.695298276121086,0.46417316596521635,0.17663603599685462,0.8012820512820511,1
0.47092262929616713,0.10611228995112831,0.6989385591365611,0.4712960386325747,0.17663603599685507,0.8012820512820529,1
0.46962479153232395,0.1074815147480786,0.6970776689082212,0.4361952177430636,0.17773418499490146,0.7970085470085468,1
0.4690053240250688,0.10616330955225783,0.6974438230087353,0.4650955649562499,0.1777341849949008,0.7970085470085451,1
0.4718752927172888,0.10742313740377374,0.6987887701730272,0.48486732245513187,0.16968175996832113,0.7970085470085468,1
0.47245439447285187,0.10625891352573319,0.6976853531276783,0.42928976934300733,0.17407378370985516,0.7970085470085451,1
0.47412498985377993,0.10713429028371141,0.6969265131400677,0.4642579717516166,0.17260968042090186,0.8012820512820511,1
0.4718771157559164,0.10486508876944989,0.6908933522469578,0.4876850508895486,0.17553788699880868,0.8012820512820547,1
0.4714983271151869,0.10780061171340938,0.694323616956456,0.46919231566725283,0.17187777183908692,0.8012820512820511,1
0.474248922084591,0.10590496136559097,0.6908644280794417,0.42469439457917246,0.1729759208371333,0.8012820512820555,1
0.4750720467785017,0.10771019844195312,0.692816006904474,0.44866311625992167,0.17151181754818046,0.8012820512820511,1
0.47490872951891905,0.10584531400675001,0.6892549921863402,0.4852875211425747,0.17334187512804133,0.8012820512820502,1
0.48141138404241157,0.1083842579882533,0.6942511950517215,0.46536190646233516,0.1704136685501343,0.8012820512820511,1
0.47542262162844884,0.10586511014530531,0.6908018060033588,0.43279869964527445,0.17041366855013385,0.8012820512820529,1
0.48681059942775384,0.10914982384746941,0.6872433805090322,0.46109999798708484,0.17260968042090186,0.8012820512820502,1
0.47898110085736534,0.1065467155725518,0.6851289579668854,0.480666653805565,0.17114557713194745,0.8012820512820547,1
0.48183188561839974,0.10824305829238745,0.6865909701437889,0.46501733949192553,0.1715118175481798,0.8012820512820502,1
0.48341651090189675,0.10627366905742597,0.6851152779270046,0.42236151063384425,0.17004771425922716,0.8012820512820547,1
0.4898303120379742,0.1063985686627183,0.6815624339157427,0.4224882924890623,0.17151181754818068,0.8012820512820529,1
0.48994276164896744,0.10667742781245065,0.6804048751265227,0.49670159483788284,0.1707796228410412,0.8012820512820529,1
0.49569713111268665,0.10815471606548294,0.6771457724309331,0.4651231603862329,0.17114557713194878,0.8012820512820529,1
0.4932784110210171,0.10824835145480904,0.6798552370959907,0.4370200366690545,0.1707796228410423,0.8012820512820511,1
0.4905401504439837,0.1086699730396889,0.6805610707753923,0.46336692616380437,0.17114557713194833,0.8012820512820502,1
0.49366899633486383,0.10583783291991433,0.6796814316373201,0.48081933412579286,0.1711455771319481,0.8012820512820511,1
0.4956370869641874,0.10879473680890772,0.6771316983433537,0.45195231777351474,0.17114557713194856,0.8012820512820502,1
0.4962888561175183,0.11090701018467619,0.6758987455389435,0.4411690613658065,0.17151181754818112,0.8012820512820529,1
0.49725983338272883,0.11049242312115021,0.6761919617801639,0.4727539946806404,0.17041366855013407,0.8012820512820547,1
0.49141398455118157,0.10880000766397585,0.6774857430333135,0.4733783343127327,0.17187777183908803,0.8012820512820511,1
0.4970605446519194,0.10904964085771751,0.6803994713824995,0.43864959431457323,0.16968175996832136,0.8012820512820529,1
0.47482738872160524,0.10492692845621499,0.6904386271263456,0.4608354358193386,0.17187777183908737,0.8012820512820529,1
0.4639524376172711,0.1031341161469233,0.7016705352755466,0.4752767436717761,0.1704136685501345,0.8119658119658126,1
0.4397883730774127,0.09628041164738638,0.7109064504897131,0.43624905599851416,0.17077962284104142,0.8119658119658144,1
0.44033006789637763,0.09396773848211376,0.7166498084475981,0.45733180249141614,0.1689495652611812,0.8119658119658126,1
0.4436496646405361,0.09583548809806142,0.7162670293871212,0.4793318127986169,0.16894956526118077,0.8119658119658144,1
0.43901318932645916,0.09661487914152161,0.7133969312717925,0.4387394495411294,0.16748546197222725,0.8012820512820511,1
0.44582105746858847,0.09520548332258222,0.7125019070664707,0.45645113861428943,0.1696817599683198,0.8012820512820502,1
0.44586932654780487,0.09869998379786171,0.7100362337243142,0.48352356274374053,0.1682176566793674,0.8012820512820511,1
0.4511195395568952,0.09672495647867402,0.7122236572784997,0.4453373281237392,0.16785141626313393,0.8012820512820511,1
0.4515527449432426,0.09597786456839719,0.7097202166358393,0.4557672598147017,0.1656554043923668,0.8076923076923084,1
0.448743892239989,0.09716122782777059,0.7105268299309013,0.48168329742541677,0.16675355339041364,0.8076923076923128,1
0.45133390693439723,0.09650789265190374,0.710313734662722,0.43883731774209894,0.16419130110341396,0.8076923076923084,1
0.4484761408663993,0.09594915422039063,0.7144395794026598,0.46941211882630346,0.16602135868327417,0.8076923076923128,1
0.4506995923874113,0.09884990295267543,0.7110516401213778,0.47671509663272577,0.16602135868327395,0.8162393162393204,1
0.4480451238589358,0.09564264601253814,0.7106936151228964,0.4347185591702571,0.16455725539431998,0.8162393162393204,1
0.44939957506843764,0.0966210542475976,0.7109544548661554,0.47080878879315485,0.1656554043923668,0.8162393162393204,1
0.45013499494625697,0.09548171054658783,0.713994259707521,0.4697089723526219,0.16565540439236726,0.8162393162393196,1
0.44931040905421604,0.09666828032216945,0.7108218927988098,0.43404682882643664,0.165289450101461,0.8119658119658117,1
0.4460837697596005,0.09546700700519561,0.7101763852703411,0.4710852394390003,0.1634591063962736,0.8119658119658117,1
0.45374144408519135,0.09661291405583944,0.7098908546250903,0.4780309374687122,0.16382506068718117,0.8119658119658117,1
0.4501201949092739,0.09601074157877892,0.7113927021183964,0.4350593730518648,0.16199500310732118,0.8119658119658117,1
0.45363021622919797,0.09795609394635596,0.7101179633839234,0.451766972090761,0.16126309452550647,0.8119658119658117,1
0.4516744357558259,0.09451551193618984,0.7102156236721204,0.4821811763759863,0.1612630945255069,0.8119658119658117,1
0.4543855476665317,0.09837010229736032,0.7099940335138234,0.45258996122420225,0.16309315210536912,0.8119658119658117,1
0.4538511124802872,0.09719883464078383,0.7102579219708589,0.4325561562548511,0.1612630945255069,0.8119658119658117,1
0.45501009760251465,0.09963577591144113,0.7099754822378509,0.46309803848009784,0.16236095739822787,0.8076923076923093,1
0.45362637421041896,0.09827628557437484,0.7102653690843443,0.4823477549852147,0.16272719781446,0.8076923076923128,1
0.4551344086688067,0.1002221936416346,0.7099745028986213,0.43792942919891065,0.16162904881641404,0.8076923076923093,1
0.45354418798339435,0.09847070314964301,0.7102619258331977,0.450815318549348,0.1616290488164136,0.8076923076923128,1
0.45519481417533747,0.09745755026035618,0.7099815017427076,0.482069030720382,0.16126309452550625,0.8076923076923093,1
0.45349645508799596,0.09989903885849216,0.7102514858706992,0.4661008996281904,0.1608968541092748,0.8076923076923084,1
0.4552345940892961,0.09596316123217674,0.7099960108327805,0.42971085219553345,0.1601649455274612,0.8076923076923093,1
0.4534619282585024,0.0961893985108132,0.7102311464295827,0.4574921978622883,0.15833488794760053,0.8076923076923084,1
0.45526552899202544,0.09590894728013,0.710026326660613,0.4847409222871336,0.15979899123655317,0.8162393162393151,1
0.4534335035403725,0.09673511936668044,0.7101801976974569,0.4599370891012605,0.1612630945255067,0.816239316239316,1
0.4552921812292666,0.09714042963335767,0.7101334613494114,0.430699280099323,0.1579689336566934,0.8162393162393133,1
0.4534081007955244,0.09786425887428635,0.7097789431205602,0.4628488909206074,0.15870084223850722,0.816239316239316,1
0.4553167178742856,0.1006046033087108,0.7089920086431759,0.48237313185547237,0.1579689336566923,0.8162393162393178,1
0.453384140795717,0.10164162784601583,0.710613223633448,0.453462528109796,0.16089685410927457,0.816239316239316,1
0.4553403255482209,0.10146830992842659,0.7096743880363336,0.4354192217281247,0.15760269324046128,0.8162393162393178,1
0.4533607075404841,0.10002426778775342,0.7106801255674502,0.46650595756915375,0.15870084223850722,0.8162393162393151,1
0.4553637283286682,0.102138435137963,0.7081831849648197,0.4851205646318363,0.15796893365669362,0.816239316239316,1
0.4533372168665034,0.10068487055992104,0.7083600390627214,0.446337658979075,0.15943303694564603,0.8162393162393178,1
0.45538740533362276,0.102629867698457,0.709967540378624,0.43660249938893664,0.15284442908269313,0.816239316239316,1
0.4533132713310307,0.10122439849832571,0.7101969271945279,0.47424976846243483,0.1572367389495537,0.8162393162393178,1
0.4554116875646832,0.10622312051727112,0.7100431417911373,0.4789813876425586,0.15613858995150753,0.8119658119658117,1
0.45328859732070836,0.09921000588085305,0.7101995412984624,0.4402459565130671,0.15796893365669273,0.81196581196581,1
0.45543679512699,0.10321478328924338,0.7100358485668381,0.4404343789523381,0.15650483036773966,0.8119658119658117,1
0.4532630292467096,0.09891560812389683,0.7102074049321461,0.4792515170616083,0.15577263566060062,0.81196581196581,1
0.45546283281855315,0.09799812465455654,0.7100257672614424,0.4727101854767852,0.15540668136969238,0.8205128205128229,1
0.4532365357648427,0.09985073516308163,0.710223483318693,0.4344949642483305,0.15540668136969282,0.8205128205128238,1
0.45548973736634546,0.10356997215178104,0.709995529497168,0.44688639540184166,0.15540668136969304,0.8205128205128229,1
0.4532093080210676,0.10029216332063107,0.7102919104078163,0.4792951824942435,0.15357633766450718,0.8205128205128238,1
0.45551713842663255,0.1048616828066411,0.7097549583305482,0.45887419753090786,0.15430853237164666,0.8162393162393151,1
0.45318197498013835,0.10015065215129454,0.7090866897514347,0.436738021409405,0.15101437150283248,0.8162393162393133,1
0.4555440236576126,0.10587359415979025,0.7103256600906374,0.46788084111717215,0.1480861649249261,0.8162393162393151,1
0.453156133089891,0.10380383743199612,0.7099980206958323,0.4795110336839024,0.14991622250478742,0.816239316239316,1
0.45556787893608275,0.10684769586636145,0.7102141241837894,0.43953358103110274,0.15174628008464763,0.8162393162393151,1
0.4531357918289992,0.10530250247398959,0.7100345529737833,0.4544471923678667,0.15101437150283292,0.8162393162393178,1
0.4555821452699037,0.10510565916810144,0.7102026807830317,0.48694624072508363,0.15247847479178667,0.8162393162393151,1
0.4531321169734196,0.1053660286808456,0.7100342593981572,0.444813422013592,0.15174628008464697,0.8162393162393178,1
0.4555666623116905,0.10501502112211819,0.710208581848723,0.4391304254035896,0.1517462800846472,0.8162393162393204,1
0.45318485030598854,0.10155414738990343,0.710029243892552,0.4847125974281176,0.1517462800846472,0.8162393162393204,1
0.4554313397643235,0.10393261800718673,0.7101922726788782,0.46658805347609916,0.15101437150283314,0.8162393162393204,1
0.4535587005760042,0.10030863481259444,0.7114069361128055,0.4259746515491118,0.15064813108660213,0.8162393162393196,1
0.4534514677150727,0.09928455821836774,0.713312320315779,0.4648533287596677,0.14845211921583368,0.8162393162393178,1
0.44939643735037826,0.09666540936076867,0.7100867344187015,0.4883448200904819,0.15138032579374028,0.8162393162393178,1
0.4569967275696891,0.10125789006886471,0.7110557384254867,0.4517633910719658,0.14772021063401963,0.8162393162393178,1
0.45198560129429555,0.09842628886012528,0.7105645221230951,0.43105550803764026,0.1491840277976475,0.8162393162393178,1
0.45668756651146036,0.10114756591034779,0.7109720171462742,0.4763445424459348,0.14735397021778707,0.8247863247863272,1
0.4495863914809506,0.10072836453366651,0.7139711916275069,0.4777204234897495,0.15028217679569345,0.8247863247863263,1
0.45700474473566177,0.10198337653580158,0.7130290975148723,0.4426109095815534,0.1466220616359737,0.8247863247863272,1
0.44988263760716163,0.10088107745312208,0.713190086656953,0.4518162179649814,0.14808616492492677,0.8247863247863263,1
0.4563069819789092,0.10278609166640529,0.7128372104008937,0.4876960495444651,0.14625610734506544,0.8247863247863245,1
0.44826170559075507,0.10366295559725353,0.7104603755074284,0.4518393496899084,0.1480861649249261,0.8247863247863263,1
0.4550086920159885,0.1028401449662979,0.7128595627905068,0.44162301734811976,0.1469880159268797,0.8247863247863245,1
0.45341197657727894,0.09932049274374577,0.7108019281604382,0.47583387053891657,0.1458898669288331,0.8247863247863263,1
0.4522905114521577,0.09860776587503439,0.7151767959988226,0.4706400162706413,0.14625610734506522,0.824786324786329,1
0.4471065963856182,0.09886565076208925,0.7141862972324232,0.4321953860434819,0.14479200405611192,0.8247863247863272,1
0.4562294681923912,0.09764252729437434,0.7137740059511398,0.45422774448757597,0.1455239126379273,0.824786324786329,1
0.4509784831727739,0.09696865937043919,0.712336359411411,0.4770349593592635,0.14369385505806664,0.824786324786329,1
0.4579898294898609,0.10046483883426749,0.7107088836317663,0.45361649420249606,0.14515795834701906,0.8247863247863227,1
0.4505928107441638,0.10216454093524929,0.7091914537920443,0.4307434153547374,0.14405980934897267,0.8247863247863272,1
0.45611647092449137,0.10690276303902946,0.7113419220230931,0.46938721616277074,0.14625610734506522,0.8247863247863227,1
0.46162608651209724,0.10774962416744338,0.7080816920577633,0.47932276255667117,0.1455239126379264,0.8247863247863272,1
0.46975532061691905,0.11166459899823766,0.7235076446789493,0.44719738546762,0.14442576363987958,0.8290598290598314,1
0.3972646844820812,0.08274196194122002,0.7036488380398782,0.4428946021945481,0.1458898669288331,0.8290598290598297,1
0.5787687843083993,0.16655676427170507,0.5850584861397388,0.4850058891004378,0.16602135868327372,0.8290598290598314,1
0.7595553948301692,0.3273503115202152,0.505981241698808,0.44204845671725884,0.17297592083713442,0.8290598290598279,1
0.6557427824433926,0.22274488971043213,0.4414294088499664,0.4674983170863593,0.1663873129741813,0.8247863247863227,1
0.6687472554928937,0.22632084493479723,0.4641807174460029,0.43016530875122516,0.1652894501014599,0.8247863247863245,1
0.6549755682374336,0.22350866153048352,0.4664620580582578,0.5076981481597418,0.16602135868327328,0.8247863247863227,1
0.6600338736711555,0.22583359361213154,0.4692634394543929,0.46046154494634883,0.1744400241260875,0.8247863247863245,1
0.6508699647492038,0.22697048393418423,0.46622237595370986,0.3825792366182452,0.18139458627994642,0.8290598290598261,1
0.6531379736780196,0.227395182830162,0.470351059261241,0.49901005625242434,0.19054516030457447,0.8290598290598261,1
0.6588728977052263,0.22382001617041697,0.46817117212856163,0.43413646243666654,0.19420527546429556,0.8290598290598261,1
0.6598934968235641,0.22474872748023922,0.4701696138826816,0.4481274154877586,0.1978656767493414,0.8290598290598261,1
0.6609893885531115,0.22659412574586887,0.46817191437446365,0.4717044140038934,0.19823163104024877,0.8290598290598314,1
0.657300218477221,0.22446409705586248,0.4704156312074708,0.45080722467602885,0.2051861931941079,0.8290598290598341,1
0.656585241860177,0.22733947235057017,0.466097783814708,0.4506209829844895,0.207016250773969,0.8290598290598314,1
0.6593041134353841,0.22870545831840616,0.4675902286144186,0.49080129790250415,0.20884630835382945,0.8290598290598341,1
0.6624447616754108,0.22949380380410053,0.4683406855108546,0.4493969460050134,0.21067665205901465,0.8333333333333357,1
0.6578422648751425,0.22580349087955076,0.4695807349517355,0.4513276326839746,0.2147027215096433,0.8333333333333348,1
0.6586537354019437,0.22456059816929796,0.4688245105128367,0.49420038912544767,0.21506896192587588,0.8333333333333357,1
0.6642571453643531,0.22523016441575355,0.4695454234465035,0.4597450082025872,0.2168990195057361,0.8333333333333348,1
0.6611733245619773,0.22482877119693168,0.4688411366498925,0.44987235667301084,0.2176312142128749,0.8290598290598297,1
0.6596345687562863,0.2250491080648065,0.46952653918553644,0.481425064442796,0.2176312142128749,0.8290598290598323,1
0.6597801982732963,0.22497649244934592,0.4688645447291821,0.4560440069749901,0.21872907708559652,0.8290598290598297,1
0.6614878005598268,0.22488224524666853,0.4694978929839971,0.44568803672326057,0.2190953175018282,0.8290598290598323,1
0.6620947949406453,0.22569300442562043,0.4689000107684806,0.47676611752975284,0.21763121421287512,0.8290598290598314,1
0.6593466576839329,0.22727161594508932,0.4694518514767916,0.4659775052943205,0.21982722608364247,0.8290598290598314,1
0.6609546367078645,0.23045407706198154,0.46896545676143,0.43722269692949745,0.21982722608364247,0.8290598290598314,1
0.6627294922190117,0.22781995957356937,0.4693431648025097,0.46779740246980045,0.21909531750182887,0.8290598290598297,1
0.6624233725277398,0.23224222471199463,0.46920660088082106,0.47237378929426627,0.2209253750816882,0.8290598290598297,1
0.6623419178285548,0.22975303626761728,0.4680929360750883,0.4471583546146603,0.21982722608364313,0.8290598290598314,1
0.6627347239838244,0.2299178462554577,0.46707899351226295,0.4624651685159153,0.22312138695245598,0.8290598290598297,1
0.6619891883889162,0.2306112402635257,0.4677852298317986,0.46313974589061324,0.2209253750816884,0.8290598290598314,1
0.6609060173971015,0.2264906025306033,0.46893979517801865,0.4419659088035684,0.22275543266154885,0.8290598290598261,1
0.6597379900404552,0.22591438716097237,0.46950599033522533,0.46235166588906024,0.22165728366350246,0.8290598290598252,1
0.6626918777934068,0.22494329633592128,0.4688650798342831,0.4729471826128459,0.2249514445323173,0.8290598290598261,1
0.6566808759103708,0.2248991576945374,0.46950896408435516,0.44386091410088646,0.2227554326615493,0.8290598290598252,1
0.6606221675508568,0.22513199285241536,0.4688761988474489,0.4558292491600771,0.2242195359505026,0.8290598290598314,1
0.6612102463582727,0.22470656226300043,0.4694942853640515,0.4773568621733581,0.22421953595050192,0.8290598290598323,1
0.6613125942946501,0.22619998628993165,0.4688916647923843,0.4557759438906906,0.22458549024140972,0.8290598290598314,1
0.6620038847186298,0.22544684034729967,0.46947885983476323,0.4468343537865944,0.2253176849485481,0.8290598290598323,1
0.6603568035997198,0.2272459392414501,0.4689068242807359,0.47148525670262276,0.2242195359505028,0.8247863247863227,1
0.6624140026236318,0.22616160339049474,0.4694639813658226,0.4664807771696637,0.22531768494854942,0.8247863247863219,1
0.6535079296334172,0.2277599438500812,0.46892148663279143,0.44584640538019304,0.22458549024140995,0.8247863247863227,1
0.6625231478187041,0.22556646726085364,0.46944943706136466,0.46810024909825054,0.2260495935303637,0.8247863247863245,1
0.6597823696979326,0.2264818941423822,0.4689360279841802,0.46816507291618137,0.22458549024140972,0.8247863247863201,1
0.6627417738525871,0.22543231178688314,0.46943477021889474,0.44218532155678514,0.22824589152645647,0.8247863247863227,1
0.662207896385202,0.22673150289089175,0.4689509644709581,0.4561440832148251,0.22568363923945545,0.8247863247863201,1
0.6627281044828908,0.22621259189191614,0.4694193978493006,0.4744464331495739,0.22751369681931655,0.8247863247863227,1
0.6596584013986846,0.22530460017477213,0.4689669714978119,0.4513517036964474,0.2271477425284094,0.8205128205128212,1
0.6603518295001101,0.2245896853785178,0.46940250876098916,0.44438905179920746,0.2352001675549904,0.8205128205128194,1
0.6604704043493315,0.22539911213639705,0.4689850638787072,0.46991929809008437,0.22604959353036325,0.8205128205128212,1
0.662053663574695,0.22587590684451292,0.46938277695428576,0.4623230647290157,0.23227196097708402,0.8205128205128185,1
0.6610219903672507,0.22678328909413953,0.46900705662555997,0.44184249869377656,0.2326382013933166,0.8205128205128185,1
0.6610520470245216,0.22450330460068194,0.4693575878931035,0.4553039426636416,0.23263820139331592,0.8205128205128194,1
0.6611535929510328,0.22545293749010983,0.4690369430378126,0.4733301886562342,0.23373606426603732,0.8205128205128185,1
0.6614266510674769,0.22587336585278167,0.4693203977146715,0.44969872774262665,0.23190600668617734,0.8205128205128194,1
0.6635615914392297,0.2252996078700521,0.46908644683389883,0.45386629894612585,0.23337010997512952,0.8162393162393204,1
0.6612320445672455,0.2254995029693223,0.46924751725894254,0.47600991811361926,0.23044190339722292,0.8162393162393196,1
0.6637751250429966,0.2280447436856755,0.4692127248635824,0.45012460165277757,0.23520016755499062,0.8162393162393204,1
0.6565067790556369,0.2227102119873007,0.46895162320925565,0.4448690389802012,0.23300415568422284,0.8162393162393196,1
0.6586185712871071,0.2265791756397377,0.4708183499287062,0.4720180254179602,0.23483421326408305,0.8162393162393151,1
0.6499399841210445,0.21663230665873123,0.4770479343519864,0.4605618405838371,0.23300415568422306,0.816239316239316,1
0.6405895979203982,0.20396378112140537,0.4723370042485858,0.44202689256492417,0.23629831655303724,0.8162393162393151,1
0.6404043805652513,0.1980871454696837,0.4645626000247878,0.46993600495132926,0.23812866025822177,0.816239316239316,1
0.6361473973076262,0.19524305532657568,0.47229755891029246,0.47090177872998995,0.2395927635471753,0.816239316239316,1
0.6157695949478792,0.17197372418076412,0.4747694960274194,0.44182102628057396,0.24032467212898978,0.8162393162393151,1
0.6082932140680828,0.15684543447486554,0.4878068762479809,0.44608339430808647,0.2414228211270364,0.816239316239316,1
0.6010650658416166,0.14822035219239715,0.4860960726621777,0.46774815807525794,0.2513055898588028,0.816239316239316,1
0.5889059165270152,0.14332036039603657,0.46382557987333956,0.4590426740964759,0.2586261063035695,0.8162393162393151,1
0.5874854226706463,0.14349711794452685,0.4272612320901602,0.4711466818775094,0.26301841617042965,0.8162393162393178,1
0.5920809207123303,0.14862909283985165,0.416032201283095,0.4712329363813935,0.2553319454347558,0.8162393162393151,1
0.5871312123692904,0.15178426464259048,0.41959906488566573,0.4308450064048697,0.2582598658873383,0.8162393162393178,1
0.6208315809676404,0.1761975575067667,0.4369796797734854,0.4378556180075787,0.25752795730552314,0.8162393162393151,1
0.6181521226945994,0.17151100211591092,0.45545954462949934,0.4784489821033886,0.2615543128814761,0.8162393162393151,1
0.6122351396898782,0.17340546728916095,0.47005054407022456,0.4725697370786857,0.25899206059447666,0.8162393162393151,1
0.6396339836806864,0.19178160137292807,0.47937052874400077,0.45705170268616047,0.26045616388342974,0.8162393162393133,1
0.6255329754019383,0.18622354350287784,0.4739328425147564,0.4695967593567918,0.2589920605944771,0.8162393162393178,1
0.6348888878784915,0.18770740422524623,0.4669232033305207,0.4520104449790016,0.2615543128814759,0.8162393162393196,1
0.6355925280004588,0.19414946732765326,0.4650823469591144,0.4576396617637166,0.2608221181743373,0.8162393162393178,1
0.6352843867461313,0.1953723964325254,0.474983543118144,0.45756904940294296,0.2586261063035695,0.8162393162393196,1
0.6282553418454175,0.19139353055780783,0.4703321471420233,0.44059772627418753,0.26118807246524334,0.8162393162393116,1
0.6413410735499805,0.1971396485541293,0.46964060070424524,0.4749929153540527,0.26118807246524334,0.8162393162393116,1
0.6371844471372468,0.19373873710310435,0.4686474270451739,0.4606902712095961,0.26118807246524445,0.8162393162393133,1
0.6335205443433203,0.19325667451813164,0.46973904701466257,0.44879789069225057,0.25935801488538357,0.8162393162393116,1
0.6402661311282638,0.194887853295674,0.4686439505549323,0.4759752181433051,0.2611880724652449,0.8119658119658126,1
0.6405022701011982,0.19593371610465993,0.4697296814266959,0.44282660744739827,0.2597239691762907,0.8119658119658162,1
0.6387368182938502,0.193887991117326,0.46864811448979615,0.4517094255290838,0.2630184161704294,0.8119658119658126,1
0.6425724321799726,0.20036338453195557,0.46973948680764166,0.4717486609965816,0.2626521757541971,0.8119658119658162,1
0.640702215790508,0.19796497539608426,0.468611754272838,0.4456268690136144,0.2622862214632897,0.8119658119658117,1
0.6419112874003301,0.19594552653934147,0.4698395704180753,0.4690171240516392,0.26192026717238304,0.8119658119658117,1
0.6383019186698708,0.19717294674647118,0.4682075697209622,0.4673038503154033,0.2600902095925237,0.8119658119658117,1
0.6383074918078215,0.1941658973137204,0.4687157114910855,0.4412280330645795,0.2622862214632906,0.8119658119658117,1
0.638153536113268,0.1950572967645571,0.46899929821657504,0.4713396059487678,0.2626521757541973,0.8162393162393151,1
0.6429808408001514,0.19431758255263637,0.4694929896784212,0.45948963598267706,0.2626521757541971,0.8162393162393196,1
0.6435001275201415,0.19512071709899179,0.46881394160114803,0.44309717487595324,0.26301841617043076,0.8162393162393151,1
0.6438124482052723,0.19592792744861517,0.4697239920354023,0.4787020965818168,0.2630184161704301,0.8162393162393196,1
0.6431161344745169,0.19665253843628128,0.47037320464622034,0.46045976676536143,0.2615543128814759,0.816239316239316,1
0.6430068522242176,0.19278320220272555,0.4740933579802796,0.44205904270610974,0.2648484737502905,0.8162393162393151,1
0.6350961956024574,0.1929452963839505,0.47372891390445937,0.4735150382867087,0.26448251945938317,0.816239316239316,1
0.6368369181460474,0.1975188702885186,0.4716545604124807,0.459017227953994,0.2648484737502905,0.8162393162393151,1
0.643031009966188,0.20048900392628563,0.4714970008819321,0.44077084157747237,0.2648484737502901,0.8205128205128212,1
0.6434318777276395,0.2007792105584326,0.47074472312166793,0.4710699092823179,0.26448251945938295,0.8205128205128229,1
0.6396678174605219,0.1959396868829076,0.4704458203466885,0.46052492219518193,0.26558038233210346,0.8205128205128212,1
0.6418430384215972,0.1957605881601689,0.4728989287477253,0.44042301446935056,0.2655803823321048,0.8205128205128229,1
0.6419754035218745,0.19980219586073236,0.47018985833147453,0.47049054215806724,0.26558038233210457,0.8205128205128229,1
0.643522063046412,0.2014430426960411,0.46913388638721915,0.456965198811262,0.26594662274833625,0.8205128205128212,1
0.6437071473049296,0.2023324016866804,0.4706676267309031,0.4481127155539988,0.2663125770392447,0.8205128205128229,1
0.6433097203250289,0.20275496683729488,0.4706825019896043,0.4750887372910238,0.265946622748336,0.8205128205128212,1
0.643840950567204,0.2037717352730526,0.46978436180766214,0.45010778919194566,0.26667853133015096,0.8247863247863263,1
0.6431387937957518,0.20303859012457143,0.47021191157019715,0.4496916147196555,0.2655803823321048,0.8247863247863272,1
