wrist_ACC_1,wrist_ACC_2,wrist_ACC_3,wrist_BVP_1,wrist_EDA_1,wrist_TEMP_1,label
0.6630681655107369,0.132556929261531,0.13456809201179099,0.5846812805043918,0.16205468870693673,0.008064516129049792,1
0.673701040039661,0.1311955612861282,0.11664176120254466,0.5202540910522392,0.13833771048972676,0.00806451612904624,1
0.6688750317343166,0.12536079438803643,0.14527236378876596,0.4790149981767939,0.12648231113857544,0.03225806451614943,1
0.699038252845837,0.12681335068991167,0.1068378159440454,0.5132042951991532,0.1304341109222925,0.032258064516152984,1
0.6519264190646141,0.17099227191805838,0.14108818590759814,0.514947052026495,0.10671713270508332,0.03225806451614943,1
0.5963638141341947,0.15738153578285774,0.13471983502018536,0.4678568032973866,0.11462382202997112,0.032258064516152984,1
0.5529805831714228,0.21090195559983727,0.0936487327999651,0.5047919213534655,0.11067202224625328,0.03225806451613522,1
0.5333093883331887,0.22644517899175265,0.06019103138281101,0.6609493302059878,0.11067202224625405,0.03225806451613522,1
0.572802774439501,0.21909800243960986,0.07038756900843651,0.5453953606089806,0.11857562181368786,0.032258064516142326,1
0.5506482016532941,0.19952359883616916,0.10155868069002189,0.42244335979611136,0.12252742159740526,0.03225806451613522,1
0.5052526623632136,0.15228490160906694,0.21858798742961874,0.5787285715881502,0.1225274215974047,0.008064516129039134,1
0.5194879215680075,0.12667901064663828,0.232128949812946,0.5863008417720551,0.13438591070601003,0.008064516129039134,1
0.5394943930491874,0.10502100034662554,0.24113752773812316,0.4486181858707276,0.13833771048972676,0.008064516129039134,1
0.5660527430337703,0.1013337959855119,0.25250324977647387,0.5972788784493261,0.14229260003089816,0.008064516129039134,1
0.47617778594750493,0.11369144715091989,0.2326958705237132,0.7314155266108063,0.14624439981461457,0.03225806451613167,1
0.5179281235616529,0.0721196214468185,0.3037165794603568,0.5583318264532313,0.15415108913950226,0.03225806451613167,1
0.5486040646851325,0.08604188048930256,0.32902519331465996,0.4984355059414586,0.1501961995983323,0.03225806451613522,1
0.49066493810663675,0.08728541227534203,0.29586545816181803,0.571086589888,0.14229260003089828,0.03225806451613167,1
0.5221873098138836,0.08416947368048572,0.31305726930758965,0.4814915288230086,0.1422926000308976,0.03225806451614943,1
0.4908987724921415,0.09974507271914984,0.295930953977562,0.4549122872918435,0.14624439981461457,0.032258064516152984,1
0.49319974112027887,0.1038700717029104,0.26408653151689876,0.637775472726788,0.146244399814615,0.03225806451614943,1
0.4925022296751182,0.10851887513026037,0.26150528318064903,0.5155033770260306,0.1462443998146149,0.032258064516152984,1
0.5186820415959436,0.10159515270878855,0.2309616123811554,0.49708386058784676,0.15019619959833175,0.03225806451614943,1
0.5739095157672074,0.09228530201701407,0.24724630162476308,0.6680581802728675,0.15019619959833208,0.032258064516152984,1
0.6451786908714323,0.07066468371121398,0.22833497189583776,0.5505513974165542,0.15019619959833175,0.032258064516152984,1
0.6983101827828354,0.06147610886004423,0.21567023410256617,0.5094311751400041,0.146244399814615,0.032258064516152984,1
0.6549596731358737,0.06252857182804111,0.2525566078374829,0.654094512097663,0.14229260003089794,0.03225806451613522,1
0.5922474522432328,0.0721345881058243,0.25534212379464405,0.5896351952001534,0.14624439981461457,0.032258064516142326,1
0.6172506110580849,0.06635811272863973,0.26191714687941936,0.49745729029822483,0.13438591070600958,0.03225806451613522,1
0.6011381963682759,0.0683055562932286,0.25713668909330406,0.6822977450955277,0.1501961995983323,0.032258064516142326,1
0.6129386840672661,0.06718554933345866,0.2657888714348293,0.5297161407458165,0.14229260003089728,0.00806451612906045,1
0.5951109324650791,0.06991002733427443,0.2508925226803426,0.3893481129041627,0.14624439981461468,0.00806451612906045,1
0.6270334875794379,0.06458256506468885,0.26574604420557224,0.5639658074810755,0.1422926000308976,0.008064516129067556,1
0.6010525134214071,0.06679100206128319,0.2591875502352573,0.5176135841943722,0.13043411092229285,0.00806451612906045,1
0.6173057463830011,0.06329277074636092,0.2602898455219552,0.5249072193821124,0.13043411092229262,0.032258064516142326,1
0.6179707235114063,0.060198086188710365,0.2567232472804044,0.6095498052399563,0.12648231113857622,0.03225806451614943,1
0.6434537328768934,0.055413631269089714,0.28004344406234394,0.5055017184045504,0.13043411092229285,0.032258064516142326,1
0.6290922162914643,0.053332509483826396,0.27595868208810803,0.52301790435679,0.10671713270508265,0.03225806451614943,1
0.645543508068614,0.052831530035415186,0.27966809439062773,0.6253329103664567,0.12648231113857578,0.032258064516152984,1
0.6254357995566687,0.05922919300788082,0.26077120219746225,0.5039254551582122,0.12252742159740448,0.03225806451614943,1
0.6430453048906128,0.0630083478124493,0.25140740021310115,0.49977878182741164,0.12648231113857644,0.032258064516152984,1
0.6260553063138692,0.06516923872397645,0.23336071437558764,0.6190735148728271,0.12252742159740448,0.03225806451614943,1
0.6635038865335005,0.06869884225972162,0.25139911738184473,0.5188091633529266,0.1264823111385759,0.03225806451613522,1
0.5999587636186757,0.08714978300790782,0.2104092174278856,0.5121602334807468,0.13438591070601003,0.032258064516142326,1
0.6571409975928306,0.08834179043072021,0.2114921011119645,0.6411187165196524,0.1304341109222935,0.03225806451613522,1
0.6394227689727909,0.10153987323195651,0.16591363308377338,0.5861303109137896,0.13438591070601003,0.032258064516142326,1
0.5674392898303738,0.12841993385283923,0.2110924004081872,0.45865724038564987,0.13043411092229285,0.03225806451612456,1
0.5572046275652649,0.1348044231488375,0.1291273531763753,0.5862343884246695,0.13438591070601036,0.03225806451612456,1
0.34561211201304054,0.20032977207410063,0.30126798812913386,0.6058540463649188,0.1343859107060097,0.03225806451613167,1
0.6014322627198219,0.12882693350596724,0.09370526735949547,0.45235377332188764,0.1185756218136883,0.03225806451612456,1
0.47582630232768963,0.12290455539743761,0.294300871768731,0.43556936185475587,0.12648231113857522,1.0658141036401503e-14,1
0.48372110142930874,0.11691194975595232,0.6317733101375581,0.6571347616776011,0.13438591070601003,1.7763568394002505e-14,1
0.7931123134212782,0.019557122997490295,0.553330767187844,0.6718359141006758,0.12252742159740493,1.0658141036401503e-14,1
0.7024816948148551,0.028086880509419543,0.5834144428171276,0.5665824805789264,0.12252742159740537,1.7763568394002505e-14,1
0.6948337876469448,0.015095692660683335,0.5188808623755896,0.43974828541198613,0.11462382202997112,3.552713678800501e-15,1
0.6812489703075313,0.028888306925362983,0.5632006751254715,0.4525722699765429,0.1185756218136883,0.0,1
0.6739529973055746,0.01969455846372653,0.5317885104381412,0.5287205411132193,0.11857562181368786,3.552713678800501e-15,1
0.6831465851976631,0.025637878202356912,0.5512882191751521,0.49361037633326094,0.11067202224625361,0.0,1
0.6760899614364237,0.02146819391043797,0.5350118037445017,0.46249152596064397,0.11067202224625361,0.03225806451613522,1
0.6922398244646673,0.025343107107932472,0.5501814448200849,0.4221365030824574,0.10671713270508354,0.03225806451613522,1
0.6882117026893491,0.017227846662787538,0.5333553423998669,0.5706821427968298,0.1106720222462545,0.03225806451613522,1
0.7033056455811497,0.021372881390178455,0.547051072301388,0.6434926559604122,0.10671713270508332,0.03225806451613522,1
0.6875393158797434,0.01950194086059137,0.532989666733198,0.4908856553651839,0.11462382202997023,0.03225806451613167,1
0.6787465562264304,0.02369125328884847,0.5427175635291119,0.5579775088444565,0.11462382202997112,0.03225806451613167,1
0.680911105508629,0.020999406356804085,0.5274999022850377,0.6516350992747648,0.11462382202997057,0.03225806451613522,1
0.6692784496163965,0.0256189787752214,0.5347567840199222,0.540122530298745,0.11067202224625439,0.03225806451613167,1
0.6687807710313531,0.02221984085764317,0.52905058376768,0.4830031190722296,0.11462382202997023,0.03225806451613522,1
0.664621294255918,0.025955844614946877,0.5357964670013329,0.6289233284741869,0.1225274215974057,0.03225806451613522,1
0.6750962884264153,0.022210848834057217,0.5297052939331981,0.5557053861386922,0.11462382202997112,0.03225806451613522,1
0.6694196680619233,0.025937249731945222,0.5364054740000339,0.481461184714304,0.1146238220299709,0.03225806451613522,1
0.6686043778987787,0.022216178075806947,0.5240080408056351,0.6115196302883531,0.11067202224625416,0.03225806451612101,1
0.6683954806801999,0.02597893095459114,0.5283272702076465,0.6113453472623126,0.11067202224625383,0.03225806451612101,1
0.6712252504182927,0.021987089238341195,0.5232300942290795,0.45824950866928105,0.1106720222462545,0.03225806451612101,1
0.6666467324623895,0.022249927294215766,0.5233752978869282,0.5529726095309784,0.11462382202997068,0.03225806451612101,1
0.6688161242757868,0.020752907455162617,0.5151732263353362,0.6593833749067974,0.11067202224625361,0.008064516129056898,1
0.6699235082445812,0.024350243973691732,0.5224078221843318,0.5417100323397698,0.11857562181368819,0.00806451612906045,1
0.6690538892954145,0.02191939335368237,0.5152232285016656,0.45765611817157015,0.1146238220299709,0.008064516129056898,1
0.6656095156095487,0.02405979615923748,0.5232612093405143,0.6105477192443733,0.11462382202997157,0.00806451612906045,1
0.674144796337844,0.020841318523362296,0.517430565837536,0.6189139758623128,0.11857562181368708,0.032258064516152984,1
0.6663744885951406,0.02051373375386878,0.5214725730642109,0.4854047648541605,0.11857562181368742,0.032258064516152984,1
0.6713951751379201,0.022559719566775605,0.5188221539045157,0.4973004788259032,0.11462382202997123,0.03225806451616009,1
0.6692824134530371,0.020855253002578122,0.5225657830310991,0.6299806832429653,0.10671713270508365,0.032258064516152984,1
0.6771011625732364,0.02010915002450242,0.5147708413071012,0.5203499836848408,0.1146238220299709,0.008064516129039134,1
0.6665524640343742,0.02369395562829152,0.5216757396909502,0.4979338152372134,0.1146238220299709,0.00806451612904624,1
0.6751223473279696,0.020908706365322105,0.5150449066388879,0.6105991375102674,0.10276533292136592,0.008064516129039134,1
0.6709652968382509,0.02462253481176402,0.5160739947131256,0.5989224371761462,0.11067202224625472,0.00806451612904624,1
0.6440094075421863,0.02076062298180531,0.5028606426820861,0.4574658179407039,0.11462382202997068,0.00806451612902137,1
0.6523326894100403,0.026127515750986374,0.5124509493916558,0.5376651660586427,0.11067202224625383,0.00806451612902137,1
0.6525515046406496,0.022158907867548483,0.5053710682199276,0.6254389791798592,0.11067202224625405,0.008064516129024923,1
0.6571971453402654,0.02594785474101652,0.5164637033572929,0.5409764980601128,0.11462382202997068,0.00806451612902137,1
0.6533322837093528,0.022269502278771558,0.5096948067953296,0.454490994487568,0.11462382202997057,0.00806451612904624,1
0.6384347485940715,0.02713645705055029,0.5161959363559687,0.585155300517427,0.1146238220299719,0.008064516129049792,1
0.6694492950492102,0.024642704000959303,0.5325199110594061,0.585095830425877,0.1067171327050831,0.00806451612904624,1
0.6427517320700227,0.029402187996935114,0.533616184564994,0.4786062236227215,0.11067202224625483,0.008064516129049792,1
0.6665278846258307,0.02444650508487678,0.5141609733143369,0.5303073927351514,0.11462382202997023,0.04838709677419217,1
0.54987044060241,0.05775280949045336,0.5230238325202866,0.6699591451928353,0.09486173335393144,0.04838709677419217,1
0.5094103285992362,0.06090877411508011,0.49317978949641716,0.5897412201110093,0.10671713270508298,0.04838709677419217,1
0.5351038742350196,0.05771092715723802,0.47853263055763673,0.45315206002940694,0.11067202224625405,0.04838709677419217,1
0.552744403727948,0.046687344390087704,0.46856926517738523,0.4766306087745925,0.11067202224625328,0.03225806451613522,1
0.5421812045821868,0.05464911337501732,0.4820461092422282,0.5245137852280376,0.11857562181368786,0.032258064516142326,1
0.524405725437777,0.0536305077238311,0.4636525868889456,0.4761659594744254,0.09881353313764829,0.03225806451613522,1
0.5495841180739547,0.07690239507269236,0.5320090238360798,0.5863951387974481,0.11067202224625416,0.032258064516142326,1
0.5022707202849868,0.08107229837771135,0.40606521242260607,0.600360715618499,0.11857562181368786,0.03225806451613167,1
0.506678098620805,0.08652891941458124,0.3044794102041261,0.5160561590230642,0.1304341109222933,0.03225806451613167,1
0.3140174926003413,0.13505349558731766,0.4326859912845667,0.5263629580526525,0.15019619959833197,0.03225806451613522,1
0.4087538001396146,0.10610263410672899,0.4296951883586539,0.8707198917498484,0.11462382202997112,0.03225806451613167,1
0.4704774404917976,0.08404469480738036,0.5009871164524348,0.6185818009450316,0.12648231113857644,0.04838709677418507,1
0.617666428824844,0.04452220816567859,0.49290382367734387,0.3742413397716371,0.12648231113857622,0.04838709677419217,1
0.5592870196018669,0.04287810027081662,0.4778897346567364,0.4244203150636565,0.1185756218136873,0.04838709677418507,1
0.577701188521774,0.04639353681895064,0.5024928103948366,0.3080810985321444,0.12648231113857644,0.04838709677419217,1
0.5568933024596754,0.04330560824183899,0.4706944158914371,0.43879416831998175,0.12252742159740448,0.04838709677420994,1
0.563104326997883,0.04615908505420063,0.46087352419287175,0.5323331176647087,0.1225274215974047,0.04838709677420994,1
0.5649370722518616,0.042536589648168865,0.453784669665127,0.6571460368939427,0.11857562181368819,0.04838709677421349,1
0.5916032652651182,0.03623445818955173,0.4464461695706286,0.4372987529285243,0.11857562181368819,0.04838709677420994,1
0.5756999763169691,0.04089459051941746,0.4764734593622076,0.5474708912361549,0.11462382202997068,0.04838709677421349,1
0.5814212405717072,0.04202702231986416,0.4869318406666821,0.7401178517023763,0.11857562181368786,0.048387096774220595,1
0.5830778740554654,0.04109735824280225,0.4815335668902597,0.574117431139537,0.11462382202997157,0.04838709677421349,1
0.5855178608100056,0.04253138169281173,0.4865855331894658,0.5290400539071547,0.11462382202997057,0.048387096774220595,1
0.5805016427759002,0.03908231648563981,0.4845548251565939,0.6504680589898318,0.11857562181368797,0.0645161290322882,1
0.5783649758534694,0.04120352622487572,0.4874705866966746,0.5260873399223235,0.11462382202997112,0.0645161290322882,1
0.5772125505478038,0.04115294001330061,0.48389644752586985,0.42147181413636764,0.11067202224625361,0.06451612903229176,1
0.5804403680691712,0.044222250918933226,0.4865273356791289,0.6014519726379997,0.11462382202997112,0.0645161290322882,1
0.5709774416353,0.042616253157437,0.4855658387038212,0.6656538969466317,0.11857562181368797,0.0806451612903416,1
0.5703994396651381,0.04713554554908522,0.4824513156815025,0.4655644078620039,0.11462382202997146,0.08064516129034871,1
0.5611443449254323,0.04683755457535166,0.4771437618783341,0.5292929506945052,0.11067202224625361,0.0806451612903416,1
0.5631785393217994,0.0484352552152581,0.47648204532112387,0.6677755148094835,0.10276533292136647,0.08064516129034871,1
0.5617288535293228,0.04588176525689158,0.46565273784950895,0.5691007574238489,0.11067202224625361,0.04838709677419217,1
0.5654734308834876,0.04638340200011548,0.4603147821985788,0.4467903692613183,0.10671713270508243,0.04838709677419217,1
0.5451591744385009,0.047950099802288704,0.45476145282706926,0.5585663883202127,0.11067202224625328,0.04838709677419217,1
0.552186105864314,0.04893303188118736,0.4572663393492076,0.6382811070178637,0.1146238220299709,0.04838709677419217,1
0.5509486289317835,0.04726952568064208,0.459440998322873,0.4890397209040178,0.11067202224625361,0.06451612903225268,1
0.5777918816358651,0.041742747301786565,0.46303908044522224,0.48308490135184967,0.1146238220299719,0.06451612903225978,1
0.5920182472554429,0.03739967602335892,0.4705304608325113,0.61210580606214,0.11067202224625405,0.06451612903225268,1
0.5976444249480901,0.035790180883177536,0.4665528781482401,0.5703037903086131,0.11462382202997057,0.06451612903225978,1
0.6074299008125545,0.038408094737314824,0.4848180871250908,0.45265882137032876,0.11067202224625383,0.06451612903227044,1
0.5878921099503394,0.05973354597022296,0.4700305534698894,0.5296240585800659,0.1146238220299709,0.06451612903225978,1
0.3236809931174711,0.11642131149419138,0.482197239273039,0.6492785036946568,0.10671713270508265,0.06451612903226334,1
0.4460515806336216,0.09700165961032303,0.49035419722292845,0.5605792742453104,0.10276533292136658,0.06451612903225978,1
0.524816798937258,0.06991770371350092,0.4888435528245935,0.46059654047899745,0.09486173335393244,0.06451612903226334,1
0.5051016486409039,0.0686658902565036,0.48491543978302354,0.5592526061336,0.0988135331376494,0.06451612903227044,1
0.5208434827105468,0.06035903435749945,0.46617580751225995,0.5514285972133599,0.10276533292136625,0.06451612903226334,1
0.5120189425593891,0.06404102219106667,0.4680347029345813,0.4612527183293027,0.1067171327050831,0.06451612903227044,1
0.5278285553770512,0.0616697793009931,0.45919813880169286,0.5531603415458937,0.11067202224625361,0.06451612903227044,1
0.5122518405426346,0.07610098775385599,0.4530879293420189,0.6048606457727679,0.11067202224625361,0.06451612903227044,1
0.38534538003419094,0.1158921783480506,0.4845341589923012,0.5019621129993231,0.11067202224625405,0.064516129032274,1
0.38154215568671324,0.12111735295288156,0.4645970876391824,0.45843087008039274,0.10671713270508265,0.06451612903227044,1
0.4142748599465722,0.11600928427882895,0.4647622597675166,0.5957381076252601,0.10276533292136558,0.04838709677421349,1
0.4190208590665555,0.11471255598029095,0.45607461074037164,0.5169683906572505,0.1027653329213668,0.048387096774220595,1
0.3805704564416684,0.1333795921266543,0.4685602953330299,0.4283040777515267,0.10276533292136603,0.04838709677421349,1
0.3504183986257746,0.1486504717315873,0.47900163238496485,0.61573179229752,0.09881353313764951,0.048387096774220595,1
0.34003973771989315,0.15255719372252563,0.4763684780037353,0.6654142156566544,0.10276533292136525,0.06451612903229176,1
0.33575241910658704,0.15971497770526638,0.48653157097396343,0.48139635484644905,0.10671713270508199,0.06451612903229176,1
0.3428049196022468,0.15444407552678852,0.4741315751137683,0.5061811919686195,0.10671713270508243,0.06451612903229176,1
0.3652101262132247,0.13988563066926546,0.4586233334975424,0.6372573037422811,0.10671713270508332,0.06451612903229176,1
0.380973349044334,0.1355398807975421,0.4561701165362267,0.5425141332576587,0.11067202224625361,0.08064516129033095,1
0.37361856626957624,0.13473474753790543,0.4606344892674789,0.48891341823589385,0.11462382202997112,0.08064516129033805,1
0.3826201659022933,0.13096264255338208,0.456670308556724,0.6336854577883644,0.11067202224625383,0.08064516129033095,1
0.3877031287580487,0.13097345996197424,0.4665741575015623,0.5610070453019479,0.11067202224625383,0.08064516129033805,1
0.3836717208506434,0.12928687461178134,0.4588511361565762,0.49515619211228284,0.10276533292136492,0.06451612903226334,1
0.3893390745759878,0.12780968653262242,0.46080435974757816,0.6076989775062269,0.11067202224625361,0.06451612903226334,1
0.38792827384725237,0.12697771019148368,0.4602242147302904,0.5609137334206534,0.08300324424532646,0.06451612903227044,1
0.3882468793829671,0.1281655988943713,0.46351466760489435,0.4732731575632265,0.11462382202997123,0.06451612903226334,1
0.3936825301026715,0.12475679982226434,0.4570849348514474,0.6008366813063666,0.1067171327050821,0.06451612903227044,1
0.3863231709448329,0.12840386431332385,0.46330399232608477,0.5761659826777878,0.11067202224625328,0.064516129032274,1
0.3827824878288394,0.13186948742684024,0.4513327793600887,0.48316799681838046,0.09881353313764885,0.06451612903227044,1
0.3595016986064741,0.14189142931347926,0.45105990321133355,0.580231155588999,0.10671713270508298,0.064516129032274,1
0.3602939485988328,0.14318079284633217,0.4499772852153099,0.574215778028463,0.10671713270508276,0.08064516129034871,1
0.3465509263799105,0.1492052839502091,0.4551137995501196,0.4693575858798891,0.10671713270508265,0.0806451612903416,1
0.33959121755508237,0.15439238530190746,0.47458720822456674,0.5682229215222522,0.11462382202997112,0.08064516129034871,1
0.3458595205367173,0.1521731717365848,0.46699072997523666,0.5970684602497685,0.10671713270508276,0.0806451612903416,1
0.34546983994940206,0.15165105106703136,0.46713518533202514,0.4841690621908175,0.1067171327050831,0.06451612903225268,1
0.3467884125415761,0.15214726991987676,0.46675817793627233,0.526171294391258,0.11462382202997179,0.06451612903225978,1
0.34496186971898124,0.1515938375852966,0.46340734404726225,0.627112936879271,0.1106720222462535,0.06451612903225268,1
0.34732088027593433,0.15219158378194947,0.46505013524259037,0.5313000311990673,0.11462382202997157,0.06451612903225268,1
0.3450774254497059,0.15155096242604083,0.4636711987018613,0.47977236501586196,0.11067202224625361,0.0806451612903416,1
0.347509936390314,0.15230702156061982,0.4667162009153475,0.5893582705122692,0.12252742159740437,0.0806451612903416,1
0.3438828818683968,0.1534367909766151,0.46477474363274845,0.588471380385427,0.11462382202997157,0.0806451612903416,1
0.337779463920279,0.15702003325747288,0.4699133368565706,0.4841837705695308,0.11857562181368853,0.0806451612903416,1
0.3409124901576017,0.15359871455523066,0.46651952876021896,0.5227900066333959,0.11462382202997057,0.064516129032274,1
0.34088444714071464,0.152216595180104,0.4682061035059172,0.5953224789091432,0.11857562181368786,0.064516129032274,1
0.33962812999019076,0.15222211452946843,0.46518655359003175,0.5105507084335554,0.1106720222462535,0.064516129032274,1
0.33967084991691054,0.1552185703879539,0.4674378602020422,0.4996275224932025,0.11462382202997112,0.064516129032274,1
0.3401220707811956,0.15470746378845074,0.46546792699983963,0.5925054163458053,0.11067202224625361,0.08064516129033805,1
0.3380142257417207,0.1550664048979487,0.4645757469906607,0.545417897570827,0.11857562181368797,0.08064516129033805,1
0.3340251667550507,0.15505079128170607,0.4695016411851674,0.46767757189283155,0.11462382202997112,0.0806451612903416,1
0.3457325829604867,0.14989144520841607,0.46102938654025055,0.5539893221258625,0.1146238220299709,0.08064516129033805,1
0.35858426424926726,0.143219907370579,0.4424382709129783,0.5984787042627451,0.11462382202997123,0.064516129032274,1
0.36124279373984247,0.14359088628145972,0.443403852163436,0.4868941464839826,0.1185756218136883,0.064516129032274,1
0.3598267950656656,0.14325545322050603,0.4341966285536647,0.5077602527691188,0.11857562181368786,0.064516129032274,1
0.3649436878084108,0.14381918710466407,0.4402605116385934,0.6092352671582043,0.11462382202997112,0.064516129032274,1
0.36001301173727895,0.14134622382540762,0.43599062845617836,0.5491651764405446,0.11462382202997057,0.08064516129033805,1
0.36589964117657026,0.1431530263871646,0.44195798639082234,0.4657020521195927,0.11067202224625328,0.08064516129033805,1
0.3377203141716957,0.1382196265054193,0.4321540177144027,0.5771990980726861,0.1146238220299709,0.0806451612903416,1
0.3894347795369625,0.1286719488589242,0.4762537037762684,0.581316775479495,0.10276533292136658,0.08064516129033805,1
0.4849258678059596,0.11173650203138608,0.5923806998009182,0.4794690031492634,0.11462382202997057,0.0806451612903416,1
0.5423362355585246,0.09969837160666217,0.6210076234647732,0.562614594592487,0.1185756218136883,0.0806451612903416,1
0.5096458376222921,0.10024322963807175,0.5880486862993385,0.6108233070438155,0.11462382202997123,0.0806451612903416,1
0.46584942781903105,0.10798362372046855,0.5622435496756708,0.44929912494294283,0.11462382202997057,0.0806451612903416,1
0.4619572189329325,0.1137136482949504,0.5001470396346378,0.5178999287601866,0.11067202224625416,0.08064516129032384,1
0.2896200331142138,0.1773600618931841,0.3825777716593013,0.7156866172700442,0.11857562181368742,0.08064516129033095,1
0.21234349294990884,0.22048349967945607,0.46150259720040665,0.5560678383282874,0.11067202224625416,0.08064516129033805,1
0.3159434627349279,0.1740981001157691,0.38211965566174977,0.4503077262503131,0.11857562181368853,0.08064516129033095,1
0.4044026256383517,0.14104691830274424,0.38513043435662003,0.5665809658775735,0.11067202224625416,0.08064516129032384,1
0.36645090633436794,0.14136446202801728,0.40358798658032197,0.6503748927951192,0.11462382202997068,0.08064516129032384,1
0.3727592889752702,0.1363041910565974,0.3815295226702116,0.5380418303565443,0.10276533292136558,0.08064516129032384,1
0.37398650091860364,0.13587549277636057,0.40115666853722376,0.46061478999690897,0.10671713270508265,0.08064516129032384,1
0.3754338959064526,0.13555823129266215,0.3939053923909192,0.5987081179816044,0.10671713270508232,0.06451612903225978,1
0.38892060636190573,0.13340086526984624,0.40201513759677726,0.5626952286313055,0.10671713270508265,0.06451612903225978,1
0.3940429855378563,0.13816533589391844,0.39063230037433866,0.4811545159686794,0.10671713270508243,0.06451612903227044,1
0.34165005378021174,0.17037835196782258,0.38192787849754545,0.5717359661285005,0.10671713270508298,0.06451612903226334,1
0.3279906708382443,0.22476385876346422,0.3403912512464258,0.6015606350872875,0.11067202224625361,0.08064516129033095,1
0.24457607645125945,0.28911760690122457,0.19375031560559514,0.47665598736408554,0.1264823111385759,0.0806451612903416,1
0.32316010518691396,0.28288940889945025,0.17394127341864918,0.49453412279689846,0.13438591070600958,0.08064516129033095,1
0.3261933491800578,0.25196613405981216,0.20985063657508962,0.6199525663918444,0.12648231113857555,0.08064516129033805,1
0.31815478709566425,0.2142708571690431,0.2729267328837923,0.714977601972802,0.12648231113857544,0.048387096774195726,1
0.3913038998422277,0.15320198435233628,0.3051747021196318,0.7478145560685309,0.13043411092229285,0.04838709677419217,1
0.47881486798297335,0.10170282362196936,0.37977990304303255,0.3811668009498068,0.12252742159740526,0.048387096774195726,1
0.4771690581258909,0.08625860807170677,0.4039635345113542,0.47892013992669247,0.1225274215974047,0.04838709677419217,1
0.45105343597309755,0.08997410010285123,0.3901490387032076,0.34394439964342094,0.11462382202997035,0.08064516129033095,1
0.4541893933291822,0.09331417969563555,0.39606334731237003,0.4088245188319768,0.11462382202997068,0.08064516129033805,1
0.4529756046729225,0.0950008284974726,0.3910391547120936,0.6071581061877626,0.11462382202997057,0.08064516129033095,1
0.44775109815082836,0.09552958442250903,0.3826505609053276,0.5735284251288736,0.11462382202997112,0.08064516129033805,1
0.4583541443105834,0.09178953253862249,0.3834261085995312,0.48674431959326003,0.11462382202997035,0.06451612903226334,1
0.4513578184548658,0.09297115574575632,0.37862780108382016,0.5445957202613677,0.1185756218136873,0.06451612903226334,1
0.45320279596423974,0.09278141975142928,0.3762667316746493,0.6382984360652997,0.11462382202997057,0.06451612903227044,1
0.45482367497388887,0.0914417299233869,0.3778935977362744,0.5558865723831827,0.11462382202997001,0.06451612903226334,1
0.44957690737740874,0.09439984440438659,0.3751967798350001,0.49568165415376575,0.12252742159740448,0.09677419354839856,1
0.45917842347218574,0.09201856404972492,0.3785617509584934,0.5944755518170523,0.11857562181368819,0.09677419354840211,1
0.45364550442978424,0.09262566346398576,0.37611903356302945,0.6079066930232578,0.11067202224625361,0.09677419354839856,1
0.45347164141319996,0.09286202650976982,0.3771968921077746,0.5042107553108818,0.11857562181368786,0.09677419354840211,1
0.4530130502241482,0.0920789700131982,0.37522252173661264,0.5125617371741944,0.11462382202997057,0.08064516129032384,1
0.45781675297896296,0.0941505691591904,0.37882832568521496,0.6068243854739473,0.1225274215974047,0.08064516129032384,1
0.4533493227879538,0.09326667872571526,0.37558759319915924,0.5351236120137455,0.1225274215974056,0.08064516129033095,1
0.4543094658412794,0.09495062664526693,0.37629181519242777,0.4948938716164962,0.11462382202997112,0.08064516129032384,1
0.45731182974249296,0.09496701436175181,0.37010725781182785,0.5836998815853025,0.11857562181368786,0.0806451612903416,1
0.44957452828063693,0.09638544621639406,0.36919399925743146,0.587172984831413,0.11067202224625416,0.08064516129034871,1
0.4593104838148043,0.0937023288890158,0.3695454538141913,0.4815158771346872,0.11462382202997112,0.0806451612903416,1
0.4545572715291316,0.09628807677468293,0.36675076305832083,0.5362071780151066,0.1067171327050831,0.08064516129034871,1
0.45692818964495785,0.09557506806685245,0.36537888170311317,0.6156735327773605,0.11857562181368764,0.08064516129032384,1
0.45608461228896024,0.09636628519171964,0.36846180154059766,0.5325825794480041,0.11067202224625361,0.08064516129032384,1
0.45174592052602014,0.09557389691814905,0.3655728088420327,0.48243930991809125,0.11462382202997057,0.08064516129032384,1
0.46149619458052044,0.09635990234017944,0.36711869349952553,0.5849550032793993,0.11067202224625405,0.08064516129032029,1
0.45295974667689387,0.09557918459877118,0.36424183895414036,0.594532208453383,0.1146238220299699,0.08064516129032384,1
0.45651469806783085,0.09635957287863345,0.36557640589061113,0.49824054294435316,0.11857562181368786,0.08064516129032384,1
0.4564920225303206,0.09556759021947397,0.3647872729760858,0.5023012550854608,0.09486173335393189,0.08064516129032384,1
0.45400541373074477,0.09641146099911468,0.36656930487720035,0.606758513619709,0.11067202224625383,0.08064516129032384,1
0.4548055942652315,0.09467115701074524,0.36541720575776765,0.5542248444874275,0.1067171327050821,0.11290322580645196,1
0.45410549442721315,0.09614151156809364,0.3642176988861551,0.4783950378105312,0.11857562181368708,0.11290322580645196,1
0.45249876863782734,0.09573798454067595,0.36265653240781864,0.56045405538429,0.11067202224625383,0.11290322580645906,1
0.45952137058723863,0.09619779931882955,0.36589131230280075,0.6107139774224675,0.1106720222462535,0.11290322580645196,1
0.4546982265489937,0.09576960651486482,0.35980101262301334,0.5138888673980264,0.11462382202997057,0.08064516129033095,1
0.4600269531835607,0.09607874122206317,0.3630837723622055,0.48113995325908854,0.11067202224625416,0.08064516129033805,1
0.45840353958396407,0.09643097964710035,0.3571010606087141,0.5901246418095055,0.1146238220299709,0.08064516129033095,1
0.45449850766869027,0.09675004936659204,0.3608314537863111,0.6025156957226062,0.11067202224625383,0.08064516129033805,1
0.45894531831817587,0.09550085488380128,0.36342391994946427,0.4992920036003269,0.11462382202997023,0.08064516129033095,1
0.45701212969492555,0.09625057021502387,0.36799682678878554,0.4911575666478118,0.11462382202997023,0.08064516129033095,1
0.45573899644141136,0.09420280906265244,0.3642173721391512,0.6068342650380667,0.11462382202997035,0.08064516129033805,1
0.45493632184268895,0.09788947632972933,0.35959597384482317,0.5852100556266898,0.10671713270508243,0.08064516129033095,1
0.4795483661297837,0.10080000284067003,0.3498883894624715,0.4904251793498568,0.11067202224625405,0.0967741935483808,1
0.38862397115264213,0.13493498371297113,0.31743576005365043,0.4996853097099806,0.11067202224625383,0.0967741935483879,1
0.3493164390041341,0.15146570176102814,0.34040761172915135,0.6009948114293224,0.10671713270508265,0.0967741935483808,1
0.3918407387625381,0.14336422257772852,0.3317062719167587,0.5512552014099137,0.11857562181368797,0.0967741935483808,1
0.379378222561918,0.143836848142959,0.32743972111555486,0.4736194615037848,0.1185756218136873,0.08064516129032384,1
0.386872639126716,0.14395089925905646,0.3340165271345953,0.5552662339399687,0.1185756218136873,0.08064516129032384,1
0.3540621762421512,0.15509161843317237,0.34240033920168167,0.665762337649902,0.11462382202997112,0.08064516129032384,1
0.3703585186562136,0.1587929815824849,0.33068975330300754,0.5256649102339239,0.11462382202997112,0.08064516129032384,1
0.36330984094083796,0.1644867655210036,0.29284424285889654,0.4854644785291634,0.11067202224625361,0.06451612903227044,1
0.3716951150886726,0.1686069013731405,0.28002524461946354,0.5941478243468326,0.11462382202997112,0.064516129032274,1
0.37511909622703077,0.16765707632281662,0.28776602641280463,0.5815241511728427,0.10671713270508243,0.06451612903227044,1
0.38460559406970063,0.16309044204043788,0.288630141275073,0.4907891055262173,0.11067202224625383,0.064516129032274,1
0.3723453594933094,0.1681989878242487,0.2924691592620473,0.5308298531060867,0.11067202224625328,0.0967741935483808,1
0.35859170130372564,0.17779493650963935,0.2956474028715792,0.6360688484268958,0.11462382202997057,0.0967741935483808,1
0.3465233934199211,0.1835515324654604,0.2918003359784844,0.5424110567310683,0.11462382202997035,0.0967741935483808,1
0.33475427361441923,0.19605627035585682,0.2939814855844816,0.4583229804975138,0.1146238220299709,0.0967741935483808,1
0.30866180798978693,0.2069461039405432,0.30211724238037097,0.5334461926424541,0.10671713270508243,0.09677419354839145,1
0.3202066223413389,0.20454436697292933,0.2987046249250498,0.5568214163107167,0.11462382202997057,0.09677419354839856,1
0.3345196067163779,0.19879841372431795,0.28396060887352903,0.4632589281023815,0.11462382202997057,0.09677419354839145,1
0.33471253878072416,0.19606553004017951,0.2860552742597976,0.5482135241947567,0.11462382202997068,0.09677419354839856,1
0.35066939185374546,0.1845063451968298,0.28936313314371453,0.6199441027714063,0.11462382202997057,0.08064516129032384,1
0.3635771975737506,0.1772523471409374,0.29116056564329496,0.5305831880938021,0.11067202224625328,0.08064516129032384,1
0.3711382685730291,0.1750266909602589,0.2908416566577333,0.46962633573347,0.11067202224625383,0.08064516129032384,1
0.34116022040295335,0.1870180550126735,0.29380924619464394,0.6090802791335068,0.10671713270508243,0.08064516129032384,1
0.3469167168331645,0.18923534851498874,0.28308105874588163,0.6214116745246899,0.11067202224625328,0.08064516129032384,1
0.32973399812554205,0.200329648890696,0.2952728037148648,0.5046027614188446,0.1106720222462535,0.08064516129032384,1
0.29327359075009785,0.2097034628871874,0.3120961583604027,0.4527526156565749,0.11462382202997112,0.08064516129032384,1
0.31765035007988185,0.2057248464393674,0.3069004644750034,0.5895577200363568,0.11462382202997112,0.08064516129032384,1
0.3382356207167245,0.19487718934421183,0.27999027728989206,0.5821129813501337,0.11462382202997057,0.06451612903227044,1
0.36092947201211967,0.18536657612858437,0.2831422589893711,0.48741077095265484,0.1225274215974047,0.06451612903227044,1
0.36174383702391943,0.18190525114432726,0.2725426337019659,0.5661114368547544,0.11067202224625361,0.064516129032274,1
0.3668914991181118,0.17783641412797102,0.2759291797279497,0.6441194962961097,0.11067202224625361,0.06451612903227044,1
0.36546492028739097,0.17520963406326795,0.2785575675964119,0.5304636704891238,0.10276533292136525,0.08064516129032029,1
0.37290726242376615,0.17557790699094122,0.28283706717754636,0.5077150770189661,0.11462382202997112,0.08064516129032384,1
0.36741806508461894,0.17496929814873302,0.28121262822462256,0.5972304964158838,0.10276533292136569,0.08064516129032029,1
0.3659470723756246,0.17504007872642502,0.281760541427481,0.5817104883506345,0.11067202224625361,0.08064516129032384,1
0.3635405787664412,0.17516242434338009,0.27900930124046663,0.4566605154506179,0.09486173335393155,0.08064516129032384,1
0.3711325696829272,0.17732251086864315,0.27832869731310117,0.5197179200973825,0.11462382202997057,0.08064516129032384,1
0.35461308139068726,0.17915800522531766,0.27771614284044915,0.6214734331553223,0.10671713270508298,0.08064516129032384,1
0.4125307450390636,0.17854018228270396,0.27669002848906377,0.5390619725316963,0.11067202224625383,0.08064516129032384,1
0.29342852579581014,0.22175601265713824,0.2634655156858507,0.47167323501235214,0.11462382202997068,0.0967741935483879,1
0.28466793864816187,0.23693807766231684,0.26941486784782764,0.577850527705744,0.11067202224625328,0.09677419354839145,1
0.32286812528780384,0.22055040321079133,0.25963705336116905,0.5794105417409487,0.11067202224625361,0.0967741935483879,1
0.34746277186772523,0.20372563626030094,0.26009683334239087,0.46115628083299176,0.10276533292136603,0.09677419354839145,1
0.35654094081197607,0.18959910062170593,0.2793229762568224,0.5429087439200436,0.11067202224625328,0.08064516129033095,1
0.35199233463536694,0.18494308049460106,0.2906958242135576,0.6647599027356872,0.10671713270508276,0.08064516129033095,1
0.35351634894210504,0.18319764649030462,0.2807150540826871,0.5202494849703145,0.10671713270508276,0.08064516129033805,1
0.3566665756479217,0.18417408073219688,0.2852912496411938,0.4827908109800362,0.10671713270508332,0.08064516129033095,1
0.3444830003685546,0.18589723405515118,0.28668695674640615,0.586653722506095,0.11067202224625317,0.08064516129033805,1
0.34643700678338873,0.18632580417935385,0.2881876385813839,0.5629380202932351,0.11462382202997035,0.0806451612903416,1
0.3518411426434792,0.1826423510851926,0.2853711529782612,0.46713875114618036,0.11067202224625383,0.08064516129033805,1
0.34926774509530467,0.18493393844568518,0.29257732878299647,0.5444298332157106,0.11462382202997068,0.0806451612903416,1
0.34821117751446695,0.18363486224665404,0.2898724110094887,0.6181029723005195,0.11067202224625317,0.08064516129032384,1
0.3471362593121494,0.18904372791656865,0.29051780134074623,0.5244359354304422,0.11462382202997068,0.08064516129032384,1
0.3295789900261328,0.1945090860730755,0.2963220977427855,0.5059910733796701,0.10671713270508265,0.08064516129033095,1
0.3334070693473603,0.19637141091002713,0.29123803979586504,0.610393407154055,0.11462382202997057,0.08064516129032384,1
0.32603882586128174,0.19897351296104848,0.2998855001965901,0.557562748554611,0.11067202224625328,0.06451612903225978,1
0.3250541899455942,0.1999411174739894,0.29421217741966177,0.4788273974569109,0.11462382202997112,0.06451612903226334,1
0.33151075795388973,0.19916407022485783,0.2892919036772562,0.5637663206152153,0.11462382202997035,0.06451612903225978,1
0.3375497438631915,0.19714940434100597,0.27704902833533307,0.6077586609976859,0.11067202224625405,0.06451612903226334,1
0.3540157629986439,0.19233116875783246,0.2723282873865014,0.49616381122041797,0.11462382202997035,0.08064516129032029,1
0.35542828636412216,0.19235216618546708,0.26785433816129095,0.49537553038615056,0.11067202224625328,0.08064516129032029,1
0.35986054381787913,0.18891649212458134,0.26886989292612673,0.6130972711473481,0.11067202224625383,0.08064516129032384,1
0.3555243817822791,0.1891644990492572,0.27494498922326954,0.5843503298296046,0.11067202224625416,0.08064516129032029,1
0.361499963286919,0.18780666239888227,0.2684236871300287,0.50393852241442,0.10671713270508232,0.08064516129033095,1
0.36220971463902474,0.18474191176075266,0.27446726878395367,0.5541370067636898,0.11462382202997068,0.08064516129033805,1
0.36058122179714025,0.183570324385872,0.270562060536345,0.5861875183111406,0.09486173335393211,0.08064516129033095,1
0.36166970716529967,0.18401247445213503,0.2753870766687264,0.5036710739855847,0.10671713270508276,0.08064516129033805,1
0.36584499475478405,0.18102045706949155,0.27013760065682857,0.4794571674977571,0.10671713270508243,0.08064516129033095,1
0.37068203183882076,0.17604407013772994,0.2751022900441586,0.5809909394900556,0.11067202224625383,0.08064516129033805,1
0.3692492674018104,0.1760515444601793,0.27351765857628035,0.566218284883999,0.10671713270508298,0.0806451612903416,1
0.38265754766152094,0.17460382484679038,0.2807950967316788,0.48886476068677787,0.08695504402904364,0.08064516129033805,1
0.3912396084526455,0.1790513108851658,0.2354904084401035,0.5615982243068341,0.11067202224625405,0.08064516129032384,1
0.39524485208139803,0.1872532033387384,0.22472263467409434,0.5910254913603977,0.11857562181368786,0.08064516129032384,1
0.40233950947286035,0.18444441369433112,0.2300442609767612,0.49442781102239297,0.11067202224625361,0.08064516129032384,1
0.38128374135101983,0.19355845276260902,0.23694957920478657,0.503571805621563,0.10671713270508276,0.08064516129032384,1
0.3697095750938785,0.20291200408280197,0.23229552652398783,0.6445822710240958,0.10276533292136558,0.09677419354839856,1
0.3271766633205372,0.21582476939480422,0.26156646781255616,0.5914631294416777,0.11462382202997057,0.09677419354840211,1
0.3449848304803359,0.2118550766343158,0.2436421053711973,0.43941414809195084,0.10671713270508265,0.09677419354840211,1
0.3483522126414884,0.2121222271000484,0.2512654276696759,0.503242955646654,0.11067202224625416,0.09677419354839856,1
0.35046414008105853,0.20724666815951603,0.23806652150205856,0.582710473105018,0.11067202224625294,0.08064516129032029,1
0.36883115701513614,0.1964760184549293,0.24822510759240185,0.5280961823319053,0.1106720222462545,0.08064516129032384,1
0.36520662929022607,0.19061915837965793,0.26176443078422595,0.5095804018379061,0.1146238220299709,0.08064516129032029,1
0.3606318904503195,0.19158129628248755,0.2665495818554398,0.6201590655721813,0.11067202224625405,0.08064516129032384,1
0.3599812308308967,0.1915821602399258,0.2629564971966943,0.5740600059640664,0.11462382202997068,0.08064516129033805,1
0.3616173251061271,0.1921360881540074,0.2668960259854446,0.5056432352001132,0.11067202224625361,0.08064516129033095,1
0.3593227733249229,0.1950889788174855,0.2600225018276956,0.5531815288279996,0.11067202224625383,0.08064516129033805,1
0.3412444741775835,0.19967883374115897,0.28214957086273185,0.5814632000421736,0.10671713270508243,0.08064516129033095,1
0.33419188539149525,0.19768805051147414,0.2821436383975737,0.4899253639221851,0.10671713270508298,0.08064516129032384,1
0.33682215833934337,0.2003809883579874,0.2837538830757422,0.49557211699185577,0.11462382202997146,0.08064516129033095,1
0.3356039602113726,0.19930744565139025,0.2792601655299235,0.6064165759636133,0.11067202224625361,0.08064516129033095,1
0.33330628300857157,0.20024106886884402,0.2826519440757199,0.5660779932728929,0.11462382202997112,0.08064516129033805,1
0.3375389295442919,0.19952522329879263,0.2792963678438968,0.47060996147267997,0.11067202224625328,0.08064516129033095,1
0.338026910596383,0.19902657983030347,0.2813481421129339,0.5533781672930601,0.11067202224625361,0.08064516129033095,1
0.3605433218733801,0.19000954737971099,0.2626311759988387,0.6202528766836265,0.1146238220299709,0.08064516129033805,1
0.3718998158743383,0.1910516043939488,0.2555884378572628,0.5202607937553956,0.11462382202997146,0.08064516129033095,1
0.3607713066367596,0.19046486185194889,0.2570722346076195,0.5133275088308404,0.11462382202997057,0.08064516129032029,1
0.36722853184811066,0.18812804487613327,0.2597362061542598,0.6081844011046945,0.09486173335393178,0.08064516129032384,1
0.36940874741660323,0.18441487289944763,0.2601957530944272,0.5770649758307593,0.10671713270508276,0.08064516129032029,1
0.37338522861896917,0.18371991064470938,0.2635606448473489,0.49137400216784044,0.11067202224625361,0.08064516129032384,1
0.3644415530139382,0.18524470106073854,0.26322495040915805,0.5402281764206113,0.08300324424532712,0.08064516129032029,1
0.36543429539575223,0.18538343210033814,0.2629007029614877,0.5935465261863521,0.11462382202997068,0.08064516129031318,1
0.3716170236520361,0.19003501435806147,0.26113740101840976,0.4911110403038371,0.10671713270508243,0.08064516129032029,1
0.3492128894066103,0.19721653757027707,0.25739153244883417,0.4927991958377988,0.11067202224625361,0.08064516129031318,1
0.3608019176880273,0.19452643198553637,0.2541523307087954,0.6100558919266024,0.09881353313764862,0.08064516129032029,1
0.3625903584850839,0.1939924994768657,0.2600830169537048,0.5760831943562389,0.10671713270508332,0.08064516129032384,1
0.3583373127654589,0.19609309983780143,0.2525423066974719,0.46336711962018795,0.11067202224625405,0.08064516129032029,1
0.3721461942226931,0.1931044035699085,0.2578305574944138,0.5385952517217194,0.10276533292136592,0.08064516129032384,1
0.37810861845210186,0.19816559348455703,0.23973472633628845,0.6233695875185652,0.10671713270508232,0.09677419354839856,1
0.3142142080819674,0.2169031115487728,0.2553760528736053,0.5183970842229632,0.10276533292136592,0.09677419354839856,1
0.3551426153737315,0.20755533498039902,0.2502689497417133,0.4985591087934683,0.11462382202997057,0.09677419354839856,1
0.3497990261940944,0.20788647636770818,0.25245260537613845,0.6031916492691923,0.11067202224625416,0.09677419354839856,1
0.35038748610116977,0.20648598973481486,0.2522799769011385,0.5668421484145894,0.11067202224625317,0.0967741935483879,1
0.3420721843644542,0.2087720126171949,0.2605662104077229,0.5162988977611573,0.11067202224625439,0.09677419354839145,1
0.34609649656685115,0.20693226605286968,0.2509138191174859,0.5754626819218406,0.11462382202997023,0.0967741935483879,1
0.357532930291654,0.20859960900446556,0.25384575817683297,0.5979435076188166,0.11067202224625361,0.09677419354839145,1
0.348891861451192,0.2070390741121707,0.25254465522322134,0.5182400056031208,0.10671713270508265,0.08064516129031318,1
0.34661524132814503,0.20852295821118894,0.25847461804227606,0.48197543773355855,0.11857562181368786,0.08064516129031318,1
0.3469721658541246,0.20709870780453782,0.25214741959244985,0.5921518341102796,0.11067202224625383,0.08064516129032384,1
0.35338947866132386,0.20847357489042956,0.25532137237349745,0.5865134112981881,0.11067202224625328,0.08064516129031318,1
0.35047780260410977,0.20714245235038325,0.24469014861354418,0.49628050403612195,0.10671713270508243,0.06451612903225978,1
0.3387928938444712,0.20842287929041187,0.26974715548128925,0.5124384125462922,0.11067202224625439,0.06451612903226334,1
0.33040765835828834,0.20561308535479067,0.27331016456577295,0.5976487275504951,0.10671713270508243,0.06451612903225978,1
0.35178179418366984,0.20318212340810438,0.2549413503264729,0.5373657547290228,0.11067202224625416,0.06451612903226334,1
0.3655062166485057,0.1996648294254892,0.24455181025030306,0.49662391503546816,0.1067171327050821,0.08064516129033095,1
0.3643539184444534,0.19957439508802072,0.23774211956459507,0.5761197645978395,0.10276533292136525,0.08064516129033095,1
0.3796961490285571,0.1913712845476528,0.24493021606860285,0.5580762839929413,0.10671713270508243,0.08064516129033805,1
0.37584144836661115,0.1929069862236354,0.2405317270381,0.48344883973437897,0.10671713270508298,0.08064516129033095,1
0.37152359131321466,0.19359324768527408,0.24279212696354177,0.5778399227871506,0.10671713270508243,0.08064516129032029,1
0.37705050694975295,0.19265566827693353,0.23743935155591592,0.6093928921874024,0.1067171327050831,0.08064516129032384,1
0.3390687380626103,0.20104255776141589,0.2799113678935211,0.5020010658935112,0.09881353313764885,0.08064516129032029,1
0.3161201220887372,0.20878001101004634,0.29678608744993074,0.4733187934772681,0.09881353313764885,0.08064516129032384,1
0.34233244912066174,0.20441362255923,0.2582763457560377,0.5908481191212084,0.09881353313764829,0.08064516129032384,1
0.32871178660938216,0.2080140261714754,0.2802739791064619,0.5521933538931629,0.09881353313764896,0.08064516129032384,1
0.33032485070305506,0.20588586692194866,0.27724959411834504,0.46942215837792295,0.10276533292136569,0.08064516129032384,1
0.3345108800248249,0.20384982978063,0.27315108445627434,0.5411535231217011,0.10671713270508243,0.08064516129032384,1
0.35712974092948524,0.2007538936313505,0.253543374000533,0.6020153613381779,0.10276533292136525,0.08064516129032384,1
0.3681759080099106,0.19926521113898077,0.24333903490030415,0.5293704865789108,0.10276533292136647,0.08064516129032384,1
0.35968318903777186,0.19909760376930513,0.2478061940016718,0.5262037059824244,0.10671713270508243,0.08064516129032384,1
0.36448078316131094,0.2000004365746787,0.249315460982147,0.609054948002224,0.10671713270508354,0.08064516129032384,1
0.3669530925779403,0.19621094630757574,0.24774306404677285,0.5327986514824875,0.10671713270508243,0.08064516129032384,1
0.3659293022011013,0.1998457347416383,0.24831268137842005,0.5248186345692931,0.10671713270508265,0.08064516129032384,1
0.3611854404731778,0.1986517695051213,0.25043770957419,0.6062492882677912,0.10276533292136592,0.08064516129032384,1
0.36666345608910456,0.1971284018400531,0.2501121969765737,0.5517023223470935,0.10671713270508298,0.08064516129032384,1
0.3663430259753262,0.19752823838677547,0.248280286498891,0.4689882953399242,0.09881353313764829,0.06451612903225978,1
0.35794153447306576,0.20229152676573103,0.24982340776555928,0.557708266139121,0.10671713270508243,0.06451612903226334,1
0.33127861964504113,0.20752956843373732,0.2643831749329938,0.6168061562228252,0.07509655492043854,0.06451612903225978,1
0.34525817879036436,0.206595724288115,0.26033802718771226,0.504781745958997,0.11067202224625405,0.06451612903226334,1
0.3501866370610025,0.1991430773635815,0.2574801826282702,0.48781635287225134,0.11067202224625361,0.08064516129031318,1
0.3537402389314832,0.20080249360763291,0.25771023688569744,0.6054295992304684,0.11067202224625383,0.08064516129031318,1
0.34649435280607477,0.20011831901043947,0.25805591704937825,0.5762166729658589,0.11067202224625416,0.08064516129032029,1
0.3464086136135871,0.20127900101703816,0.2646403032440058,0.4747553957256234,0.10671713270508243,0.08064516129031318,1
0.3494112919579987,0.1992363381950928,0.25598342938027396,0.5501730954432253,0.10671713270508298,0.0967741935483879,1
0.36143427686348495,0.19959153425000065,0.25227908174816444,0.6142985814540948,0.08695504402904386,0.09677419354839145,1
0.3781346341424139,0.19895895773990974,0.22884903395787431,0.5137836933454665,0.11067202224625328,0.0967741935483879,1
0.3624281141490685,0.20147882713499127,0.23800485299557228,0.4912153470273082,0.10671713270508298,0.09677419354839145,1
0.36477088675427094,0.19969601673950965,0.23960921222773732,0.6052771915023178,0.1106720222462535,0.0806451612903416,1
0.3603362817535547,0.20088062476607638,0.25430401729966745,0.5942588325556042,0.11067202224625361,0.0806451612903416,1
0.348960484969577,0.20210859419927574,0.25461547866018164,0.5116423758979517,0.1067171327050831,0.08064516129034871,1
0.33695192689080355,0.2094317611173404,0.2640684849716961,0.5238334481904381,0.1067171327050831,0.0806451612903416,1
0.34373269903712766,0.20633584197943705,0.25533491115830065,0.5840718866567326,0.09090684381276026,0.06451612903226334,1
0.3405833863122776,0.209173150702895,0.2641652186927077,0.5125528120772869,0.11067202224625383,0.06451612903227044,1
0.34360750660913153,0.20649598524007073,0.25637285004718496,0.460694282405532,0.1067171327050831,0.06451612903226334,1
0.34795070687723384,0.20762565886272838,0.2624287995836875,0.5792730378820254,0.10671713270508298,0.06451612903227044,1
0.3505620119276571,0.20228841383941903,0.25277218280405156,0.5968431811788873,0.10276533292136525,0.08064516129032384,1
0.34868734589590844,0.20882472111966383,0.2607820469573935,0.49336092055689107,0.1146238220299709,0.08064516129032384,1
0.3341743908202335,0.20538907138403723,0.24777502340804086,0.53107607803743,0.10276533292136592,0.08064516129033095,1
0.3490665421700342,0.20295597338529253,0.28408824677482825,0.6138728248447867,0.10671713270508276,0.08064516129032384,1
0.3079813822416603,0.19814464353922617,0.29531332206678346,0.5183993359233287,0.10671713270508276,0.06451612903226334,1
0.2817687254054798,0.19699597275003522,0.41178905643270636,0.492512017013796,0.10276533292136625,0.06451612903227044,1
0.3916048978961366,0.1887067962062151,0.579460664577655,0.5988296464919189,0.10276533292136558,0.06451612903226334,1
0.7414931623260874,0.22271586425487305,0.8705816742833143,0.5658721957683363,0.1067171327050831,0.06451612903227044,1
0.6241192203518808,0.2225182681936359,0.8033916937009238,0.4379824385409884,0.1304341109222923,0.08064516129032384,1
0.3586377809455713,0.15279749568743006,0.3402840512089512,0.5664536011002567,0.1225274215974047,0.08064516129032384,1
0.31223536177471234,0.15268375210979568,0.4273628927819937,0.582468988155354,0.10671713270508243,0.08064516129032384,1
0.36232638098654457,0.14422111625694584,0.5037776501104784,0.7716483933690368,0.09881353313764885,0.08064516129032384,1
0.46719193289908056,0.0949570807749473,0.48301499286029426,0.6644849173820082,0.10276533292136569,0.06451612903225268,1
0.42781823159677246,0.07994632778010197,0.5198180473469608,0.3028939518945463,0.10276533292136658,0.06451612903225978,1
0.797437910980296,0.0,0.5968961056347453,0.46241687665799536,0.10276533292136569,0.06451612903225268,1
0.792999279377247,0.05152148932968781,0.6017325756224687,0.4362801357328589,0.10276533292136558,0.06451612903225978,1
0.7583694608365865,0.08226348288557328,0.654763208121302,0.5016162558965384,0.09486173335393155,0.06451612903225268,1
0.85020187449336,0.05892388589347902,0.6899418723948729,0.648861807299171,0.0909068438127606,0.06451612903224202,1
0.8691311774378789,0.037853536186966186,0.68551071099311,0.7095588737637136,0.09090684381276071,0.06451612903224557,1
0.8980570158588915,0.06181985664455758,0.679561749789666,0.5123313878690159,0.09090684381276126,0.06451612903224202,1
0.8869267550784286,0.047226002456287774,0.6902920943748748,0.7949137378397276,0.09090684381276104,0.08064516129032384,1
0.8942343092894662,0.0410881588828097,0.6631623277638719,0.5461941826467243,0.09486173335393244,0.08064516129033095,1
0.9210250015190701,0.060097145031772436,0.6842401213529186,0.21900756633075452,0.08695504402904386,0.08064516129032384,1
0.8889857438548371,0.041939100806621166,0.6697562325896821,0.60699178112894,0.09486173335393189,0.08064516129033095,1
0.8382653758148984,0.04654270034415825,0.6600956812960455,0.6010051593412671,0.0909068438127606,0.08064516129032029,1
0.6943519604748727,0.03288759130593516,0.5848558903309468,0.37981019938512106,0.09486173335393178,0.08064516129032029,1
0.5586163340297078,0.05052748682047298,0.526196896954397,0.6426766358871433,0.08695504402904364,0.08064516129032384,1
0.6073001073630384,0.03343731857377691,0.5355753482148502,0.534254354544509,0.08695504402904364,0.08064516129032029,1
0.662203046719972,0.033421132151813304,0.5325983616638139,0.45626585493519534,0.09090684381276037,0.0967741935483879,1
0.6406406090210943,0.026853221725803122,0.5379406543195662,0.48528752898351357,0.09090684381276071,0.09677419354839145,1
0.6245007596082695,0.036661712735125696,0.5271676016994128,0.6313161615806258,0.09090684381276126,0.0967741935483879,1
0.6259534270701099,0.03567261739820671,0.5457786469952589,0.5636053887695496,0.08695504402904419,0.09677419354839145,1
0.6174900566047204,0.03976046348343304,0.534599301320568,0.5223121039087198,0.0869550440290433,0.0806451612903416,1
0.6209676101611092,0.03723780086602341,0.5424491130678901,0.5939820417133539,0.09090684381276037,0.0806451612903416,1
0.6061522055099394,0.039631778983473365,0.5334795754067225,0.553532967854246,0.09090684381276071,0.0806451612903416,1
0.6321928997796534,0.03796666695993911,0.544090930838203,0.554534966924986,0.09881353313764862,0.0806451612903416,1
0.6067102747846125,0.03413884958058583,0.5131774903372369,0.6000094273218292,0.09090684381276071,0.0806451612903416,1
0.6430334250574001,0.03316000233363625,0.5373320521425482,0.5936664043796185,0.09881353313764885,0.0806451612903416,1
0.5814165720256446,0.04541965256205799,0.5161388560740299,0.4439549795266824,0.09881353313764829,0.0806451612903416,1
0.6133139875118321,0.04236834189438077,0.5366666258016815,0.5128687608872736,0.10276533292136592,0.0806451612903416,1
0.5842524160982887,0.03968859567472477,0.5172844046277055,0.578754541734682,0.10671713270508199,0.0967741935483879,1
0.6561046517946078,0.0760009534533359,0.5545810571151185,0.5870279708429417,0.10671713270508199,0.0967741935483879,1
0.4970399615602947,0.09914598718701412,0.38954350122149356,0.494562185338874,0.10276533292136558,0.09677419354839145,1
0.31178364164401606,0.1093249929159732,0.32650125327528,0.5022938171488086,0.10276533292136592,0.0967741935483879,1
0.3567167574064014,0.1806941121095637,0.3399248183017796,0.4970151566902059,0.09881353313764851,0.09677419354839856,1
0.2520314565338796,0.22811255312423595,0.3270519010872335,0.43172092173680116,0.1146238220299709,0.09677419354839856,1
0.23521035913893817,0.2754705416701196,0.3444860413739206,0.5466520552776079,0.10276533292136536,0.09677419354839856,1
0.22320579585624523,0.27350074223193244,0.4000953685506716,0.5846203456862017,0.10671713270508276,0.09677419354839856,1
0.21125317046013847,0.28181004005090715,0.3906642597358395,0.45226409613684276,0.10276533292136603,0.09677419354840211,1
0.20116026042939883,0.2974826847220068,0.4140660335537207,0.5214265038083673,0.10276533292136569,0.09677419354839856,1
0.1981795963930415,0.32074489069656814,0.4274885746094399,0.6330296534016453,0.09090684381276137,0.09677419354840211,1
0.1900901097002673,0.327672469914964,0.45268125515698837,0.548075199538034,0.10276533292136592,0.09677419354839856,1
0.19274552011762036,0.31941578451259056,0.4410974984744828,0.47844010619708066,0.10276533292136603,0.0806451612903416,1
0.1893599718443274,0.3212188920364035,0.45011743855969666,0.6191129493384168,0.09881353313764918,0.0806451612903416,1
0.17618384535790155,0.3277093360468062,0.4320336171637445,0.5448281150512918,0.10276533292136569,0.0806451612903416,1
0.1842754263033095,0.3373167006290626,0.4698434143558461,0.5192970757994446,0.09881353313764885,0.0806451612903416,1
0.15395084742809895,0.295597163282282,0.44130469587113036,0.6250036075824269,0.10276533292136525,0.09677419354839856,1
0.2209576631227249,0.2336680778840452,0.45272657312530035,0.5476149831943978,0.09486173335393144,0.09677419354839856,1
0.36321875836165873,0.26895303891928724,0.2738790742827245,0.5262973972167672,0.09486173335393189,0.09677419354839856,1
0.5544451313488405,0.127418496409067,0.15012430256756926,0.626572231223284,0.10276533292136603,0.09677419354839856,1
0.513252888477878,0.12688500289792198,0.22793756490938855,0.5080526168416292,0.12252742159740437,0.08064516129033095,1
0.5237241320240695,0.11152585894469502,0.2999062195373059,0.5865109986393349,0.10276533292136603,0.08064516129033805,1
0.4771633405061244,0.08127454227345238,0.35246535949513863,0.7970740168117769,0.09881353313764851,0.08064516129033095,1
0.44274320846803605,0.1060846960828769,0.2750186246048953,0.9413806802762891,0.11067202224625361,0.08064516129033805,1
0.5131627428544381,0.06648360360174732,0.39013263274774407,0.32285802173751105,0.1106720222462535,0.09677419354840922,1
0.5674550853804072,0.04303771875340856,0.44020383239653804,0.21085567891164336,0.10671713270508298,0.09677419354840922,1
0.6139871686731313,0.037638886780939296,0.4745347356284144,0.4279958720085892,0.09486173335393189,0.09677419354840922,1
0.557286297100189,0.03830624143460587,0.39239467496772273,0.5647127523577041,0.10671713270508298,0.09677419354840922,1
0.5425219113529803,0.06896931273480894,0.352457016704138,0.5798609055976859,0.09881353313764851,0.08064516129032384,1
0.49806460559762983,0.06429055952005547,0.3738736185099645,0.49089306847596453,0.11067202224625405,0.08064516129033095,1
0.5298533728549353,0.059991878750906114,0.38976772615971844,0.6212219737930676,0.08300324424532679,0.08064516129032384,1
0.515573113825649,0.06368678158651703,0.4235885579119268,0.5076376587287393,0.10276533292136603,0.08064516129033095,1
0.5237190408354,0.06326133021934038,0.44248239969897224,0.5485056099775144,0.09881353313764818,0.08064516129033095,1
0.45513088712482097,0.07419986171499615,0.4761174295865312,0.5984563792934084,0.09881353313764829,0.08064516129033095,1
0.5074471944115566,0.07579240034428114,0.4656610927786744,0.5127829647232036,0.09881353313764896,0.08064516129033805,1
0.5298769416025881,0.060330517514773585,0.4531465101363715,0.5872118626802053,0.09486173335393211,0.08064516129033095,1
0.5572040488769902,0.04444698247729206,0.4601393360844947,0.5832267201185453,0.09881353313764829,0.09677419354839145,1
0.559254373417933,0.05148565828867763,0.44119210473113496,0.4839645834360856,0.0909068438127616,0.09677419354839856,1
0.50064654427016,0.06315504960085055,0.4609882022980878,0.5554404839400902,0.09881353313764818,0.09677419354839856,1
0.5249671289825336,0.05565435147515119,0.4352214711890581,0.5566623149301682,0.09486173335393178,0.09677419354839856,1
0.5232374465036145,0.06126778136789057,0.4528390519464714,0.5141267536609937,0.09881353313764885,0.08064516129031318,1
0.5335728167896363,0.05542671688983447,0.44810092751291025,0.5544806280916116,0.09486173335393178,0.08064516129033805,1
0.5098530483883739,0.060388686558681015,0.43725377550914735,0.5639093964868787,0.09486173335393211,0.0806451612903416,1
0.5241600931151654,0.0637729224806548,0.4340427068523129,0.5046451177441829,0.09486173335393189,0.08064516129033805,1
0.4787584288335829,0.07048797799324191,0.4323302403892563,0.5422589654223108,0.09486173335393211,0.08064516129031318,1
0.5142620939322757,0.06574830460764691,0.4153631999453084,0.5777853491300724,0.09881353313764851,0.08064516129031318,1
0.5184109062496793,0.06211864137135442,0.4178189893017207,0.5309406553200474,0.09090684381276037,0.08064516129031318,1
0.5157318175596718,0.06530583666705347,0.42052995353434786,0.5241030550326546,0.09090684381276071,0.08064516129031318,1
0.507493267823629,0.06454964866248591,0.42083653457146214,0.5873819542995166,0.09090684381276026,0.11290322580645906,1
0.5144490912012758,0.06620025180197464,0.41418570197687204,0.578614514566337,0.09881353313764851,0.11290322580645906,1
0.4940506447391257,0.07312041955068121,0.39891928786583986,0.5046364368809892,0.09090684381276071,0.11290322580646617,1
0.5043827081128562,0.07143913932524681,0.3967884869073033,0.5272823910172312,0.09090684381276104,0.11290322580646617,1
0.4842323745416433,0.07941803193005897,0.4030493356625798,0.5822612700338775,0.09090684381276104,0.08064516129032384,1
0.4478784771444627,0.08752930700797373,0.42155892262003336,0.5270714717608537,0.09486173335393233,0.08064516129033805,1
0.4588660158088713,0.08821486502327258,0.4095941457847337,0.5198517015139174,0.09881353313764885,0.08064516129033095,1
0.4551038223724987,0.09068610925216819,0.42071425671444923,0.570520347053635,0.09090684381276093,0.08064516129033095,1
0.4501915403390365,0.08817337557663629,0.40914883176507444,0.5340128748208242,0.09881353313764829,0.0967741935483808,1
0.4564580945402906,0.0931911097446213,0.42711154239555305,0.502607277152402,0.09090684381276071,0.0967741935483808,1
0.4548489796798397,0.10096799057150752,0.36943909192418617,0.550008128183816,0.09090684381276104,0.0967741935483808,1
0.46134109130485546,0.12407130823932833,0.3500286111968209,0.5729782952255339,0.09090684381276071,0.0967741935483808,1
0.2880584975092635,0.216096135209164,0.3440753549550212,0.502313714814599,0.09486173335393122,0.08064516129032384,1
0.3655691257885503,0.22278578554558703,0.1545845038031981,0.5230464268778835,0.09090684381276071,0.08064516129032384,1
0.41743141149334306,0.21694705414132942,0.19665658916019663,0.5835332026774319,0.09486173335393122,0.08064516129032384,1
0.3991020316228727,0.2200403245109716,0.17311947371226843,0.5725246431889742,0.09881353313764918,0.08064516129032384,1
0.433257355296069,0.2128509054855376,0.18068811519891165,0.47446522513140554,0.09881353313764851,0.0967741935483808,1
0.4190978008899112,0.21206164632411495,0.17738994879552322,0.7374646262602006,0.09881353313764885,0.0967741935483808,1
0.41106021321408814,0.21884070936486438,0.18023533362070376,0.5889368472006702,0.09881353313764885,0.0967741935483808,1
0.413763536037538,0.22314712417153243,0.16232554180953795,0.45178298669060396,0.09881353313764829,0.0967741935483808,1
0.42243883725122033,0.2201770327833989,0.1614030992821247,0.4955380406254451,0.09486173335393178,0.09677419354839145,1
0.45451209165232753,0.21035687683346455,0.16721091663468102,0.5588678104153971,0.09486173335393189,0.09677419354839856,1
0.4365963103262873,0.2154862305989968,0.16870167743647824,0.5912058985969965,0.09486173335393189,0.09677419354839145,1
0.3957946375571666,0.2274322306599456,0.1687235340888834,0.5021709453511651,0.09090684381276071,0.09677419354839856,1
0.40686335140375074,0.22465642212773163,0.17526556267515458,0.5436106407819488,0.0909068438127606,0.09677419354837369,1
0.42974075285198177,0.2155874974644305,0.1650532461524865,0.5908428859336642,0.09486173335393189,0.0967741935483808,1
0.4193445542710649,0.22159085235826487,0.1671677319756179,0.5625873430467792,0.09090684381276126,0.0967741935483879,1
0.4397438793296712,0.22259282876775704,0.16284327885805283,0.5121438215408332,0.09486173335393266,0.0967741935483808,1
0.4187576288079452,0.23209089751789586,0.15430691211418818,0.5522116267549013,0.09090684381276104,0.09677419354839856,1
0.4135642707259216,0.23351190057584897,0.15487105859764705,0.5681551593695467,0.09486173335393233,0.09677419354840211,1
0.42274150993327253,0.2270754587539589,0.1617391357501038,0.49508466103228793,0.09486173335393244,0.09677419354839856,1
0.4445234382340788,0.223159563264981,0.15442399683733132,0.4778816363878632,0.09486173335393233,0.09677419354840211,1
0.4313731577593354,0.2240664419976785,0.16209012984204052,0.6080398939977973,0.0909068438127606,0.0967741935483808,1
0.4224198293600938,0.22370970157094977,0.16128680888514585,0.5562163991100558,0.09090684381276104,0.0967741935483808,1
0.41902562324668713,0.2229510732788183,0.16380985327881892,0.4538883085516844,0.09090684381276093,0.0967741935483879,1
0.43043374553293656,0.220621203929456,0.15983434727908957,0.46476708612122175,0.08695504402904397,0.0967741935483808,1
0.42791101671445997,0.21882579446531997,0.1650269002170734,0.6215100215948717,0.09090684381276037,0.09677419354839856,1
0.4259973300753036,0.21556445137684416,0.16196909343749522,0.540885715788886,0.09486173335393211,0.09677419354839856,1
0.4417640996570852,0.20750540837562792,0.17344044556586202,0.47429439302892046,0.09090684381276071,0.09677419354839856,1
0.46027934131757237,0.20055257759958955,0.1635577401766251,0.5659641838235538,0.08695504402904364,0.09677419354839856,1
0.4512237192716819,0.20035850187199417,0.16728571722284158,0.6359396020610816,0.09090684381276004,0.0967741935483808,1
0.44845824593132744,0.19699673011469915,0.17826597226467283,0.47512927859074433,0.09486173335393144,0.0967741935483808,1
0.44179373270644673,0.19641233240230715,0.1794414172038647,0.4650644821629353,0.09486173335393233,0.0967741935483879,1
0.4409130274844443,0.1984165962116809,0.17661582301895667,0.600310881209743,0.07114475513672192,0.0967741935483808,1
0.43787720537271513,0.1991911071438277,0.18019364410983119,0.6288899671136134,0.09090684381276071,0.11290322580645196,1
0.4398232518316083,0.19681773765801475,0.17716838851288802,0.4089655570573788,0.09486173335393233,0.11290322580645906,1
0.4381093562062083,0.1946576397556446,0.18248093048505842,0.45520778770437154,0.09090684381276104,0.11290322580645196,1
0.44762199947099135,0.1929588954954411,0.18299596146423658,0.694301743560197,0.09486173335393189,0.11290322580645906,1
0.44696160205713087,0.1954465372442919,0.17192730921378085,0.6437500255554861,0.09090684381276026,0.08064516129032384,1
0.4448236404548538,0.2002725914287068,0.16150532275283896,0.4162883375339188,0.09486173335393122,0.08064516129032384,1
0.4570195908878849,0.19925853683013472,0.1690793006290749,0.4447946353117123,0.09486173335393178,0.08064516129033095,1
0.4445387263257209,0.20148181230372664,0.17181506100079136,0.6913453262642862,0.09486173335393189,0.08064516129032384,1
0.44084600638537574,0.20525511790595752,0.16635678141630783,0.6523600265780827,0.09881353313764918,0.0967741935483808,1
0.43944204212481963,0.20837104396032097,0.16899935817849865,0.48730950482065677,0.08695504402904386,0.0967741935483879,1
0.4357749691459747,0.20801173726401673,0.16966712400997574,0.45963390836622003,0.07905144446160983,0.0967741935483808,1
0.43783758680205753,0.20765064142176787,0.1730741848024725,0.6540230940590094,0.08300324424532712,0.0967741935483879,1
0.43471090902495024,0.20790082917843544,0.17191079899938966,0.6037283976657356,0.08695504402904364,0.08064516129032384,1
0.43650005231251154,0.2077845099625601,0.1714891791674969,0.5093925536184459,0.0869550440290433,0.08064516129032029,1
0.4237399521952532,0.2107919156577372,0.17178353381687117,0.5295281561673019,0.09090684381276093,0.08064516129032384,1
0.43183760714906794,0.2104539909533838,0.1694781567490693,0.6391612066662933,0.08695504402904386,0.08064516129032029,1
0.42036246567506574,0.21474812777822289,0.17371078521303912,0.5300583152620717,0.08695504402904364,0.0967741935483808,1
0.4233634672757296,0.2153714725343449,0.17102813404330036,0.45237309016542415,0.09090684381276093,0.0967741935483879,1
0.4270884984289097,0.21424853361365453,0.17163764986986613,0.5908173621702555,0.0909068438127606,0.0967741935483808,1
0.42873739826841006,0.21340439424798446,0.17181977732761955,0.6531040019113677,0.09090684381276104,0.0967741935483879,1
0.42428973837371287,0.2160979280808038,0.17382120572601883,0.473450462375291,0.08695504402904364,0.09677419354837014,1
0.4256022783541964,0.21556824983238115,0.1706723024313293,0.4800710112858181,0.09486173335393144,0.09677419354837014,1
0.42493794129201723,0.21521889514503167,0.1705781380623736,0.6350229199548694,0.08695504402904364,0.09677419354837369,1
0.42690265125890414,0.21463250304532266,0.17053225480380724,0.605968131804091,0.09090684381276093,0.09677419354837014,1
0.4316060468724541,0.21236401800829163,0.17049424647992134,0.4477897315431661,0.0869550440290433,0.11290322580645906,1
0.42581077680721324,0.21509321355640282,0.1707138942647588,0.5127054131672408,0.09090684381276071,0.11290322580646617,1
0.42907140332494786,0.21400685553552068,0.17018371659651876,0.647262796443939,0.0869550440290433,0.11290322580645906,1
0.42663845317920723,0.21458211105723873,0.1713490339288119,0.5544473880028565,0.09090684381276104,0.11290322580646617,1
0.426554377790371,0.21500450373224406,0.1672682627561099,0.4475019978893184,0.09090684381276037,0.11290322580645906,1
0.4290286717539926,0.2153142074835891,0.17151442445624687,0.5593018427619414,0.0869550440290432,0.11290322580645196,1
0.4279680561204431,0.21612309935702423,0.1676110496224314,0.6342382613343948,0.09090684381276104,0.11290322580645906,1
0.4279869682548548,0.21543557515450218,0.16661308312852285,0.5000833283183488,0.09090684381276071,0.11290322580645196,1
0.4314874319708286,0.2162318819379625,0.16494645677103853,0.4646364407196218,0.09090684381276071,0.0967741935483808,1
0.43283299707358613,0.21493907777699656,0.16702693809379898,0.6169310575571818,0.0869550440290433,0.0967741935483808,1
0.4406443787774278,0.21333236041215686,0.16451783704627831,0.6011077113174316,0.08695504402904364,0.0967741935483808,1
0.4344525315912884,0.2097155696700112,0.16657388637508402,0.4702558497408954,0.08695504402904386,0.0967741935483808,1
0.45196088223132724,0.20721881742882903,0.16678803778091522,0.506265293255579,0.0869550440290433,0.09677419354839145,1
0.4364303996503891,0.20813633764140715,0.16844775007688367,0.6280384263338127,0.09881353313764829,0.09677419354839145,1
0.44348771876505355,0.20755818508713947,0.16977157827915068,0.5220811399594975,0.09090684381276104,0.09677419354839856,1
0.4416096244830029,0.20797623877768268,0.1656033987536054,0.47262929155977285,0.09090684381276104,0.09677419354839145,1
0.44176178633710905,0.20768875055799346,0.16835418026282378,0.5650479766168547,0.09090684381276026,0.08064516129032384,1
0.4435016072398218,0.20603915779901882,0.16896741955622574,0.5720995381451736,0.09486173335393189,0.08064516129032384,1
0.44020860186073063,0.20743526187642147,0.16972061950778528,0.43919834890027537,0.0909068438127606,0.08064516129032384,1
0.43911893984890116,0.20811347088396354,0.17013436170791013,0.5342110629733725,0.09090684381276071,0.08064516129032384,1
0.44301857262591227,0.20744579532781132,0.1700534928695206,0.640108388915644,0.08695504402904364,0.0967741935483879,1
0.43911643965168123,0.2082674424514545,0.1701178808109845,0.5060021855462018,0.09486173335393178,0.0967741935483808,1
0.4491962743401171,0.20695785265127264,0.1638941869203605,0.4506048549839584,0.09881353313764885,0.0967741935483879,1
0.44529446298827646,0.21295164595311816,0.15792999509068806,0.6232799874211911,0.09090684381276104,0.0967741935483808,1
0.42464699133838335,0.2251118817648699,0.15892684673994417,0.6180207403556451,0.09486173335393178,0.09677419354839145,1
0.39080762072028175,0.2340760240432394,0.17515556707230712,0.4635088954444764,0.09090684381276071,0.09677419354839856,1
0.40165137034483733,0.2369422252245459,0.16467879128656138,0.5031452992651975,0.09090684381276037,0.09677419354839145,1
0.40829399039503267,0.23405098726517115,0.16672301783464838,0.6579546630058092,0.09090684381276071,0.09677419354839856,1
0.40072774605292616,0.23141757405276492,0.17287195810204176,0.5748899226189391,0.09881353313764851,0.09677419354839856,1
0.39628126222086346,0.23193940113303224,0.17770540084351477,0.43242403783976274,0.09486173335393178,0.09677419354839856,1
0.3914638739924807,0.23141456705714014,0.17889343333968638,0.5583448002210925,0.09090684381276071,0.09677419354839856,1
0.3976904249998423,0.228198756953294,0.17805672066193,0.6461894677627287,0.08300324424532712,0.09677419354839856,1
0.38953158941404653,0.23032295552656218,0.18279790467863066,0.4950290403618226,0.09486173335393144,0.09677419354839856,1
0.39100098164215846,0.2321997139551759,0.18058987407211852,0.5393405920929781,0.09090684381276071,0.09677419354839856,1
0.3908076669137326,0.23147594267220212,0.18171349805203318,0.6208246483112283,0.09486173335393189,0.09677419354839856,1
0.38721906887130386,0.23199153171187886,0.1847031907587915,0.5280394581763578,0.09090684381276071,0.09677419354839856,1
0.3899597473484666,0.23154896434400524,0.18524675118375195,0.4693906918941505,0.09090684381276026,0.09677419354839145,1
0.3859330180299114,0.2319885909024374,0.18334017933100216,0.6175659512494441,0.09881353313764896,0.09677419354839145,1
0.3876513218163785,0.2312691618994982,0.184886121774072,0.5729899322383848,0.09090684381276071,0.09677419354839856,1
0.3900203434765275,0.2263538756720177,0.18048169863200808,0.4620355807296069,0.07509655492043887,0.09677419354839145,1
0.3955667263975817,0.21900522080985824,0.19352860307322733,0.5512328919526481,0.09486173335393122,0.09677419354839856,1
0.38982445058390836,0.2145905573691136,0.19819328108612036,0.6247228307998492,0.09881353313764885,0.09677419354839856,1
0.39794584953856327,0.21548284332247242,0.1963806378198586,0.4837048246659434,0.0869550440290433,0.09677419354839856,1
0.3893282050468554,0.21587683680852288,0.19660974795792588,0.49927042383359943,0.09090684381276104,0.09677419354839856,1
0.39712462824214445,0.2157566055082577,0.19587746807265,0.5892839219393131,0.09090684381276037,0.06451612903225268,1
0.38937214908372486,0.2216364054226383,0.19259834398254466,0.5322332746836445,0.09090684381276026,0.06451612903225268,1
0.37759891358606923,0.22614568609754043,0.19848030326700533,0.46209707339185774,0.0909068438127606,0.06451612903225978,1
0.36361297386198366,0.2289239837670839,0.20200796767990492,0.5896317868670962,0.0869550440290443,0.06451612903225268,1
0.3844641514534194,0.21952517011159778,0.19713195737352332,0.6059514026126612,0.09486173335393111,0.08064516129032384,1
0.3988374578586886,0.2155570621295178,0.20411662770975159,0.4916665751435935,0.09486173335393178,0.08064516129033095,1
0.3840621531178007,0.21598155747480707,0.19635899415311775,0.5467027676121247,0.09486173335393211,0.08064516129032384,1
0.39281806324685886,0.2155832126834828,0.20066996161873168,0.6087256248754221,0.09486173335393189,0.08064516129033095,1
0.36389433853937936,0.22243033244660726,0.1994717847077354,0.48786003855313964,0.0909068438127606,0.06451612903225978,1
0.35277565659238186,0.22077103376877716,0.2254904482652654,0.5030800318662209,0.09090684381276104,0.06451612903225978,1
0.3888697590466228,0.2099729394134625,0.20105310698757065,0.6290770966575858,0.09090684381276126,0.06451612903226334,1
0.38917088399567124,0.20948386715016787,0.20836727866586757,0.5587729713327079,0.09090684381276093,0.06451612903225978,1
0.38758212613019527,0.20988023277809104,0.21448321995072708,0.46872011468780916,0.08695504402904386,0.08064516129033095,1
0.3867675561634001,0.2077379542579178,0.20700204959187463,0.6286371204768172,0.09486173335393189,0.08064516129033805,1
0.3956395132548598,0.21311484705340067,0.20591609568538166,0.633524187597177,0.09090684381276093,0.08064516129033095,1
0.36281402676874475,0.21256979327342784,0.19451312087179012,0.5171484182594143,0.08695504402904364,0.08064516129033805,1
0.29885913365379635,0.20929528128213953,0.3468422594752115,0.5554186871293831,0.09486173335393155,0.09677419354839856,1
0.3341523270588842,0.1972385665812948,0.4323757320009158,0.5482554420572283,0.11067202224625317,0.09677419354839856,1
0.28084440995548454,0.20521913807562636,0.35586020177296773,0.4705615377667691,0.304347288737834,0.09677419354839856,1
0.25680172185072614,0.22388638044537995,0.3631593522264037,0.3869793553399655,0.2766785107369074,0.09677419354839856,1
0.3201173049577266,0.20309380700964857,0.3086826207973613,0.6146189211802704,0.22924764405994136,0.08064516129032384,1
0.2994627885314579,0.20455593026090724,0.3421977130083129,0.8029389451704416,0.2094855553839028,0.08064516129033095,1
0.27992881753916443,0.1974160962388133,0.348582856872855,0.5076836397868588,0.16205468870693673,0.08064516129032384,1
0.38564288710736894,0.15374886193851667,0.44277139626648465,0.3445213368103335,0.1541510891395026,0.08064516129033095,1
0.3652951202262471,0.14505743318358416,0.477467024394271,0.5254340386443053,0.10276533292136558,0.09677419354839856,1
0.3688552427408378,0.1427931622329952,0.44446237786954573,0.4353731506032491,0.10276533292136569,0.09677419354839856,1
0.32175360397288244,0.1588849539504486,0.45774748243993335,0.41191455152058787,0.07905144446161017,0.09677419354839856,1
0.3460815420594263,0.154790165764489,0.4554268972157207,0.35666893841724456,0.09881353313764818,0.09677419354839856,1
0.34768548752500306,0.15092926094526382,0.4465354038145012,0.4030942772251704,0.09881353313764896,0.06451612903227044,1
0.34253100765383604,0.15285048121406475,0.4503596851765886,0.5777601464635405,0.09486173335393244,0.064516129032274,1
0.3413924547066739,0.15164088065261955,0.4429752685182524,0.8239324672820043,0.09486173335393189,0.06451612903227044,1
0.33871188903837357,0.15374189235602898,0.44945987370986545,0.6276952629145962,0.08300324424532712,0.064516129032274,1
0.3614320894913984,0.15074603527564295,0.42777814245565987,0.5805008391487703,0.08695504402904353,0.06451612903227044,1
0.3419262572577719,0.1730505773656551,0.37866917020851454,0.72766255478302,0.08695504402904386,0.06451612903227044,1
0.28426232941235274,0.20139900342671158,0.24643932524112275,0.614460283428486,0.08300324424532657,0.064516129032274,1
0.5808536774457054,0.13796075641879707,0.13171697214417055,0.5079497322649043,0.09881353313764918,0.06451612903227044,1
0.5818387045399427,0.10756332549371483,0.224913934519835,0.6530004305405228,0.10671713270508243,0.0967741935483879,1
0.5595264890843512,0.10163962673128363,0.24281102871320323,0.5838340017354045,0.10276533292136603,0.09677419354839145,1
0.5368546324788235,0.10424464088102575,0.22776299788400925,0.6433825323431155,0.10276533292136558,0.0967741935483879,1
0.5512968161442491,0.09788429762411238,0.24081497153491294,0.8896579292325213,0.10276533292136603,0.09677419354839145,1
0.5271600986594716,0.08795047471554829,0.2581907145513531,0.37186733110564907,0.09881353313764885,0.08064516129032384,1
0.6005313780488464,0.06416671317059797,0.3112867621183824,0.31827734622722237,0.09881353313764862,0.08064516129032384,1
0.6278858400337818,0.0566381045640868,0.2847115913151983,0.5131795959202125,0.09486173335393211,0.08064516129032384,1
0.6375163785048888,0.0652761522353783,0.23606521776075215,0.5682691595651199,0.09090684381276071,0.08064516129032384,1
0.6371381268812434,0.06457623554760133,0.24455410102652322,0.42069847219573653,0.09486173335393189,0.06451612903225978,1
0.6101113799597557,0.07414397816072249,0.24347424982144075,0.532859831731824,0.10276533292136658,0.06451612903225978,1
0.5648366922196071,0.08143569422766522,0.24995388613893668,0.6441048294048853,0.10276533292136603,0.06451612903225978,1
0.6255188435968777,0.06103585221343716,0.2723460098986994,0.5986923944840515,0.10276533292136603,0.06451612903225978,1
0.6225873015521399,0.055148129446390415,0.28332427776103664,0.51567642731051,0.09881353313764829,0.09677419354839145,1
0.5996938907545304,0.053515784165069746,0.2867444394424181,0.4979656156774478,0.10276533292136569,0.09677419354839145,1
0.65747706609858,0.0380336088123262,0.2985028873124515,0.43644013000387133,0.10276533292136558,0.09677419354839856,1
0.7090930923726,0.031521420981004966,0.2857592485600397,0.5277001048141734,0.10276533292136603,0.09677419354839145,1
0.7404553366976743,0.034972462728258824,0.2599771028669684,0.5425846131911752,0.10276533292136536,0.08064516129032384,1
0.7125729562680171,0.0577178751860864,0.22759399494936214,0.5007650602228433,0.10671713270508298,0.08064516129033095,1
0.6133845712097402,0.07932737913177762,0.2116862723291257,0.5937376807628888,0.10276533292136536,0.08064516129032384,1
0.6163815589870898,0.0807578905522216,0.20621473002907326,0.7130808274852671,0.11067202224625361,0.08064516129033095,1
0.6094179637454411,0.07113863578138147,0.24570837440598844,0.5156554002587169,0.10671713270508265,0.08064516129032029,1
0.6093697435127876,0.06342889840845056,0.28438189061995645,0.5095024046522048,0.10276533292136558,0.08064516129032029,1
0.6184216173814019,0.054674639894278954,0.28522298326265305,0.5534747217503153,0.10276533292136603,0.08064516129032384,1
0.6118280936072764,0.05645136386009475,0.2968137898566282,0.47014325987066496,0.10276533292136558,0.08064516129032029,1
0.5737615615245575,0.06693314281595453,0.2691018832584826,0.5264454461850556,0.10671713270508232,0.08064516129032384,1
0.6269968979942284,0.07521512001159703,0.264404286747128,0.4420661727783071,0.09090684381276126,0.08064516129032384,1
0.4836600248384649,0.08668606680354246,0.24845940448360304,0.4796728736647864,0.11067202224625328,0.08064516129032384,1
0.49501566686684473,0.0917300515136647,0.4098681759519658,0.5937144298286147,0.10276533292136603,0.08064516129032384,1
0.48313178895564995,0.09046403641274875,0.41772013364523375,0.5448490946557318,0.09881353313764829,0.09677419354839856,1
0.40880101675781966,0.11214787598761639,0.3342365179205692,0.5751748393058883,0.30039548895411694,0.09677419354839856,1
0.4227836251266788,0.1243666573822767,0.4395508936343427,0.6694612903739194,0.18972346670786333,0.09677419354839856,1
0.3618753363855919,0.13423568987925383,0.42350783575068374,0.46689691137066763,0.20158195581646865,0.09677419354839856,1
0.35584421708286607,0.14295162915440318,0.4948508217245779,0.4787584143281883,0.19762706627529714,0.08064516129032029,1
0.43914883766628865,0.1286705350716284,0.34029712164868364,0.5828674337574377,0.1581028889232199,0.08064516129032384,1
0.43536688226415843,0.1527662782475574,0.25875259313890947,0.5875335124635145,0.10671713270508276,0.08064516129032029,1
0.370143577018634,0.21152805680329573,0.18818392426413655,0.4464969365923061,0.08695504402904397,0.08064516129032384,1
0.3867231755910453,0.23658325770688926,0.16190170257036746,0.5409463569771783,0.08300324424532624,0.08064516129032384,1
0.4305801027424315,0.2205560493785491,0.15492372362276302,0.5843390518990095,0.0830032442453269,0.08064516129032384,1
0.4518897348414317,0.21754560088297453,0.15664046513859092,0.5305133415385412,0.08300324424532712,0.08064516129033095,1
0.440526634765703,0.21178064942923464,0.16561947577581576,0.7101575594891727,0.07509655492043898,0.08064516129032384,1
0.4358985650723969,0.21281749526180227,0.17450800632634023,0.6680052908332744,0.0790514444616095,0.06451612903225978,1
0.4226014242478443,0.21366864070382358,0.17245842463267952,0.48634761072507243,0.0750965549204392,0.06451612903225978,1
0.42856331760977295,0.21849584252422072,0.16369213940452426,0.4665358338922693,0.08300324424532657,0.06451612903225978,1
0.42357971764755753,0.22163306298183894,0.15798828333476822,0.5485745557427767,0.08300324424532757,0.06451612903225978,1
0.43466936895286623,0.21953217330466862,0.16557785272352732,0.4831406456409994,0.07905144446160972,0.06451612903225978,1
0.4223485888025842,0.2232977110861959,0.1638979144707442,0.518006056561505,0.07905144446160983,0.06451612903225978,1
0.434234754038353,0.22330255409090005,0.16251153040031252,0.5914961070742468,0.07905144446161005,0.06451612903225978,1
0.43348599727336024,0.21893455207565327,0.1616682134155164,0.5138657595202756,0.07905144446161017,0.06451612903225978,1
0.4354645946401047,0.22336518141057443,0.16153272122445395,0.5042600274805051,0.07905144446160939,0.08064516129032384,1
0.42611619668057865,0.22355261722421055,0.16069211054606902,0.5959816423710944,0.07905144446160983,0.08064516129032384,1
0.42954770908038575,0.2218360007263101,0.16223172000200614,0.5080442196443625,0.07509655492043832,0.08064516129032384,1
0.4427180525103108,0.21366456758120206,0.15906596812290252,0.5382237334572602,0.07905144446161017,0.08064516129032384,1
0.4471960869841477,0.20894753962033247,0.1643270741565913,0.5850206214576716,0.07905144446160972,0.08064516129031318,1
0.4446509912722155,0.2088947312883222,0.1627327921383061,0.5009389573246374,0.07905144446161017,0.08064516129031318,1
0.4500221483496909,0.20729329618040987,0.1622248193391217,0.5469141779683502,0.07905144446161017,0.08064516129032029,1
0.44477730124901194,0.20955341285819828,0.16111019422144884,0.5809442347037493,0.07905144446160972,0.08064516129031318,1
0.4422293668389432,0.21000988517231334,0.16464974473879834,0.4861655230898336,0.08300324424532712,0.06451612903224202,1
0.43453649580696163,0.2142530902964399,0.16155135011075977,0.5809502750651159,0.0830032442453269,0.06451612903224557,1
0.43753980867428155,0.2163966227040996,0.1625215830368077,0.5517461379670947,0.08300324424532657,0.06451612903224202,1
0.42807514764156485,0.2154247976488513,0.16318186183840294,0.4874809369435208,0.07905144446161017,0.06451612903224557,1
0.43546651705719397,0.216014043068759,0.1605587638638672,0.5948366738264845,0.07905144446160939,0.06451612903225978,1
0.44531536120438986,0.21526737973240906,0.1584608471028705,0.5837792931794189,0.07905144446160972,0.06451612903225978,1
0.4524379896391665,0.2079248720943227,0.15430399063139738,0.47937875597323687,0.059286266028116597,0.06451612903226334,1
0.4710619576521006,0.20348847489914462,0.1534583074269898,0.5772425656909453,0.0750965549204392,0.06451612903225978,1
0.48516507470878745,0.20058867567887673,0.14819395012002584,0.6174857023028443,0.0790514444616095,0.06451612903227044,1
0.4760080912621972,0.19960481240627587,0.14979136699946688,0.5256389280601134,0.07905144446161005,0.064516129032274,1
0.4865764906599962,0.19970543029152232,0.14818667779303696,0.4861795074512784,0.063241155569288,0.06451612903227044,1
0.481487944798587,0.19877682841843708,0.1524265301580307,0.6232771113032759,0.07509655492043898,0.064516129032274,1
0.4866646168102048,0.20039248690348366,0.15052110393000356,0.5789770502657231,0.07905144446160917,0.08064516129033095,1
0.4756028965906946,0.20675043637501594,0.1435915354204973,0.4828254189312242,0.06719295535300485,0.08064516129033095,1
0.4781040979096755,0.20796821492243894,0.1375296837867681,0.5035057203520907,0.07905144446160972,0.08064516129033805,1
0.46983751064681434,0.20775509261416159,0.14760732432140555,0.6088567157037268,0.07905144446161017,0.08064516129033095,1
0.4769717805007718,0.21045133804156846,0.14828840291118173,0.5458571203885877,0.0790514444616095,0.08064516129032029,1
0.42544230679868933,0.22179468006036823,0.1615039562769811,0.4998031347476836,0.07905144446161017,0.08064516129032384,1
0.44672935155284355,0.22028202304967204,0.15037095296018427,0.5623498144477922,0.07114475513672158,0.08064516129032029,1
0.40868753948034,0.23604797204641653,0.16691141442648633,0.5914709525514135,0.07905144446161017,0.08064516129032384,1
0.36727729506522866,0.24534144404336705,0.16451200565883983,0.49436091447097735,0.07509655492043865,0.06451612903225978,1
0.44535458971071895,0.22331619252859408,0.15556704408867533,0.5195726857197438,0.08300324424532657,0.06451612903225978,1
0.4390767223110801,0.21212600645814367,0.1607978672229191,0.6085712107807851,0.07905144446160972,0.06451612903225978,1
0.4565586932577729,0.19619100995451788,0.17744679212498465,0.5684896435389354,0.07509655492043898,0.06451612903225978,1
0.43919753395085714,0.19373851518427088,0.18454457010915182,0.4839986859527,0.07905144446160939,0.06451612903224557,1
0.44131474901700185,0.19433306496703912,0.18093957789393494,0.5226872884662753,0.07509655492043965,0.06451612903225268,1
0.4261762409018406,0.19785285240062533,0.18267835991143633,0.585572319601251,0.07509655492043865,0.06451612903224557,1
0.44216511112358314,0.1933941244109353,0.18755378751319984,0.5314188926208645,0.07114475513672192,0.06451612903225268,1
0.4633566863946422,0.19135788684427907,0.1665407982038824,0.4676221247343427,0.07509655492043854,0.06451612903226334,1
0.48921034214770037,0.18822005376215228,0.15079281135856398,0.5865764899292402,0.06324115556928767,0.06451612903225268,1
0.4989746343313282,0.17821913910076936,0.16089364181492394,0.5836466996479215,0.07905144446160983,0.06451612903225978,1
0.5068346253139602,0.17593745150644102,0.16723567579088627,0.5135983607492889,0.07905144446161017,0.06451612903225268,1
0.4848713850195211,0.17034990992810095,0.16910000352154686,0.5597178384260789,0.07905144446161017,0.06451612903226334,1
0.45700306394798196,0.17837089591969107,0.18419150825486236,0.6750917274454875,0.08300324424532746,0.06451612903227044,1
0.45777312281029703,0.15309908817207446,0.19037204653884016,0.5280411561921204,0.07905144446161005,0.06451612903226334,1
0.42347318009803536,0.15648022711786447,0.307734071706812,0.4762168513566688,0.08695504402904386,0.06451612903227044,1
0.38762037249852865,0.16099195475925426,0.1958746760435059,0.4950706328591168,0.08300324424532657,0.04838709677419217,1
0.560034681433548,0.11943865958683131,0.17487206070146527,0.5772424253853199,0.08300324424532679,0.04838709677419217,1
0.7018894980025223,0.05726097162800409,0.5796499601940592,0.5038385719673653,0.07509655492043898,0.048387096774195726,1
0.6017624407332136,0.028831782636485503,0.4013077799664225,0.6199253310542033,0.0,0.04838709677419217,1
0.42209736039458123,0.11297411838173121,0.5687619519038566,0.5536848053676983,0.04347597713579465,0.06451612903226334,1
0.47413269283062326,0.0904835396469374,0.5420254314141557,0.5825879038654315,0.05928626602811782,0.06451612903227044,1
0.46107362532985385,0.09422561024494203,0.5447416616519789,0.4607078542942291,0.05928626602811726,0.06451612903226334,1
0.5015810792524501,0.09698637372389018,0.5688594398128137,0.5014151612531074,0.06324115556928811,0.06451612903227044,1
0.5332326202284229,0.06564566623687235,0.525891939145843,0.5021784122020333,0.05138266646068279,0.064516129032274,1
0.5571419887859146,0.048718806081020194,0.5061349113016775,0.4588965568594565,0.031620577784643666,0.064516129032274,1
0.5947477298340273,0.04564518739677931,0.5201767738439215,0.691271221914245,0.019762088676039347,0.064516129032274,1
0.5882832387695891,0.042911833064358196,0.523741179441704,0.6699399073460564,0.019762088676039458,0.064516129032274,1
0.5903189033059197,0.04701654066514227,0.5246793677814618,0.3800749948909023,0.02766568824347282,0.06451612903226334,1
0.5676041664895757,0.04956847841830209,0.515148550231823,0.4781673876230675,0.03557237756836129,0.06451612903227044,1
0.5651444706301963,0.05097107679513302,0.5224428319934271,0.6036203056847306,0.039524177352077805,0.06451612903226334,1
0.5730680434176256,0.04789803785489549,0.518026160665268,0.45867397169201074,0.03952417735207814,0.06451612903227044,1
0.588945229880643,0.04810208403909616,0.525888672874721,0.5473334070962962,0.03952417735207714,0.06451612903226334,1
0.5736564992668174,0.04663354354299298,0.5158018312426769,0.6427561286705259,0.04347597713579465,0.06451612903225978,1
0.5815722670748884,0.048599883733365046,0.5196197021559092,0.590206282525349,0.039524177352077805,0.06451612903226334,1
0.5715133705727915,0.047369263972647124,0.5149395251181708,0.5400342240732223,0.04347597713579521,0.06451612903225978,1
0.5778805848444979,0.04961464159018425,0.5201900398155306,0.6221150277696883,0.023713888459755528,0.06451612903226334,1
0.5755933741332963,0.047560382044688654,0.5163958705133623,0.5093438087108437,0.05533446624439975,0.06451612903227044,1
0.5769910428016842,0.04861079329765533,0.5187812107242481,0.48052781552196316,0.047430866676965944,0.06451612903226334,1
0.5732115895334781,0.04744120134550267,0.5142784761715969,0.605507806678209,0.043475977135794985,0.06451612903227044,1
0.5756719112049528,0.04866126322194825,0.5195760611152102,0.5500600089139445,0.043475977135794874,0.06451612903227044,1
0.57343897383983,0.04740813664046328,0.5151841290647343,0.47951164904623567,0.043475977135794874,0.06451612903226334,1
0.5768482004959091,0.04869023130051214,0.5192569962229078,0.6084321679500941,0.03952417735207836,0.06451612903227044,1
0.5749491691176364,0.047374901848995954,0.5162783142781835,0.5984375975864255,0.04347597713579454,0.06451612903226334,1
0.5763461501026892,0.04873932885693033,0.5205301139257124,0.4845442479856805,0.04743086667696628,0.08064516129033095,1
0.5742527449367243,0.04727819708613029,0.517376521507716,0.5506847129494602,0.027665688243473263,0.08064516129033805,1
0.5753176848724473,0.04908829920625907,0.5203337486224178,0.6354443972016519,0.04743086667696539,0.08064516129033095,1
0.5683028095856061,0.048264704168262174,0.5157058192435018,0.528082148214764,0.04743086667696572,0.08064516129033805,1
0.5731244319919233,0.0483393356774105,0.5223309421885771,0.4875197622673664,0.0474308666769655,0.04838709677420283,1
0.5717492667777366,0.04791660607896958,0.5166485882344277,0.5947889532735418,0.0474308666769655,0.04838709677420283,1
0.5721881177313635,0.04949545773938313,0.5208212085388711,0.5906581319909319,0.043475977135794985,0.04838709677420283,1
0.5725673291255367,0.04707970737325856,0.5181183120669505,0.4905711013333632,0.04347597713579543,0.04838709677420283,1
0.572988831134407,0.049021229908733754,0.5232649248018347,0.5269934259440053,0.04347597713579454,0.04838709677420283,1
0.5755623251925885,0.04691544555832655,0.5189167832336231,0.6032607849493922,0.04347597713579521,0.04838709677420283,1
0.5716248196300118,0.04958148858274458,0.5234897223684529,0.5242583533597511,0.043475977135794985,0.04838709677420283,1
0.5919774668658457,0.042438723825982905,0.5237281950451782,0.4918929973933715,0.04347597713579521,0.04838709677420283,1
0.6061474342461821,0.04303782262475908,0.5341776535066638,0.5814432560834429,0.04743086667696572,0.06451612903227044,1
0.6003393921741758,0.04359910077973955,0.5332788753306661,0.562936718981622,0.047430866676965944,0.06451612903227044,1
0.5984208577585047,0.04533227081746383,0.5353876569258891,0.47364463297374904,0.047430866676965944,0.064516129032274,1
0.5995610585495856,0.04259733784320524,0.5347307055896948,0.5302884698853704,0.05533446624440019,0.06451612903227044,1
0.6041921900559428,0.04442749437770627,0.5404435298428362,0.5852242861881747,0.051382666460683124,0.064516129032274,1
0.5960829106978611,0.04201119662554231,0.5337185761615714,0.5086171651569744,0.051382666460683124,0.064516129032274,1
0.6166613962393939,0.040702164478233216,0.5431838405033446,0.503484104359025,0.047430866676966055,0.064516129032274,1
0.6147945940454471,0.03963085376767822,0.5449366099617596,0.6021171310467854,0.051382666460683346,0.064516129032274,1
0.6180627536680118,0.041090803141330345,0.5443133165919333,0.55455585801695,0.0474308666769655,0.06451612903227044,1
0.6164341255657012,0.04016948891193822,0.5430014510746815,0.4898182109457835,0.05138266646068268,0.06451612903227044,1
0.6209261435121765,0.040663671051897166,0.5452417502988112,0.5736706555385409,0.05138266646068301,0.064516129032274,1
0.6190873465364379,0.04063950903332908,0.5442444981234142,0.5874580860251057,0.05533446624440019,0.06451612903227044,1
0.6193673217625058,0.03992699132305422,0.545943197896823,0.4970620865724664,0.05533446624439986,0.08064516129033095,1
0.6199236441435336,0.04007913012416625,0.5466463780449775,0.5397617580875161,0.05928626602811726,0.08064516129033805,1
0.6226070027999756,0.04007269357204141,0.5493320016335863,0.5944520036287453,0.039524177352077916,0.08064516129033095,1
0.6204922693137449,0.040016528831376685,0.547515967917664,0.5095213312295264,0.05533446624440019,0.08064516129033805,1
0.6229526692176351,0.04009392375845128,0.5492545683355623,0.520508915827085,0.055334466244400415,0.06451612903225978,1
0.621006311056143,0.04003168691351355,0.5472007414292936,0.6085965196749727,0.05138266646068268,0.06451612903226334,1
0.620796373609082,0.04001806904284522,0.5491482959168708,0.5375534647368077,0.05533446624440019,0.06451612903227044,1
0.616941930396685,0.04037008528540259,0.543566413004918,0.48048843313885625,0.047430866676966055,0.06451612903226334,1
0.6062053393083379,0.04435627806029335,0.545521542764649,0.5774923299741859,0.05533446624440019,0.08064516129032029,1
0.6123785362986776,0.0425880902174125,0.5431988475618347,0.6063476533201313,0.05533446624439986,0.08064516129032029,1
0.6004112161739652,0.04655964936306961,0.5425426505104405,0.49556234179077185,0.05928626602811682,0.08064516129032029,1
0.5838602628743603,0.0495743659347318,0.5421104258597584,0.5066173289806951,0.05928626602811715,0.08064516129032029,1
0.587872128014143,0.04851373286210037,0.5442980298832955,0.6019368530600594,0.05928626602811604,0.06451612903225978,1
0.595022284787239,0.04778652621198548,0.5390838719820455,0.5792904020568882,0.06324115556928778,0.06451612903225978,1
0.6002000533666195,0.04824053273379081,0.542691592448515,0.49127204117107187,0.06324115556928767,0.06451612903227044,1
0.5871275978428689,0.04788308107065248,0.537927823680599,0.5390464675491793,0.05533446624440008,0.06451612903226334,1
0.5975814849796792,0.04824898102628239,0.5415381252156597,0.6088403102575219,0.051382666460683124,0.09677419354839145,1
0.5894186700225814,0.05398165489627377,0.5469219981552441,0.5383680242741802,0.05928626602811715,0.09677419354839856,1
0.5498114510156307,0.06271941572419948,0.5408150451884616,0.4741019983545177,0.05533446624440008,0.09677419354839145,1
0.5109684269657417,0.07045579494034493,0.5395600531429009,0.5530697771915097,0.05928626602811682,0.09677419354839856,1
0.5251968900604502,0.07175074261411285,0.5418212553459891,0.6011393546743219,0.06324115556928778,0.08064516129033095,1
0.534993424494417,0.06594066155197581,0.5422779409145886,0.520735522360377,0.063241155569288,0.08064516129032384,1
0.5597954489784154,0.06107048823798317,0.5464991562848145,0.5048460559664133,0.063241155569288,0.08064516129033095,1
0.5823150819873003,0.052237819674343655,0.5393141025722399,0.5827285744493327,0.06324115556928778,0.08064516129032384,1
0.5643537099435171,0.05322310654116852,0.5415827502821413,0.5474692281283036,0.059286266028116597,0.0967741935483808,1
0.5897324508318443,0.047145973063473734,0.5434678670150861,0.4779660492676385,0.05928626602811682,0.0967741935483879,1
0.6335673250082337,0.04171182018355146,0.5513804665531249,0.5594388846085103,0.05928626602811682,0.0967741935483808,1
0.6348981244352605,0.0375046697832106,0.5446453824954973,0.5815696498568561,0.05533446624440008,0.0967741935483879,1
0.6338886035063257,0.035611134474729356,0.5467401881550944,0.4896897831141699,0.06324115556928767,0.0967741935483879,1
0.6376211339088707,0.03339704903977925,0.5459667421001418,0.5128216830775982,0.04347597713579454,0.0967741935483879,1
0.6493536830930564,0.03240965678719587,0.5454916430709635,0.6104403580579766,0.063241155569288,0.09677419354839145,1
0.6330310506150021,0.03430534524265849,0.5469070747498362,0.5406923199984538,0.059286266028116597,0.0967741935483879,1
0.6260620152542575,0.03874011339075162,0.5476109050999316,0.4838795851299246,0.059286266028116597,0.08064516129033095,1
0.6369411348318226,0.03559270286608557,0.5460748872034255,0.5876083868432692,0.05928626602811726,0.08064516129033805,1
0.6277940720999852,0.03869929724649346,0.5433298131609112,0.5946847138528415,0.05533446624439986,0.08064516129033095,1
0.6280913288356883,0.03920647451743342,0.5453928714159427,0.4899863757964729,0.06719295535300507,0.08064516129033805,1
0.6164876047809973,0.042171997994842,0.5474973933688941,0.5464033511721973,0.05928626602811626,0.08064516129032029,1
0.5965556614121716,0.04377661330931343,0.5385586583792136,0.6112736081771617,0.06719295535300485,0.08064516129032384,1
0.6146562032969569,0.0408784320016336,0.5419961287644393,0.5146949286909651,0.05928626602811693,0.08064516129033095,1
0.6176131252415529,0.03967408357847296,0.538020085369489,0.501373716638092,0.06324115556928844,0.08064516129032384,1
0.613509941799951,0.04039295380175045,0.5409194514491322,0.6108173753584344,0.05533446624439986,0.08064516129033805,1
0.6113176884189427,0.03971785513536369,0.5399805921208924,0.5632455917900081,0.055334466244400415,0.0806451612903416,1
0.6167081091873249,0.04039874110291258,0.5411955273727179,0.4920513596136468,0.05928626602811693,0.08064516129033805,1
0.6179383198163663,0.03969369135333384,0.5393574802187041,0.5724689593679422,0.05928626602811726,0.0806451612903416,1
0.6148081008174857,0.04044094575872481,0.5414931269292782,0.5851758613370392,0.063241155569288,0.08064516129032384,1
0.6148629555743652,0.0396202834864981,0.5400980107747347,0.48662460656036766,0.05928626602811682,0.08064516129032384,1
0.616272556559065,0.040587538839474524,0.540692566537986,0.5520125881340354,0.05928626602811682,0.08064516129032384,1
0.61563256862079,0.03922587319579873,0.542029312411672,0.6103186617968914,0.05928626602811715,0.08064516129032384,1
0.6132831531135148,0.044250552495903595,0.539588579254603,0.5062935899999608,0.059286266028116597,0.09677419354839145,1
0.5385214062162031,0.05911478925254343,0.540045254472538,0.4903373421469355,0.05533446624440008,0.09677419354839856,1
0.5610116646466501,0.057628859049042025,0.5416314227986403,0.6101448845829662,0.05533446624439986,0.09677419354839145,1
0.559235714896209,0.05550827538700337,0.5380104258467239,0.5807080500491577,0.051382666460683346,0.09677419354839856,1
0.5626865051352195,0.05870757684826006,0.5424805301763533,0.4805153781400928,0.05533446624439953,0.1129032258064484,1
0.5582880293521725,0.05938765061941148,0.5426186669107198,0.5479795441451506,0.05928626602811626,0.1129032258064484,1
0.5614241131736761,0.05697174635432056,0.5430005604798336,0.6180383386921315,0.055334466244400415,0.1129032258064484,1
0.5672006547107942,0.05619622483837128,0.5407757371632637,0.5260247347118282,0.05928626602811682,0.1129032258064484,1
0.5588093109756264,0.05607749450366972,0.5409336776674469,0.47852045065656285,0.06324115556928767,0.09677419354839856,1
0.565041760494263,0.05608460480630345,0.5399011698820306,0.5814707804546632,0.06324115556928811,0.09677419354839856,1
0.5541364668166024,0.059183448950087036,0.5417113534977245,0.5985378162916846,0.055334466244400415,0.09677419354839856,1
0.5398127941769164,0.0643870630470354,0.5406384116346608,0.501091841207359,0.05928626602811682,0.09677419354839856,1
0.5488517903407363,0.0637653738168345,0.5425625429110635,0.5067207088582217,0.05533446624439953,0.1129032258064342,1
0.552543195152218,0.06433680137629583,0.5402818352152173,0.6024375700402972,0.05533446624439975,0.1129032258064342,1
0.5522482389334602,0.0630160905911859,0.5420965354936317,0.5631028825030805,0.05928626602811693,0.1129032258064413,1
0.5540496055591395,0.05853719077091862,0.5407271168762338,0.4921130995031008,0.05928626602811726,0.1129032258064342,1
0.558590838386827,0.06034872415988046,0.5432830014964932,0.5473502816848251,0.05533446624440019,0.09677419354839145,1
0.5503032580834042,0.06008299562337499,0.5398228388704109,0.5898549513824717,0.04347597713579554,0.09677419354839856,1
0.5601541830083056,0.058829846194866975,0.542072079332055,0.503641201737803,0.05533446624439986,0.09677419354839145,1
0.5540917044820799,0.05871819566817299,0.5400845351149268,0.5012995932824369,0.059286266028117485,0.09677419354839856,1
0.5541837740106134,0.06107585046767117,0.5429392856617621,0.5940772447080138,0.06324115556928778,0.11290322580645906,1
0.5557007155073634,0.060917653644247116,0.5402335958264283,0.557177142260197,0.06324115556928767,0.1129032258064484,1
0.5565780767375748,0.061992218719083114,0.546417231515935,0.4796581926873611,0.05928626602811682,0.11290322580645196,1
0.553889593838556,0.06219651263116249,0.5405413252710529,0.5466862255390066,0.05928626602811726,0.1129032258064484,1
0.5529885965177931,0.06262398641395767,0.5453877303097587,0.5982993391543854,0.059286266028116597,0.11290322580645196,1
0.5513178877894531,0.05996536677624725,0.541874902837838,0.5124638237955552,0.05533446624440008,0.11290322580645906,1
0.5594537665085415,0.056529877755951585,0.5366741221321466,0.49811235452858094,0.063241155569288,0.11290322580645196,1
0.5634828472998308,0.055522163082367626,0.5371158060490707,0.5956624856156288,0.063241155569288,0.11290322580645906,1
0.568488119534701,0.05671436863642393,0.5378039850790493,0.5642683926839738,0.05533446624439975,0.1129032258064484,1
0.5760393637048973,0.05132029971924773,0.5368642026530202,0.48399311789505184,0.06324115556928778,0.1129032258064484,1
0.5810673950181209,0.04780028840600903,0.5396153387643845,0.5566329441787802,0.05928626602811682,0.1129032258064484,1
0.5828400103003759,0.04805310380116973,0.5403328536579775,0.5937361099849582,0.063241155569288,0.1129032258064413,1
0.5871231851682857,0.048447156003752656,0.5381666366866594,0.5044976409984832,0.05533446624439986,0.11290322580646617,1
0.5782639486227965,0.0491575824686033,0.538604780984393,0.5232195279923957,0.06324115556928767,0.11290322580646617,1
0.5787787444773581,0.049156098920915714,0.5367950089971156,0.5987419930012209,0.02371388845975575,0.11290322580646617,1
0.5786844253444705,0.05037789177711238,0.5369394241119116,0.5289224226459042,0.05928626602811726,0.11290322580646617,1
0.5737200072811643,0.0521026696721098,0.5393657468370735,0.5022256662218376,0.05533446624439953,0.11290322580646617,1
0.574785254591923,0.05169297745894086,0.5382830877528435,0.6085670798862283,0.05533446624439986,0.11290322580645906,1
0.57780284831932,0.052331863579853755,0.5402436178855139,0.5469596962512074,0.05928626602811715,0.11290322580646617,1
0.5747609979290477,0.05370046606869294,0.5396305062255282,0.4929129783946689,0.05533446624439986,0.11290322580645906,1
0.5760584383392691,0.050038005272479036,0.5388003975842757,0.5914159272844385,0.05928626602811682,0.1129032258064484,1
0.5773646970049713,0.05187932042227805,0.536611931919061,0.5778673323296292,0.05533446624439953,0.11290322580645196,1
0.5738641508529077,0.05457014326645582,0.5421322110220437,0.48499682959832985,0.06719295535300485,0.1129032258064484,1
0.5755312746700465,0.05304545857653259,0.5385175363389153,0.5384088118041053,0.05928626602811715,0.11290322580645196,1
0.5715508666565132,0.05294697317389102,0.5382736933089957,0.6233531542291535,0.05138266646068268,0.12903225806451246,1
0.5754302687250484,0.05319860087932815,0.5383415586090288,0.5383718066979803,0.05138266646068268,0.12903225806451246,1
0.5718164727343946,0.05134608449027417,0.53560959344036,0.48573091556169856,0.05928626602811693,0.12903225806451957,1
0.5745371081549453,0.04916973196748481,0.5334051296086617,0.5861239742370581,0.05928626602811715,0.12903225806451246,1
0.5706377907404399,0.05380768579129136,0.5352564198469493,0.5885564880749075,0.05533446624439953,0.1532258064516121,1
0.5731506117091298,0.04855406258884165,0.5328629541562983,0.4966965693861606,0.063241155569288,0.1532258064516121,1
0.5824916916634143,0.051770080560218035,0.5367560227107535,0.5441790552751485,0.05928626602811682,0.1532258064516121,1
0.5741729425988882,0.0507206810378803,0.534002159965893,0.5945174307325113,0.05928626602811682,0.1532258064516121,1
0.5817183141683636,0.047812629236449966,0.5325219996378179,0.507735702542777,0.05928626602811682,0.12903225806451957,1
0.5715778283810493,0.0514597351556661,0.5334190627165808,0.524053525123944,0.06719295535300474,0.12903225806451246,1
0.5754814372693108,0.04886943866244636,0.5311990140528351,0.5981975466554953,0.05928626602811726,0.12903225806451957,1
0.5806481902790611,0.04749315593203979,0.528099762281939,0.5315418987767664,0.055334466244400415,0.12903225806451246,1
0.577346053078257,0.05062992789894705,0.5315006932304636,0.5000509340847945,0.051382666460683124,0.12903225806451957,1
0.5813403239057617,0.048887615289241126,0.5278393631651563,0.5828827867844062,0.05533446624439986,0.12903225806452667,1
0.5832758543230483,0.04778383551065124,0.529076680824413,0.5490731112797721,0.05928626602811693,0.12903225806451957,1
0.5725814129653274,0.048456813195196125,0.5293697388080474,0.47342980554400926,0.05928626602811693,0.12903225806452667,1
0.579754521927677,0.04893549668824826,0.5311508595821611,0.5733077417698322,0.059286266028116597,0.12903225806451957,1
0.5803391969035137,0.04768771161873653,0.5274474452845865,0.57381531985908,0.05928626602811682,0.12903225806451957,1
0.5814198989504988,0.04832458595673317,0.5291412239904653,0.47886340032090413,0.05928626602811682,0.12903225806451957,1
0.5812850158008545,0.04778397226061315,0.5309079328783428,0.5605942760634461,0.055334466244400415,0.12903225806451957,1
0.5856324101902449,0.048287856184540845,0.53118572249047,0.5995006935225946,0.06324115556928778,0.12903225806451957,1
0.5793247875284409,0.047803146919378925,0.5283504140926916,0.48733125667583893,0.06719295535300507,0.12903225806452667,1
0.5800553146705619,0.048277005040689824,0.5312458596201846,0.5356269843297282,0.05928626602811693,0.12903225806451957,1
0.5756037018237108,0.0477987270701824,0.5314706769248847,0.6160501515077001,0.05928626602811682,0.12903225806452667,1
0.5786061430983911,0.0484279707084026,0.5317000104947942,0.5191175553097165,0.05533446624439953,0.12903225806451957,1
0.5753273374397307,0.05022076396194208,0.5310067163099186,0.5131056246637324,0.05533446624440019,0.12903225806451957,1
0.5768462291857033,0.04874843695751896,0.5328541326546737,0.6117342564450041,0.05928626602811682,0.12903225806452667,1
0.5810178688089258,0.04814363141537753,0.529560504495773,0.5504598327341963,0.05928626602811715,0.12903225806451957,1
0.576548822089636,0.04917213045070401,0.5303098189591438,0.4957019984537211,0.06324115556928711,0.12903225806451246,1
0.5754215135753031,0.047339235640293575,0.5282670794421178,0.5865035040282487,0.04347597713579521,0.12903225806451957,1
0.577042191391808,0.05002158292139691,0.5324143198018967,0.5713249554892739,0.06324115556928767,0.12903225806451246,1
0.5769242819403133,0.04795505781520076,0.5316996192423044,0.5025778201646206,0.0671929553530054,0.12903225806451957,1
0.5776335981542821,0.05240554249754281,0.5359514495699246,0.5697047260828647,0.05928626602811604,0.1370967741935445,1
0.5724317751375986,0.05086531201098249,0.5324889371808486,0.5715902355807491,0.06324115556928778,0.1370967741935445,1
0.5733903896206952,0.050958735726626625,0.5319352863102146,0.4889622029920676,0.05928626602811682,0.1370967741935516,1
0.573132833964485,0.05150047984133227,0.5332223692888112,0.5491675253491979,0.059286266028117485,0.1370967741935445,1
0.5738507569399413,0.04968029129800955,0.5333839435476412,0.5917272552427612,0.04743086667696572,0.12903225806451957,1
0.5741813955614403,0.05292158032401134,0.5326663994188892,0.5124257769722556,0.063241155569288,0.12903225806452667,1
0.5732095702359374,0.051176272786316146,0.5319745464599451,0.5259959305750098,0.05928626602811715,0.12903225806451957,1
0.5733208512484228,0.05011939364196555,0.5314087412845457,0.5936845821032976,0.063241155569288,0.12903225806452667,1
0.5714970907300911,0.052288926795290847,0.5307273626875028,0.5435805052716062,0.05928626602811682,0.12903225806451957,1
0.5739264564574874,0.0515005903952645,0.5317796520143226,0.4991280248194941,0.05928626602811715,0.12903225806451957,1
0.5739715830313901,0.05116712664321582,0.5321855725250777,0.5702816436584912,0.05928626602811682,0.12903225806452667,1
0.5764553491284811,0.05036267976186154,0.5333499033412213,0.5670270415792271,0.04347597713579521,0.12903225806451957,1
0.5771256598274958,0.048703109250515964,0.5331629448888588,0.5035751758246388,0.06324115556928833,0.1370967741935516,1
0.5716053990846597,0.04924709679652384,0.5322429682036292,0.5350189337965029,0.05928626602811682,0.13709677419356225,1
0.5761723463267228,0.0503704436960597,0.532988587216775,0.5787268381341693,0.05928626602811693,0.1370967741935516,1
0.5715636199487643,0.04875613095187298,0.5332908140324617,0.5180307012392082,0.05533446624439986,0.13709677419355515,1
0.5750318615819235,0.048371679280469926,0.532713098024442,0.5178924402088313,0.059286266028116597,0.12903225806453023,1
0.5726227147804048,0.05153894451879354,0.532026863449015,0.5736102688102772,0.05928626602811626,0.12903225806453023,1
0.57318635945962,0.050051302206706894,0.5290951032552452,0.5491232911223316,0.05533446624439953,0.12903225806453023,1
0.5744067286641603,0.050324617351102385,0.5306098581458466,0.490885635581886,0.05928626602811715,0.12903225806453023,1
0.5715266422432489,0.05330046217859502,0.5292663428085985,0.54565520447385,0.05533446624439953,0.1532258064516121,1
0.5756202501791137,0.047068850279811336,0.5262147688057298,0.5840642591971144,0.05928626602811715,0.15322580645161565,1
0.5724030684434005,0.050268011204987806,0.5312418675417478,0.5110144121499585,0.05928626602811682,0.1532258064516121,1
0.5692834715048392,0.05057926523305695,0.5288695244997369,0.5042401462722732,0.05533446624440019,0.15322580645161565,1
0.5778544930563816,0.048919947881777226,0.5278747836506936,0.5876416803371167,0.05533446624439975,0.15322580645162986,1
0.5721516597271146,0.050651104855631235,0.530199229987059,0.550704763933057,0.05928626602811682,0.15322580645162986,1
0.5739210625275493,0.04835642768641951,0.5279072947105383,0.4966723068620636,0.055334466244400415,0.15322580645162986,1
0.573139966263806,0.048102316857379535,0.5292967941772545,0.5742062112703779,0.03952417735207758,0.15322580645162986,1
0.5743431217685904,0.04783397539843648,0.526699922068391,0.5767200628261774,0.06324115556928778,0.1532258064516121,1
0.5800166396252782,0.049111684656601096,0.5285915488181145,0.4899569636936505,0.05533446624440008,0.15322580645161565,1
0.5634063199047058,0.047531030698427845,0.4878333135744581,0.5345205654671157,0.05928626602811682,0.1532258064516121,1
0.5653474241104575,0.04657291820942422,0.48471005718803123,0.5954163207004256,0.05928626602811726,0.15322580645161565,1
0.5655932211227541,0.046814675250630156,0.48861066653539553,0.507317606689613,0.05533446624439953,0.1532258064516121,1
0.5610617445638877,0.047373456619119736,0.48822975329027096,0.5053679643017749,0.05928626602811693,0.1532258064516121,1
0.5653815482853763,0.04692589799373609,0.4918707567239468,0.612425127334408,0.05533446624439986,0.15322580645161565,1
0.5696268319212892,0.047290324795032646,0.49675065366381577,0.5863363809103055,0.055334466244400415,0.1532258064516121,1
0.5657727415598677,0.047078200344783994,0.49442009356512057,0.48589615107810996,0.059286266028116597,0.1370967741935445,1
0.5688975899199985,0.04647102283679727,0.4932789920977152,0.5738313451701968,0.05533446624439986,0.1370967741935445,1
0.5763065467568261,0.044916821731779744,0.4950577678640262,0.6156368370155267,0.047430866676965944,0.1370967741935445,1
0.572050795676604,0.04508335901928384,0.4951558145613488,0.49862543221583155,0.05533446624440019,0.1370967741935445,1
0.5732664744159894,0.043556932560527395,0.49290681209329595,0.5184926006764776,0.05928626602811682,0.1774193548387082,1
0.5726341122647367,0.044342871672317374,0.49930094508926637,0.6079758174454444,0.05928626602811682,0.1774193548387082,1
0.581724149172342,0.040571440359345345,0.5024401807032303,0.5364937004754825,0.063241155569288,0.1774193548387082,1
0.579374170795927,0.044160113571268256,0.503038604093444,0.5063547890546161,0.05928626602811682,0.1774193548387082,1
0.5791237491302383,0.04341005842166534,0.5020747383972272,0.6055630327279273,0.05928626602811715,0.1532258064516121,1
0.5807629631340679,0.04300538493021089,0.5010089731313143,0.555658932381928,0.06324115556928867,0.15322580645161565,1
0.5737543374130846,0.04339823284175215,0.5022363598888258,0.47948668952254603,0.055334466244400415,0.1532258064516121,1
0.5844323457429121,0.04183059536907485,0.5031174686806169,0.5733021132256718,0.05928626602811682,0.15322580645161565,1
0.5724463963389184,0.04566793225196675,0.5018749921016881,0.6091181313826549,0.051382666460682236,0.15322580645162276,1
0.5636737564187058,0.04791688710479952,0.5022122402621689,0.5002525599263343,0.05928626602811682,0.15322580645162276,1
0.5653147177228122,0.04822337083230677,0.5022644929319954,0.5155865874111051,0.05533446624440008,0.15322580645162986,1
0.5715194245070394,0.04785776092893318,0.5026602672116356,0.6114363116710633,0.05928626602811726,0.15322580645162276,1
0.5704426732002383,0.04820455133867202,0.5037607314273225,0.5463108139553833,0.05533446624439975,0.1532258064516121,1
0.566809831232783,0.04793460584182718,0.5031973615434729,0.4855282500840975,0.05533446624439986,0.1532258064516121,1
0.5718928224536386,0.04795558042573039,0.5032281614866196,0.5770474458320781,0.059286266028116374,0.1532258064516121,1
0.5693067632451125,0.04699510088663178,0.5034112633755562,0.5774659248826959,0.05533446624440019,0.1532258064516121,1
0.5712530394621058,0.047975180775388426,0.5033480995646599,0.49730804048930516,0.05928626602811682,0.153225806451605,1
0.5717988213228808,0.046867410672539134,0.5043158359568399,0.5508758960878771,0.05533446624439986,0.153225806451605,1
0.5745169024645419,0.04886751660411465,0.5038173579322096,0.5897720000582757,0.05928626602811682,0.1532258064516121,1
0.5729251751071682,0.046858880204005526,0.5022723291723591,0.504279293297241,0.04347597713579454,0.153225806451605,1
0.573191530892416,0.04797524235919515,0.5030878922303874,0.5027705330815194,0.05928626602811626,0.15322580645161565,1
0.5721411084407784,0.04750175743266277,0.5008468180426286,0.6031618644948253,0.05928626602811726,0.15322580645162276,1
0.5718808596191782,0.047538352903065795,0.5024440964434141,0.5478073734410532,0.05533446624439986,0.15322580645161565,1
0.5687164683338817,0.047444324806547256,0.503965514052494,0.48903755616524863,0.055334466244400415,0.15322580645162276,1
0.5739965483442765,0.04635656727056159,0.5007790119298121,0.573112251974409,0.05533446624439953,0.1774193548387153,1
0.5649595471184248,0.04827873177976982,0.5016306693132379,0.5835252748270242,0.06719295535300474,0.1774193548387153,1
0.5724067377840367,0.04785267210604088,0.5016214449092329,0.49337814591152096,0.05533446624439986,0.17741935483871885,1
0.5727226512148158,0.046697722915876205,0.5017130046918188,0.5279636364552692,0.059286266028117596,0.1774193548387153,1
0.5723788922117365,0.046381366170592686,0.5013128966003165,0.5939164474951436,0.05138266646068279,0.1532258064516121,1
0.5742389361777098,0.04707426897416217,0.5037422634561861,0.5238346116428867,0.055334466244400526,0.1532258064516121,1
0.5687600388571643,0.04822767100611064,0.5082733830614228,0.5063134695668182,0.05533446624439986,0.1532258064516121,1
0.5702712324053216,0.04786175060243003,0.5030979867673641,0.5916461967837834,0.055334466244400415,0.1532258064516121,1
0.5636590424661081,0.04824789657863926,0.5064985774641112,0.5392061963981591,0.05533446624439953,0.17741935483870463,1
0.5696903971888414,0.04777118581487966,0.5045823865530568,0.493536829418242,0.05533446624439986,0.17741935483870463,1
0.5685475120057245,0.04859484714698831,0.5032455328728224,0.5986181590070183,0.05928626602811726,0.1774193548387082,1
0.5673509874626126,0.048755033066659126,0.5014221521688006,0.5693750137701141,0.03952417735207814,0.17741935483870463,1
0.5725433508560496,0.04787044947550617,0.5042476123022086,0.47189754905626696,0.06324115556928778,0.1774193548387082,1
0.5651719259857704,0.04820048779288516,0.5026351953227598,0.5493233572908947,0.055334466244400415,0.1774193548387082,1
0.5709497979753797,0.047203904835306065,0.5025013195977318,0.609539362200083,0.059286266028116597,0.1774193548387082,1
0.5673972362236396,0.04765785998072569,0.5014126121452217,0.5099970938892332,0.055334466244400415,0.1774193548387082,1
0.5724789543213327,0.04827192773857569,0.5019133034944998,0.5168416495656724,0.05533446624439953,0.17741935483869753,1
