wrist_ACC_1,wrist_ACC_2,wrist_ACC_3,wrist_BVP_1,wrist_EDA_1,wrist_TEMP_1,label
0.3189163001272187,0.6743706841264807,0.7202616257668,0.4811300261197848,0.990314197252868,0.8648648648648614,1
0.3235373706524564,0.676212359691317,0.717233900657083,0.5245925197551079,0.991088916099282,0.8581081081080946,1
0.3162373779324638,0.6744174322482621,0.7208584412759067,0.48418455200066807,0.9910889160992813,0.8581081081080946,1
0.32452114534369175,0.676206149653122,0.7176279403067907,0.44651401993113543,0.9895391755452938,0.858108108108091,1
0.3178599570288732,0.6743616397654756,0.7205008364226901,0.5032637194507351,0.9879897378524658,0.8581081081080963,1
0.3230627128467629,0.6764167666561091,0.7183739145061677,0.507791034235594,0.9899268378296602,0.8648648648648489,1
0.3122538034833566,0.6731339581916771,0.7219012831265821,0.4544069209284595,0.9887644566988796,0.8648648648648614,1
0.3188871773033431,0.6695386268253487,0.7175028422563838,0.4929271455202074,0.9876020755680999,0.8648648648648543,1
0.31341604232478915,0.6716559277626919,0.7206822644915247,0.5091372821138836,0.9883767944145123,0.8648648648648471,1
0.32228949326018475,0.6729422631660494,0.7199771086586162,0.4442051457407623,0.9868270538605255,0.8581081081080839,1
0.3184296659005484,0.6743035111666915,0.7243590967536446,0.49018137383481863,0.9891518161220871,0.858108108108091,1
0.32232530614523863,0.6756831699802016,0.720490546673554,0.5260796424476651,0.9879897378524662,0.858108108108107,1
0.31869869287017993,0.6749734120512682,0.7234118668476718,0.45800584710951986,0.9879897378524647,0.8581081081080768,1
0.325385302089129,0.6756254740583476,0.7229918370420488,0.4554589092510004,0.9876020755681008,0.8581081081081177,1
0.32109857894399024,0.6750053278650603,0.7249761990378798,0.5362548627115402,0.9872147161448916,0.8581081081080875,1
0.32534943670724387,0.6755938804123234,0.7224362123345544,0.5173316964175548,0.9848899538833309,0.8581081081080946,1
0.32110921523757135,0.6750399307402167,0.7260559659667055,0.4453054615540916,0.9848899538833318,0.8581081081081017,1
0.32534885635656696,0.6755559914386142,0.7241139435686444,0.47016637419088075,0.986052335014111,0.8513513513513224,1
0.32110531725230157,0.6750809001446658,0.7243864031092454,0.5441573053303224,0.9848899538833313,0.8513513513513438,1
0.3253556300536374,0.6755121442140419,0.7220592609810325,0.49532536125528187,0.9872147161448928,0.8513513513513438,1
0.3210959371686451,0.6751275234680361,0.7264922861385418,0.43860828362597437,0.9837278756137098,0.8513513513513455,1
0.32536789043121206,0.6754627276027536,0.7236235433366028,0.49861013942806587,0.9852776161676975,0.8581081081080999,1
0.3210802122395181,0.6751798789872746,0.7262854381515911,0.5390528184295392,0.9848899538833304,0.858108108108091,1
0.3253879422591881,0.6754071345519121,0.7237358855326697,0.4557995854115592,0.9845025944601251,0.8581081081080999,1
0.3210546184866589,0.6752392207656643,0.7262089853052763,0.48205652759862044,0.984502594460124,0.8581081081081017,1
0.32542082547922824,0.6753431853572159,0.7237932051558857,0.5406314315919424,0.9848899538833313,0.864864864864856,1
0.3210118219867558,0.6753093043213564,0.7261657989178726,0.4646535950468961,0.9825654944829303,0.8648648648648614,1
0.32547766022758473,0.6752638959477952,0.7238197002903028,0.4524788428305111,0.9748167917129915,0.864864864864856,1
0.3209346265841233,0.6754055311224808,0.7261763429780327,0.5441045320521549,0.9798533727981624,0.8648648648648614,1
0.32557221021132515,0.6751178286880717,0.723594170075367,0.4827914088612595,0.9786909916673814,0.8581081081080946,1
0.31790518132601175,0.6726262406441219,0.7235724626393446,0.4335188382699131,0.9802407322213678,0.8581081081080946,1
0.3182833368609457,0.6734164497267947,0.7162264510792931,0.5159696214494719,0.9798533727981624,0.8581081081081017,1
0.3180989281980453,0.6741532857858522,0.7213554403697809,0.5377296446341029,0.9802407322213664,0.8581081081080839,1
0.3235487548390554,0.6749588060834099,0.7197735998361392,0.4527214900912829,0.980628394505735,0.8581081081080999,1
0.3183524676166954,0.6756036591331462,0.7238645126238261,0.4630721117981322,0.979466013374954,0.8581081081080839,1
0.3242090982169112,0.6749673464048653,0.7214133523844423,0.5361449021274025,0.9802407322213695,0.8581081081081017,1
0.3185142183484661,0.6757311563628029,0.7201071827089879,0.4996490765515951,0.9775286105366001,0.858108108108091,1
0.3225691391933746,0.6744209325874027,0.7178335043491524,0.44928408925357893,0.9779162728209676,0.8648648648648471,1
0.3161294551067577,0.673808410241451,0.7196346224837474,0.5191816451596396,0.9783036322441727,0.8648648648648418,1
0.31593973727303887,0.6673807311256417,0.7179429821797138,0.5087402859637359,0.9794660133749544,0.864864864864856,1
0.3161711942317397,0.6710290308526266,0.7197550431531444,0.4399729577400896,0.9790786539517482,0.864864864864856,1
0.320521681525368,0.6688575565695298,0.7188500783043086,0.49195754203367753,0.9794660133749542,0.8513513513513384,1
0.3172749403092565,0.6735362828595773,0.7194444334191048,0.5346505452685714,0.9817904727753555,0.8513513513513349,1
0.31954889149145377,0.6688445819906177,0.7205366779040614,0.4497105028064836,0.9790786539517471,0.8513513513513384,1
0.3182850260065113,0.6730101173157494,0.7219729716515917,0.4683764791638681,0.9806283945057359,0.8513513513513438,1
0.32173311231925,0.673541485068827,0.7207972539082264,0.5320708673524022,0.9802407322213695,0.8648648648648631,1
0.3170877579991165,0.6769609573408311,0.7229260732461269,0.494731341577865,0.9790786539517482,0.8648648648648489,1
0.32046219060594794,0.6723686512009839,0.7197091838709571,0.4413524256819434,0.9790786539517491,0.8648648648648596,1
0.3205108876543548,0.6776374756917631,0.7199608310372989,0.4937822978103019,0.9779162728209665,0.8648648648648543,1
0.3227028572035977,0.6724201042786653,0.7207584574453165,0.5310434457827123,0.9786909916673807,0.8581081081080963,1
0.31960187674269064,0.6790111338849565,0.7200595836103614,0.4940944500240023,0.9779162728209676,0.858108108108107,1
0.3269778120564469,0.670309089361815,0.7215667351389801,0.4505818617930878,0.9771412511133941,0.8581081081080963,1
0.31755696571886943,0.6826569301229575,0.7215053730048315,0.5037291352111095,0.9755918134205646,0.8581081081080892,1
0.3312379038682173,0.6624909776198167,0.7223952465357654,0.5142827766440135,0.9759788699826137,0.864864864864856,1
0.26845950409213815,0.7226447703174692,0.7312143687984393,0.4492740878571844,0.9748167917129926,0.8648648648648471,1
0.18800734801839414,0.5922584158589779,0.6994349929165717,0.491302756892293,0.9759788699826133,0.8648648648648471,1
0.34873444548238025,0.3030968316750867,0.5637831110296849,0.518029196537042,0.9779162728209672,0.8648648648648471,1
0.4398360880380588,0.28228097936404506,0.7297721708411969,0.4591285686623112,0.9612564861503088,0.8581081081080768,1
0.3519322234834504,0.30921761244909307,0.7792878001172479,0.4367269719395481,0.9779162728209672,0.858108108108091,1
0.3043827411093827,0.3272055975372502,0.7153645409101377,0.5726804864371458,0.9786909916673809,0.8581081081080999,1
0.2894603768461268,0.3301200864380538,0.7071364172876217,0.6305332209907653,0.9953507783380384,0.8581081081080875,1
0.2744402359853326,0.3318880960630185,0.669895999056801,0.5160314659390103,1.0,0.864864864864856,1
0.27176603388546217,0.32645612453295364,0.6775899489292355,0.4920175823862119,0.9949634189148311,0.8648648648648596,1
0.27768359570665757,0.33832369895796127,0.668762223698256,0.32538478965500345,0.9872147161448932,0.864864864864856,1
0.26502385271577544,0.3318200881505887,0.6677897756655328,0.48357267435084433,0.9848899538833318,0.8648648648648596,1
0.2548163138407099,0.32606113400834763,0.6358241973522797,0.5401758122912665,0.9767538916901872,0.8648648648648471,1
0.2539601339085059,0.32942788178678495,0.6419505238521446,0.5077094489230998,0.9748167917129908,0.8648648648648525,1
0.25693314821058455,0.3277107316386718,0.6328312096784935,0.3071970217172174,0.9732670511590047,0.864864864864856,1
0.2517039180311166,0.3285986143680394,0.6425297657340037,0.35361259528129485,0.9709422888974422,0.864864864864856,1
0.25743403637250317,0.3309373818801684,0.6337586027027493,0.5340257228444357,0.9690051889202489,0.8716216216216193,1
0.25374563846008646,0.329253530914628,0.6414714041019285,0.5470001610093219,0.9659057078122726,0.8716216216216051,1
0.25742891582159677,0.3320798059215089,0.6335005344270237,0.43860883030464176,0.9659057078122728,0.8716216216215997,1
0.2459226398234372,0.32951030789355085,0.636776572527461,0.5094129533568023,0.9612564861503101,0.8716216216216068,1
0.2610669101947726,0.3361505290790523,0.6378705338236754,0.5723374692011598,0.9616438455735157,0.8648648648648418,1
0.2478504261900779,0.33810666582236293,0.6442525261694196,0.4749091569892706,0.9647433266814931,0.864864864864856,1
0.2545201853699417,0.33804613126914096,0.6361055845671986,0.45861458581123365,0.9659057078122735,0.8648648648648489,1
0.2514711565544172,0.33749116091627274,0.6483932473759415,0.5749996563952936,0.9628062267042976,0.864864864864856,1
0.25899742709771556,0.33512077981079574,0.6402088142104213,0.524813502151386,0.966293067235481,0.864864864864856,1
0.2519056875894239,0.3365489931988891,0.6491632965049361,0.43042408278991523,0.9662930672354799,0.86486486486484,1
0.26039707765815756,0.3350908823302118,0.6398309727815635,0.4679427173895815,0.9655183483890679,0.864864864864856,1
0.2526418363854619,0.3366729788108187,0.6485588408376826,0.5886328651362136,0.9643559672582862,0.8648648648648543,1
0.26002430167707236,0.3349113720319137,0.6401452650709485,0.47623741714671003,0.9608691267271035,0.8716216216216068,1
0.25388350958323436,0.3368999620327385,0.6494074782126902,0.4833940769581046,0.964743326681492,0.8716216216216051,1
0.2601108633233302,0.33463738762470263,0.6392047572710149,0.5262772970520189,0.9608691267271023,0.8716216216216015,1
0.2535563133387785,0.3372202911874612,0.6494691216397288,0.4649276415901158,0.9620312049967257,0.8716216216216175,1
0.2601949395271642,0.33430305700263774,0.639752476704152,0.4581105260572786,0.9577696456191289,0.8648648648648489,1
0.24924981028425408,0.3388044638138267,0.6494363038737386,0.5571913429228099,0.9608691267271039,0.8648648648648614,1
0.2611018427624644,0.3343913893184423,0.6391970802553704,0.4644532754646749,0.9593193861731162,0.8648648648648454,1
0.24890187640140404,0.33873754162498726,0.6506077433036275,0.4434778490962704,0.9589320267499093,0.8648648648648543,1
0.26418267674469,0.33243665051963933,0.6374313434720408,0.530100628827314,0.9585443644655425,0.8648648648648543,1
0.24298974535178608,0.34339688459786794,0.6517289278619465,0.5368564072411496,0.9554448833575675,0.8648648648648614,1
0.270774857658055,0.33511640716669344,0.6355982904313994,0.43678892357602905,0.9554448833575675,0.86486486486484,1
0.20643294814810098,0.3372134860602666,0.6739902390343667,0.4746102321347092,0.9507956616956044,0.864864864864856,1
0.2930445065399071,0.1808387881036933,0.5756025064307161,0.529709563467025,0.9562199050651401,0.8581081081080946,1
0.38216296674360806,0.28646200108937014,0.6085636599812175,0.4855493768884245,0.950408302272397,0.8581081081080821,1
0.4960865285052787,0.6106257743241514,0.8583598310793693,0.43458000578374084,0.9321987750477554,0.8581081081081017,1
0.9716117991335197,0.6182892313581757,1.0,0.51997486412057,0.9554448833575679,0.8581081081081017,1
0.653653801667402,0.6499520973750056,0.9182114070354095,0.5377485090230221,0.9453717211872275,0.864864864864856,1
0.46147071914284515,0.26248601993188114,0.589936053556668,0.40760944441567215,0.9484712022952038,0.8648648648648525,1
0.37549224320221686,0.11540236599376502,0.7176858735341929,0.5305291113539478,0.9198008506158533,0.864864864864856,1
0.4515660540028521,0.20312225545173468,0.2782648719874898,0.7152113173544271,0.9229003317238291,0.8648648648648631,1
0.43669655984564093,0.2449126528590277,0.22580716713743032,0.21010176242725392,0.8895807583825155,0.8648648648648685,1
0.4671601998189525,0.2031068133292041,0.2584392665477524,0.37498006016793567,0.8645889583484143,0.8648648648648525,1
0.42226027071307537,0.2998463850409934,0.3324473528942395,0.5174373224210775,0.8649763177716208,0.8648648648648543,1
0.5339588485542806,0.24037404620842706,0.18722448080407156,0.5193970011354543,0.8223583011063822,0.8648648648648525,1
0.6225909933816289,0.2403116400274605,0.22321851039658852,0.5461513875328999,0.8293322850299063,0.8648648648648543,1
0.3975853813851117,0.3390984527845915,0.2004044233488917,0.47215727349217035,0.8490915528085383,0.8648648648648543,1
0.4235544284244279,0.33462013623190323,0.24904223210649268,0.4481574757281771,0.8525783933397202,0.8648648648648702,1
0.3838894025412152,0.26318160421404824,0.317640785155622,0.5133876484488644,0.8564525932941089,0.8648648648648489,1
0.2902242693161857,0.26781139579260926,0.37937831031614166,0.4787884817597061,0.8692381800103772,0.8648648648648614,1
0.31235660705028906,0.24802030990536666,0.4400228657080755,0.47228632632876505,0.8622641960868522,0.8648648648648489,1
0.32653234613997933,0.2643776208860822,0.3579261703192503,0.5298961863305334,0.8800863638882888,0.8648648648648543,1
0.30967227008478737,0.2733600631023364,0.35831842949605863,0.5019985788017269,0.8618768366636453,0.8648648648648596,1
0.2897224488158995,0.2887154280329016,0.38413674428710964,0.5037666784885443,0.8595523772632419,0.8648648648648471,1
0.3142273284343561,0.27674500489013953,0.35799677441471056,0.5980417351993405,0.8727250205415586,0.8648648648648489,1
0.3059031601957646,0.2807749761961013,0.37004185499706543,0.45813933881503643,0.8735000422491324,0.8648648648648543,1
0.31332742642884653,0.2754996701750683,0.36167511317829143,0.4291179666485996,0.8738874016723399,0.8648648648648489,1
0.2995930628462552,0.27709609109968725,0.3767339145307208,0.5125833275378824,0.8645889583484141,0.8648648648648614,1
0.30606014175304874,0.26834193841905374,0.37910992618536804,0.4541573010837422,0.8742747610955468,0.864864864864856,1
0.3023730512274396,0.2759005673549012,0.37567107078837525,0.5054676716110663,0.8738874016723386,0.8648648648648525,1
0.3065679358599118,0.26912489645049187,0.37536214807303436,0.5075830887991414,0.8758245016495334,0.8648648648648614,1
0.3053707982134195,0.273736820739047,0.3770142300809701,0.4554231241778505,0.8727250205415586,0.8648648648648596,1
0.3081117478237454,0.26856744839128693,0.3728466255071737,0.5134435290087702,0.8750497828031196,0.8648648648648525,1
0.30812511598491965,0.2738269034159036,0.37593807816860136,0.484003382330469,0.8723376611183504,0.8648648648648525,1
0.3069247817497691,0.2684432871633604,0.3734153336024011,0.45498646610439164,0.8704005611411574,0.8648648648648631,1
0.30586261452603747,0.2764950332228648,0.3714913493588173,0.5345222504114924,0.867688439456388,0.8648648648648471,1
0.30696962991531374,0.2702835332166921,0.37327704372315684,0.48133667875931113,0.8696255394335832,0.8648648648648489,1
0.30671639688689345,0.27640545702841135,0.37433310255501834,0.46347654070937816,0.8680757988795953,0.8648648648648489,1
0.30719315557140703,0.2736258243504533,0.3677901944960379,0.5313998916042497,0.8661386989024005,0.8648648648648596,1
0.30735004901531415,0.2780955220814346,0.37391975217895346,0.4936064362933737,0.866526058325608,0.8648648648648525,1
0.30900099697895544,0.27358165827803516,0.36609301646147785,0.46183144185231184,0.8645889583484125,0.8648648648648471,1
0.2912264280971484,0.27542846882898353,0.38934945655278663,0.5139068290314901,0.8645889583484132,0.8648648648648471,1
0.29099466806685204,0.2669421232999365,0.43592177678811994,0.5125489214798339,0.866913417748814,0.86486486486484,1
0.27550311318796905,0.2737222476151486,0.4203921540474941,0.4492696691075273,0.8707879205643643,0.864864864864856,1
0.28800017196861816,0.2686625170467018,0.4144680308014157,0.48496253526789374,0.8719503016951431,0.8648648648648418,1
0.27059382574657853,0.27675516355174645,0.42494708809470255,0.4916523330302468,0.8700128988567901,0.8648648648648543,1
0.30454463457830705,0.2642002545539279,0.4066917407569782,0.5001822340885957,0.8665260583256071,0.864864864864856,1
0.35021861902082535,0.26311820000419195,0.33097223697151246,0.5535681592603952,0.8673007771720216,0.864864864864856,1
0.31371861313689237,0.2712143087051596,0.3586348605956483,0.4962827633379407,0.8657510366180354,0.8648648648648525,1
0.316057435575272,0.2815405113485758,0.3534777614861442,0.4639067929286736,0.8580026367092557,0.8648648648648525,1
0.3145064921652769,0.2767452005998139,0.36854423916758716,0.49867989528981815,0.8587773555556713,0.8648648648648631,1
0.31310346497786107,0.2819418829285075,0.3556249395152361,0.4872245721691553,0.8583899961324624,0.8648648648648525,1
0.31586718844241735,0.27650535221921424,0.3641052174049618,0.35462662931466876,0.8564525932941083,0.8648648648648418,1
0.311083016925359,0.28177780684881293,0.3546988924563901,0.4506686144365635,0.8560652338709027,0.864864864864856,1
0.3156685986339051,0.27528153750975365,0.36667228314855094,0.5250364330757069,0.855290515024488,0.8648648648648667,1
0.3093263631025327,0.2827663665026049,0.35693941825110587,0.5014270903502486,0.8549028527401228,0.8716216216216317,1
0.318704609955575,0.2732570597291783,0.369732404545258,0.4517835829610377,0.8518033716321469,0.8716216216216086,1
0.30601516875277723,0.2843125397422822,0.35502081762932103,0.49749259130108303,0.8518033716321476,0.8716216216216193,1
0.3234981824899522,0.27289955664345056,0.37339375386880813,0.5191184661551826,0.8506412933625249,0.8716216216216086,1
0.2993466893253339,0.28554749788317063,0.35142599126873764,0.4601218434580797,0.8498662716549525,0.8648648648648685,1
0.33592360786009257,0.27052152376353733,0.3781692152668249,0.5039435707659268,0.848704193385331,0.864864864864856,1
0.23240905803586354,0.2958219119501766,0.3410910297717391,0.5326184463370282,0.8467667905469767,0.8648648648648471,1
0.3514003301644857,0.227083810115908,0.5077350360599687,0.4694495886581042,0.8471544528313437,0.8648648648648543,1
0.3821562477345789,0.27267690271014206,0.7179322906955649,0.4760245032065683,0.8893848072122152,0.8648648648648489,1
0.3073860579602522,0.30390070512527134,0.744974674454909,0.5662031945088621,0.894034028874177,0.8648648648648471,1
0.3355044871634012,0.27022936457850577,0.6668083536963254,0.49375496724382856,0.8913219071894096,0.8648648648648596,1
0.2899866199381236,0.3343506236694045,0.728602550226908,0.6235069843093883,0.8940340288741782,0.8648648648648614,1
0.27641934727855866,0.3280259522399034,0.413327056348331,0.5628970611026888,0.8909345477662018,0.8648648648648543,1
0.42200175575394855,0.27032880106682333,0.24333940933063936,0.365480442105851,0.8657510366180345,0.8648648648648631,1
0.4593832272324873,0.2584354695091704,0.2671709208183124,0.4254678137199745,0.8556778744476952,0.8648648648648454,1
0.47263608917957667,0.29112768066786965,0.20594962060540584,0.35240607113175576,0.8339815066918685,0.8648648648648471,1
0.5362965584514513,0.28523618564542497,0.2265226464480985,0.5304520351191314,0.8281699038991255,0.864864864864856,1
0.4679948005336765,0.2971828312756748,0.22694854550842763,0.5009317386540701,0.8223583011063822,0.8648648648648631,1
0.5093547325796262,0.2745464116134177,0.2348429246801736,0.3952069965948888,0.8324317661378815,0.8648648648648685,1
0.4959113516213818,0.2883733977357008,0.2185673694211248,0.4729338661799483,0.825845444498724,0.8648648648648543,1
0.548819480748468,0.2811331535236612,0.21193673663713236,0.5179406784492044,0.8239083445215298,0.8716216216216193,1
0.5229003318417011,0.2938453283500977,0.20705515049167295,0.4278036083916161,0.8219709416831751,0.8716216216216086,1
0.5650322709627296,0.27536937456983707,0.20801325090190043,0.5387996352421024,0.8200338417059809,0.8716216216216086,1
0.5294160125625098,0.294658081817894,0.2058163406978885,0.5816001921039529,0.8153846200440178,0.8716216216216086,1
0.5771236394789412,0.2669902157216587,0.2050856916711266,0.4938617847734074,0.8138348794900307,0.8648648648648489,1
0.4420321294199324,0.344675451556261,0.23078777606773837,0.46059868882388927,0.8126724983592497,0.8648648648648631,1
0.42497149247652216,0.31918712625463325,0.2606011104145688,0.5580684471608413,0.8111227578052631,0.8648648648648596,1
0.19347585607628193,0.3149702284780424,0.42060370960984417,0.5108007583438353,0.8130601606436176,0.8648648648648525,1
0.28340586634037535,0.33008145880628914,0.6591247925328412,0.45203017982901234,0.8188714605752001,0.8648648648648489,1
0.16912579982076836,0.3427307075407982,0.6117889655885883,0.503547562857358,0.8487041933853297,0.8648648648648454,1
0.4969316279326536,0.3305212898494745,0.7691610141576323,0.5935031520086623,0.845604712277356,0.8648648648648471,1
0.48764820308096923,0.3827821577061661,0.853957722060523,0.5024226162253019,0.8684631583028026,0.8648648648648631,1
0.41524345607980023,0.35620219312234913,0.8349954219089817,0.6786734924015536,0.8746621205187539,0.871621621621621,1
0.4502181522595041,0.37201618620219234,0.8217836105788244,0.5651350133634963,0.881636104442276,0.8716216216216068,1
0.34210075337393664,0.3721392817795777,0.7926738697094902,0.2913486712598566,0.8847355855502517,0.8716216216216086,1
0.396498362842029,0.387144219957105,0.7959484864003449,0.39906964054227595,0.8769868827803144,0.8716216216216086,1
0.3580977482468554,0.38384296779120075,0.7905256105098208,0.3583952284427997,0.8769868827803131,0.864864864864856,1
0.38238731573842655,0.38245550682325125,0.7905854140009148,0.49514322538699435,0.8742747610955464,0.8648648648648471,1
0.35862097701664875,0.3760514449180496,0.7893035830081689,0.4629251353556714,0.8746621205187521,0.86486486486484,1
0.37495244883865353,0.373370786137577,0.7840380842806065,0.4823906234823187,0.873500042249131,0.8648648648648543,1
0.35838139100515476,0.37303891081210216,0.7857848995331618,0.5150856092222942,0.8738874016723379,0.8716216216216086,1
0.370393278744216,0.37346602572006266,0.7832880754206203,0.4724985942946034,0.8700128988567888,0.8716216216216139,1
0.3565884272646538,0.37072835337528076,0.7846623777504835,0.4827603642373341,0.8649763177716205,0.8716216216216068,1
0.3707913374069347,0.3676067768604172,0.7830873552287847,0.5104218024930788,0.8707879205643625,0.8716216216216068,1
0.35919139060228517,0.36842822063389113,0.7840248345348435,0.4588885525692578,0.8704005611411569,0.8716216216216139,1
0.36708870619725964,0.3681085325737144,0.7804149484737659,0.4818792591568198,0.8719503016951429,0.8716216216216015,1
0.35675314137023534,0.36761221871203004,0.7810513780230623,0.5226742036012049,0.8673007771720223,0.871621621621621,1
0.3646717274112356,0.3674960224192648,0.780271947019749,0.4523173423239817,0.8700128988567899,0.8716216216216051,1
0.3570785911888018,0.36853636045844473,0.7816823331180957,0.4938228166666544,0.8676884394563884,0.8716216216216139,1
0.3644729131013381,0.3678974806581086,0.7800321415621665,0.5288586597905262,0.8704005611411563,0.8716216216216051,1
0.35862744900307286,0.36839976003949526,0.7818509483311051,0.46160737450959727,0.868463158302802,0.8716216216216122,1
0.36487634144284603,0.36798445797185286,0.7798535754725703,0.4839395843255274,0.8688508205871697,0.8716216216216086,1
0.3596122239893393,0.3683234285731378,0.7822327296738391,0.536945744766962,0.8684631583028015,0.8648648648648543,1
0.36397035108262243,0.36807356902881644,0.7812113359020069,0.47388184292534086,0.8684631583028026,0.8648648648648631,1
0.36361554326187556,0.36817513481143455,0.7826333477188032,0.4673163966804697,0.8676884394563902,0.864864864864856,1
0.3665569297119038,0.3686102044442942,0.7842762569906099,0.529939659952201,0.8657510366180345,0.8648648648648543,1
0.364728064034726,0.36901292681043313,0.785639099064008,0.48644990045105463,0.8669134177488154,0.864864864864856,1
0.3675111826281828,0.36777096084172667,0.7827561602326126,0.4521886289002104,0.8653639800559874,0.8648648648648543,1
0.3615049407953507,0.36848094781815427,0.7844967727034684,0.5309735973806043,0.8665260583256098,0.8648648648648631,1
0.36698725508899926,0.3679103696244247,0.7823340767931727,0.4826400375355316,0.8653639800559869,0.8648648648648471,1
0.3651693667782109,0.36840715203661356,0.7833393889470865,0.45393895364275527,0.8638139366408402,0.8648648648648685,1
0.369065895698303,0.36796032236955284,0.7823616244730998,0.5248072663278526,0.8653639800559876,0.864864864864856,1
0.364414041482733,0.3683685611176186,0.787420036000926,0.5039874974344204,0.8630392177944264,0.8648648648648471,1
0.3691906951848995,0.3679926912388305,0.7829615526230471,0.4417842924437132,0.8638139366408393,0.8648648648648471,1
0.3682368275211766,0.36833987553393216,0.787292262383795,0.5060763035581886,0.8622641960868527,0.8648648648648525,1
0.36784031576775994,0.3680191092176597,0.7840206144205837,0.5389776768823958,0.8653639800559858,0.8648648648648329,1
0.3673321138956958,0.36831486202833025,0.7872317179773012,0.4727374092485902,0.8603270961096581,0.8648648648648525,1
0.3696094008630416,0.36804328314128465,0.785542489670169,0.4461859920413079,0.8634265772176333,0.864864864864856,1
0.36337910901147,0.36829113513035994,0.7871896063474022,0.5279135090996425,0.860714455532863,0.8716216216215944,1
0.370769612834785,0.3680668508345718,0.7834764993676241,0.5277711904480877,0.8630392177944257,0.8716216216216139,1
0.36794441557209123,0.3682675048026538,0.7864447071566756,0.4687267123070326,0.8618768366636453,0.8716216216216051,1
0.36929515148366665,0.36809072313642716,0.7849141176257869,0.4425772804050528,0.8595523772632427,0.8716216216216015,1
0.36605586407268254,0.36824323873843845,0.7872127198558386,0.522243533464189,0.8607144555328652,0.8716216216216122,1
0.36919588752861326,0.3681155171676454,0.785334419488231,0.5130867137264623,0.8595523772632454,0.8716216216216264,1
0.3666623110379638,0.3682177931536143,0.7868023398312947,0.4588760775629173,0.8603270961096579,0.8716216216216086,1
0.3705857869447258,0.3681417323910489,0.7858733225235742,0.4654348871008636,0.8599397366864501,0.8716216216216015,1
0.3651370049851989,0.3681906917373167,0.787855420089348,0.5322723649456502,0.8599397366864518,0.8716216216216086,1
0.36948596409124224,0.36816983829944816,0.7842941189571225,0.4749536722939703,0.8599397366864512,0.8716216216216193,1
0.36683131751632375,0.36816145840873693,0.786460043096718,0.45002177992546655,0.8572276150016831,0.8716216216216015,1
0.37020946056599363,0.3682003293171199,0.7854653359770352,0.508994850125674,0.8564525932941089,0.8716216216216086,1
0.3660911373234044,0.3681295693793018,0.7868783746805795,0.5260586340020459,0.8564525932941087,0.8581081081081017,1
0.37048512078739626,0.368233769599993,0.7854537766376928,0.43672382382906133,0.8583899961324644,0.8581081081080999,1
0.3679420395038116,0.3680944085164703,0.787459433975175,0.47872151552262576,0.8576149744248907,0.8581081081081017,1
0.3710775955960363,0.3682708400821863,0.7854326015774806,0.5321245160148128,0.85761497442489,0.8581081081081017,1
0.3692109634228947,0.3680552153800397,0.7878841123751869,0.507966504703797,0.857227615001682,0.864864864864856,1
0.3711247117903707,0.36831239808543637,0.7861916592044786,0.43340708843614234,0.8556778744476949,0.86486486486484,1
0.3692355926576104,0.36801101470877723,0.7880980987142399,0.48464289902988017,0.856065233870902,0.8648648648648489,1
0.37108545653359354,0.3683595629149461,0.7860911971068345,0.5457679821084369,0.8560652338709023,0.8648648648648471,1
0.36927886744003363,0.3679605100816241,0.7881747939463671,0.4867400097628492,0.8556778744476952,0.8648648648648543,1
0.37104104288631073,0.368413850957486,0.7860218830125468,0.4410918586321758,0.8549028527401208,0.86486486486484,1
0.3693239095987829,0.3679019082585813,0.7882424950999702,0.5052974462957764,0.8518033716321456,0.8648648648648543,1
0.37099461793364824,0.3684774098894772,0.7859529820168589,0.5352103130467687,0.853353112186134,0.8648648648648471,1
0.36937388003717375,0.3678325982560864,0.7883143083234838,0.45262933002683015,0.8533531121861337,0.8716216216216193,1
0.37093611555468126,0.36855347055917265,0.7858770367913579,0.4725908712981732,0.8533531121861335,0.8716216216216193,1
0.3694541137906234,0.3677485049097068,0.7883953292084378,0.5370150651033492,0.8518033716321449,0.8716216216215997,1
0.3707836110687956,0.36864722939723304,0.7857902497023199,0.4917332665438804,0.8521910339165126,0.8716216216216068,1
0.37041329747866625,0.3676433881091536,0.7884881196172442,0.42485410154009284,0.8518033716321463,0.8716216216216122,1
0.37132948698056617,0.36876088917202987,0.7856924588499008,0.5046059448627603,0.8518033716321449,0.8716216216216175,1
0.36922119146810917,0.3676280586253433,0.788585345486259,0.5424065430451701,0.8514160122089396,0.8716216216216122,1
0.37105992484414724,0.37475039146188965,0.785630233141696,0.4776838153271498,0.8510286527857314,0.8716216216216015,1
0.36931346399060416,0.3732211532224051,0.7895470312307433,0.43271526932504634,0.8506412933625249,0.8716216216216086,1
0.3710088318597673,0.3759181986010292,0.7852623736743229,0.5115991210420529,0.8475418122545493,0.8716216216216051,1
0.3693483032857585,0.37412163090612777,0.7890395223725553,0.5454080363072117,0.8498662716549503,0.8716216216216246,1
0.37098111014849844,0.37386949832397487,0.7850566939295237,0.46194417002923227,0.8463794311237687,0.871621621621598,1
0.3693739758033274,0.369868935103153,0.7896458229880999,0.4445382988131508,0.8494789122317434,0.8716216216216086,1
0.3709545983961488,0.3752089388648032,0.7860119021803244,0.5250948186483535,0.8483165311009633,0.8716216216216193,1
0.3693909317318955,0.3672366055547527,0.7911316299770212,0.5180901007946465,0.8479291716777575,0.8716216216215997,1
0.3718121566676274,0.3718895139350097,0.7844318114404459,0.43276344449964693,0.8479291716777573,0.8716216216216051,1
0.371462462190969,0.37050301130620716,0.7908940593677745,0.499830504274454,0.8459920717005625,0.8716216216215926,1
0.3730448638755262,0.37600295849391696,0.7857671934396402,0.5336674769111422,0.8487041933853299,0.8716216216216193,1
0.37199626305206834,0.3719003860217925,0.7922724000754291,0.450580791960856,0.8459920717005616,0.8716216216216051,1
0.3725241526900206,0.3774674320763937,0.7848977381696557,0.4637893879677243,0.8463794311237689,0.8716216216216122,1
0.3702247267607464,0.3657785775812594,0.7926172274475083,0.5536532260812211,0.8432799500157948,0.8716216216216175,1
0.36324351837115226,0.3867315001756952,0.8066821757484661,0.47883600657976017,0.8448296905697807,0.8716216216216015,1
0.5085626554617081,0.381533336827118,0.8793841263203845,0.43863581941974655,0.8459920717005631,0.8716216216216068,1
0.4658354384978578,0.38399850642543676,0.6773100264174456,0.5152313209896037,0.8502539339393171,0.8716216216216015,1
0.09859471753576787,0.567203916302499,0.7488822297857581,0.5593639086171198,0.8444423311465741,0.8716216216216086,1
0.29625571500831294,0.6313886148409179,0.7985937645574219,0.469355244187988,0.8281699038991264,0.8716216216216246,1
0.37188105866411675,0.6314841759387678,0.7599494135349645,0.5387526992157519,0.8324317661378813,0.8716216216216086,1
0.3476930549731049,0.620365320617067,0.7843740863291633,0.41029331277713976,0.8374683472230497,0.8716216216216122,1
0.3613140530083604,0.6297176234943973,0.767976790681711,0.5531201455134006,0.8409551877542323,0.8716216216216051,1
0.34958922806939713,0.6185763046377428,0.7801472390403985,0.47817099579986305,0.8409551877542336,0.8716216216216051,1
0.355582681576976,0.6236164474654382,0.7696751914612662,0.3095564622978917,0.8335941472686614,0.871621621621598,1
0.34892115106339044,0.6186188033861144,0.7780956792364075,0.5312610661520424,0.8366933255154756,0.8716216216215997,1
0.35348036397925975,0.6233693214925895,0.7698847728426927,0.5041288537028623,0.8378560095074175,0.8716216216216051,1
0.3495931274651725,0.6175092297659275,0.7747154597640318,0.46073135033096346,0.8382433689306228,0.8716216216216086,1
0.3529788021082543,0.6225030207175888,0.771978017319311,0.5199545368453299,0.8363062689534286,0.8716216216215873,1
0.3499769391911875,0.6194055044669653,0.7756353713572295,0.5415210644317772,0.837080987799842,0.8716216216215926,1
0.3526786144168008,0.6221747373971482,0.7711644936733233,0.4312827466904045,0.8335941472686612,0.8716216216216015,1
0.3502160965000125,0.6210407871584745,0.7751443084815524,0.48874552627581896,0.8374683472230497,0.8716216216216015,1
0.3524851135401764,0.6238782793882491,0.7709443363484305,0.5485045911103978,0.8363062689534304,0.8716216216216086,1
0.35037469369503615,0.6243481467016414,0.7741388214106956,0.47832919372419425,0.8366933255154752,0.8716216216215997,1
0.35118013827381067,0.6273116487251176,0.7679557963603999,0.43441587168900186,0.8359186066690634,0.8716216216216193,1
0.350484579842363,0.6256981152040276,0.7699845876125846,0.5342217920506516,0.8339815066918672,0.8716216216216015,1
0.35226109036091546,0.6279459980192732,0.7675257339281943,0.5244983574188522,0.8332064849842931,0.871621621621598,1
0.3505631762511478,0.6257061912634992,0.7706573873001099,0.45802994290252413,0.8328191255610884,0.8716216216216193,1
0.35219397315062795,0.6278565519903349,0.7691883678257843,0.47014005892003435,0.8332064849842951,0.8716216216216086,1
0.3506208353564725,0.6259459028070137,0.7693591998462775,0.5448478104413965,0.8320444067146748,0.8716216216216193,1
0.3521441276479568,0.625327467665247,0.7675011946388945,0.4914736180909321,0.8339815066918688,0.8716216216216193,1
0.3506642406292165,0.623290356259597,0.7694216516068975,0.45994227785283,0.8335941472686623,0.8716216216216015,1
0.3521059770196399,0.6273681720830782,0.7682308438891293,0.5099290950571276,0.8328191255610877,0.8716216216215997,1
0.35069820616378805,0.6230388862991272,0.7695254516601716,0.5060732712836029,0.8347565283994418,0.8716216216216051,1
0.3520751731086518,0.6249502872761465,0.7678852826597758,0.45807959658708247,0.8335941472686619,0.8716216216216086,1
0.350726905727999,0.624068432518591,0.7704414109761331,0.5010027123630583,0.8332064849842951,0.871621621621598,1
0.352047378992108,0.6225346926771621,0.7677502540723767,0.5172279876033851,0.8308820255838936,0.8716216216216086,1
0.35075530388614246,0.6215910370173721,0.7693380356042274,0.4699838597770125,0.8316567444303073,0.8716216216216015,1
0.35201625649252377,0.6204146321154251,0.7676304490038222,0.4784712116000024,0.8308820255838936,0.8716216216216068,1
0.35079247951512105,0.6203419398992431,0.7692702576103517,0.5310112713722644,0.8308820255838938,0.8716216216216051,1
0.3519671470487731,0.620437316555893,0.769793211207092,0.4867884859457017,0.8281699038991241,0.8783783783783594,1
0.35086547324041456,0.6210405734357788,0.770399111489787,0.4496760197324784,0.8308820255838933,0.8783783783783505,1
0.3518407488609678,0.6207671018500578,0.7682495553963761,0.49210789695802326,0.8312693850070996,0.8783783783783647,1
0.3511475895741795,0.6226538441761514,0.7700607971366421,0.5218337128577208,0.8312693850071011,0.8783783783783594,1
0.35047938948240226,0.6246332549728634,0.7692392232620524,0.47706006004121193,0.8308820255838929,0.8716216216216086,1
0.3493345858591115,0.6241370460484654,0.7693919449534542,0.45128379732817847,0.8297196444531127,0.8716216216216086,1
0.35262398834074093,0.6270324429489722,0.7676201719396235,0.4916184509006325,0.8293322850299054,0.8716216216215944,1
0.3503358321630622,0.6266643748463719,0.7693115600489954,0.5238525874086797,0.8277825444759175,0.8716216216215908,1
0.35238104382361257,0.626937402294593,0.7684325824184515,0.4811937994689278,0.8270075227683444,0.8783783783783505,1
0.35045109708666033,0.626726750958076,0.7692947294025925,0.46192569118583593,0.8285572633223324,0.8783783783783594,1
0.3522590086631802,0.6260691304431194,0.7676374123645894,0.5083196340454325,0.8285572633223328,0.8783783783783718,1
0.3491820974293214,0.6261909653196719,0.7699733051881698,0.4996812318881518,0.8281699038991239,0.8783783783783505,1
0.35270082704180566,0.6254848200180998,0.7678560262859849,0.45764040030586267,0.8285572633223326,0.8716216216216264,1
0.3494632985016908,0.6217685038346532,0.7692458598520419,0.49727547735011934,0.8281699038991257,0.8716216216216193,1
0.3518569299285641,0.620660029421225,0.7696949916301569,0.5030593213803821,0.8270075227683438,0.8716216216216051,1
0.35055490789272414,0.6205234113392799,0.7723577655084197,0.4614398874570251,0.8270075227683451,0.8716216216215997,1
0.3524138409693677,0.6205285040489592,0.7707960665109379,0.4969783229166789,0.8270075227683438,0.8716216216216015,1
0.3498358876625885,0.618824370290368,0.7713693177431724,0.5141303003255507,0.8285572633223326,0.8716216216216051,1
0.3514854470603435,0.6197270375993318,0.7686616317238006,0.45485802670674597,0.8262328039219307,0.8716216216216051,1
0.35078224363389315,0.618021622049825,0.7713875181001354,0.48233175850736065,0.8250704227911501,0.8716216216216122,1
0.3521257072376363,0.619749225513665,0.7691365762554959,0.521710776035248,0.8266201633451373,0.8783783783783594,1
0.34942670704229795,0.6239367410991279,0.7711153694798399,0.4766654676690364,0.8262328039219311,0.8783783783783665,1
0.35223094356673446,0.6237553395420021,0.7680815318468647,0.4573679235421195,0.8258454444987235,0.8783783783783718,1
0.35052235750784855,0.6247699733098397,0.769459569621904,0.5144072588984817,0.8246830633679443,0.8783783783783594,1
0.35229652719120663,0.6261656111580421,0.7691024037772078,0.5112502214888455,0.824683063367943,0.8783783783783647,1
0.35046285460283494,0.6248643608505052,0.7690491415459204,0.4598073425237125,0.8231333228139555,0.8783783783783718,1
0.35235305772068276,0.6234983061970656,0.7687314466034177,0.4826451063645106,0.8235206822371617,0.878378378378363,1
0.35040758135037553,0.6223409413523799,0.769843632454583,0.5330670885121106,0.8246830633679421,0.878378378378363,1
0.35240805933999086,0.6222801362973264,0.7684449987911387,0.47899211602152186,0.8239083445215287,0.8716216216216051,1
0.35035232920414816,0.6208999913447326,0.7693400968064114,0.4628707189129281,0.8250704227911485,0.8716216216215997,1
0.35246369275125006,0.6211650339793569,0.7676883808231513,0.512242939423427,0.8219709416831749,0.8716216216215997,1
0.3502966585226397,0.6181457993047582,0.7692229264727241,0.5070365967664627,0.8231333228139555,0.8716216216216139,1
0.3525182604116512,0.6205591767146165,0.7678467973217817,0.4555429691664605,0.8208085605523932,0.8716216216215997,1
0.35024603091923745,0.6187525157196909,0.7701443464727069,0.4946756099230426,0.8219709416831744,0.8716216216216051,1
0.352557613383681,0.619120249435619,0.7684039887804773,0.5196885638674976,0.8200338417059791,0.8716216216216015,1
0.3502414407618311,0.6182887398176845,0.7703151009510207,0.47016495179878104,0.8208085605523932,0.8716216216216086,1
0.3523925495460019,0.6196606920976178,0.7690766547804223,0.4677255316753813,0.8192588199984066,0.8716216216216051,1
0.3489360822529454,0.6193895829233584,0.7705112217329739,0.5211638043302919,0.8215835822599682,0.8716216216216175,1
0.3530615396915089,0.6238626602468155,0.7677166533899025,0.5020778143307468,0.8219709416831749,0.8716216216216068,1
0.349761123372295,0.6269675252906975,0.7692492347721599,0.4566611937213093,0.8208085605523945,0.8716216216216068,1
0.35305549177011275,0.6266798030055497,0.7678678225373502,0.46920807215348004,0.8196464822827736,0.8648648648648596,1
0.349681125251084,0.626572979495956,0.7699069202450801,0.5209062607489461,0.8180967417287854,0.8648648648648525,1
0.35317269141368135,0.6248220137004373,0.7685876160853404,0.48798767327495235,0.818871460575199,0.8648648648648471,1
0.3495379334776869,0.6262121975760926,0.7702351079486757,0.4508885130688479,0.8165470011747984,0.864864864864856,1
0.35333923817218743,0.6239293890276466,0.7678518527918783,0.47692444771650067,0.8177090794444188,0.8716216216215997,1
0.34934743130367474,0.6248303103586825,0.769805761129692,0.5119154281112105,0.8180967417287868,0.8716216216216086,1
0.353556119287803,0.626809161080957,0.7671612537559291,0.4642440422026825,0.8180967417287857,0.8716216216216086,1
0.3491002770142108,0.6234604453757364,0.769857833916611,0.4942189499532489,0.8146095983364436,0.8716216216216015,1
0.3538389838241048,0.6230776536432282,0.7683603692661789,0.5210043108570701,0.8169343605980048,0.8716216216216086,1
0.3487743797954841,0.6214175677160874,0.7701125667717725,0.47436334843928196,0.8173217200212117,0.8716216216215944,1
0.35421773883021646,0.6219478641751444,0.7673862043953568,0.4700042477709866,0.8157719794672227,0.8716216216215926,1
0.34832944829418805,0.6214225613494776,0.7707572118329795,0.5252228573114072,0.8149972606208109,0.8716216216216139,1
0.3547472320783927,0.6205645539110375,0.7694309372543776,0.45633858857482906,0.8111227578052613,0.8783783783783594,1
0.3476893965549371,0.6209885420496986,0.7724343722857084,0.48145168274905603,0.8157719794672238,0.8783783783783488,1
0.35553569957470177,0.6224636510182436,0.7658853041427554,0.5293890811869824,0.8056988172968864,0.8783783783783807,1
0.34669543561033195,0.6227140862821202,0.7720720132569616,0.47223043388372493,0.8115101172284689,0.878378378378363,1
0.3568246395595212,0.6247552241960834,0.7664681002143175,0.47148156070369823,0.8095730172512738,0.8716216216216086,1
0.3449659420572573,0.6275844473142025,0.7709902560880945,0.529437904433563,0.8126724983592493,0.8716216216216086,1
0.35923065828480405,0.6268672109425532,0.7658627104207407,0.48975249840288854,0.8107353983820538,0.8716216216216175,1
0.34164694745489727,0.6247689287566369,0.7707935197487603,0.4574890068779032,0.8107353983820544,0.8716216216216015,1
0.35791790553265457,0.6390832681753426,0.7682670939292732,0.5125812399182764,0.8103480389588475,0.8783783783783576,1
0.2025981835260331,0.5543749663811999,0.7674179901268485,0.5090426624997018,0.810348038958848,0.8783783783783647,1
0.25839444986907734,0.2990583767755579,0.5472386594824302,0.44676110542919234,0.809573017251273,0.8783783783783665,1
0.414480892187726,0.3645043836179898,0.683805484335975,0.5153755294516222,0.7882640089186539,0.8783783783783559,1
0.41632022814246394,0.47300572533520907,0.8472716641991671,0.49175278197687794,0.7991121927965679,0.8783783783783701,1
0.34134320669430573,0.36981936256272707,0.7648531679653535,0.4589086332355021,0.8045364361661032,0.8783783783783523,1
0.28271785699611085,0.4158381588240059,0.7597567550712724,0.6151409052628221,0.8099603766744798,0.8783783783783559,1
0.30829534629319766,0.4437686117857384,0.7425732863825619,0.5217156903505001,0.8099603766744798,0.8783783783783505,1
0.30871294216855927,0.4653740911548764,0.7644666701874777,0.46086529710819857,0.8138348794900296,0.8716216216216051,1
0.32096144839604956,0.457920220986115,0.7603480599284244,0.5113747683740807,0.8157719794672227,0.8716216216216068,1
0.3154696182991315,0.46330899822260846,0.7667385541206146,0.4623323784811471,0.8177090794444184,0.8716216216216051,1
0.3240067557958121,0.45638591497061765,0.7638708183349192,0.45685755388972926,0.8177090794444197,0.8716216216216068,1
0.31981700637300536,0.4644923513769136,0.7686831259463719,0.4948783208407184,0.8157719794672238,0.8716216216216068,1
0.32356770163840215,0.4557930978265036,0.7647519961702307,0.4327927414059734,0.8165470011747982,0.8716216216216086,1
0.3222790647651944,0.46015756303981303,0.7704081006832799,0.4329514147895101,0.8130601606436152,0.8716216216215997,1
0.3254088956110398,0.45481279430554894,0.7668800361394148,0.45195688910182313,0.8169343605980048,0.8716216216216086,1
0.32148632465238236,0.459144284361627,0.7698847473232181,0.5276308548814098,0.8146095983364445,0.8783783783783647,1
0.32712878614331237,0.45516595573177554,0.7671694141262397,0.49188456064194575,0.818096741728785,0.8783783783783505,1
0.3218297450583017,0.45887241020975306,0.7702100602286004,0.4394198796538064,0.813447217205663,0.8783783783783647,1
0.3274577825409469,0.45539321445658754,0.7677974916331781,0.5054936935821003,0.8157719794672249,0.8783783783783647,1
0.32246737385622315,0.4586769461451856,0.7691650717326648,0.5204825506125255,0.8153846200440178,0.8716216216216068,1
0.3246169741009154,0.4555642736971003,0.7679636001823176,0.4394411647242225,0.8149972606208105,0.8716216216216068,1
0.32429355019871475,0.4585251676329262,0.7698718230915077,0.47698857743124434,0.8142222389132363,0.8716216216216068,1
0.32411302571848283,0.4557006480109317,0.7676932198731998,0.5565298023226197,0.8138348794900303,0.8716216216216175,1
0.32385802111362605,0.45840108140495855,0.7691504297019984,0.45577159026307706,0.8134472172056639,0.8648648648648418,1
0.32550415410335903,0.4558151098332029,0.7678737679083163,0.45909087487357425,0.8115101172284691,0.8648648648648543,1
0.3214016103219674,0.4582937818424599,0.76902509501108,0.5560633977773723,0.8149972606208102,0.8648648648648418,1
0.32579346270900916,0.4559177794832163,0.7679777946880253,0.5181561276005048,0.8118974766516764,0.8648648648648631,1
0.3220028770872852,0.45819274384645325,0.768932865169357,0.419056100845779,0.8126724983592488,0.8851351351351049,1
0.32627375133414904,0.45602139499995853,0.7680625071316298,0.5053400500792236,0.8138348794900299,0.8851351351351227,1
0.32296063536821956,0.4580793811271576,0.7688529418467392,0.5616804559792049,0.8130601606436165,0.8851351351351244,1
0.3239039598627712,0.45615987933178415,0.7681402665260904,0.4824016523323607,0.8118974766516749,0.8851351351351155,1
0.32364799141814976,0.45786922950738757,0.7687726790596221,0.43575951514241607,0.8122851389360417,0.8783783783783701,1
0.32397907315183583,0.4567768250318533,0.76824182455738,0.5355329260213185,0.8118974766516751,0.8783783783783559,1
0.32269597002491784,0.4586212469249123,0.7680362277874145,0.5368209494305527,0.810735398382054,0.8783783783783523,1
0.32761330445685355,0.456621990988047,0.7679941227874961,0.42651057578513074,0.8107353983820555,0.8783783783783701,1
0.32550023974110653,0.46178804422036884,0.770112183277684,0.4974671145532148,0.8084106361204946,0.8851351351351298,1
0.3275195296545699,0.45810730398353205,0.7696591052820911,0.5382123933498284,0.8095730172512745,0.8851351351351262,1
0.324741560870592,0.4626532481039661,0.7674633256310728,0.44292999984652703,0.807635917274079,0.8851351351351102,1
0.32745893274396976,0.45775351625434646,0.7691291864216431,0.4703601605885921,0.8103480389588482,0.8851351351351351,1
0.3236025764840745,0.46490268479168845,0.7684276789126414,0.5351261173839177,0.8072485578508721,0.8851351351351155,1
0.3251725400753789,0.46246821394487647,0.7668147728960554,0.43629524119684293,0.8095730172512745,0.8851351351351262,1
0.32735741473724805,0.4658425566634629,0.7712944216394286,0.4638798568055099,0.8041490767428983,0.8851351351351227,1
0.3285530609654042,0.4605671804998517,0.771587333117981,0.5535517351604613,0.8072485578508721,0.8851351351351227,1
0.3254754505308291,0.4606299225362943,0.7708128294546048,0.4733339147296348,0.8087982984048607,0.8851351351351351,1
0.3263862625383675,0.4600872006428904,0.769200547954664,0.4921811775431181,0.8072485578508721,0.8851351351351155,1
0.332044281752251,0.46193183484997247,0.7736028311243767,0.5291290267257344,0.8064735361432995,0.8851351351351262,1
0.3350499918008365,0.457810449703857,0.7762587985370631,0.42150902897072307,0.8045364361661043,0.8851351351351262,1
0.33554443310260745,0.45831002749539795,0.7774549996824073,0.4936867563197895,0.8060861767200915,0.8783783783783559,1
0.3333372423883986,0.4562932926956084,0.7761823710452862,0.5292007244913891,0.8056988172968866,0.878378378378363,1
0.33365666571524333,0.4578288263772043,0.7764149528342008,0.457229512345199,0.8060861767200924,0.8783783783783576,1
0.33337351284951755,0.4563445365731997,0.7784118208168438,0.5192282017092735,0.8037614144585312,0.8783783783783701,1
0.3354320892828052,0.45780879865599794,0.7792050503085128,0.46565970447045607,0.8045364361661034,0.8783783783783576,1
0.3354304996100987,0.45635906353031186,0.7796966641182259,0.47823017433517023,0.8060861767200929,0.8783783783783718,1
0.33686379932926835,0.4577952816425621,0.7814708229480711,0.5438646163198337,0.8049237955893107,0.8783783783783647,1
0.3389106962906854,0.45637254864373883,0.7802247187850149,0.4492513270443989,0.805698817296884,0.8783783783783559,1
0.332875659452914,0.45778165582426467,0.7801337666783459,0.49547221914022405,0.8045364361661036,0.8783783783783647,1
0.3361933617616969,0.4563862845476166,0.7787725138761561,0.5297692672708769,0.8033740550353243,0.8783783783783647,1
0.33932771850511284,0.45776788378586936,0.7803146051291503,0.4422674033248901,0.8010492927737616,0.878378378378363,1
0.3350694813528363,0.4564000202550489,0.7779603509667242,0.5010679074900679,0.8025990333277495,0.8783783783783647,1
0.3321060037673501,0.45775424418524724,0.7783732006344639,0.5206369857902537,0.800274573927348,0.8851351351351173,1
0.33281703723645445,0.4564135176732949,0.7753269900536741,0.44595384747275846,0.80143695505813,0.8851351351351102,1
0.33300700983590337,0.45774092318369886,0.77586887278366,0.5007208616735149,0.7994995522197734,0.8851351351351155,1
0.33366566784844703,0.45642663749468015,0.7753089007380392,0.5395846501281102,0.7998872145041418,0.8851351351351031,1
0.33210503762793037,0.45772802199381313,0.7750723111845683,0.4534412493759026,0.7994995522197745,0.8716216216216015,1
0.3330011060375288,0.4564393081375508,0.7749515159354686,0.4618123170040721,0.8018243144813353,0.8716216216215997,1
0.3322946340467475,0.45771558968147774,0.7754648690432604,0.5226657167501352,0.8018243144813364,0.8716216216216122,1
0.33291077424567556,0.45645149737623775,0.7757963407933817,0.4681979148094848,0.8002745739273471,0.8716216216216015,1
0.33229659515079174,0.457703646064218,0.7756699238577116,0.4644506017164472,0.7994995522197741,0.8783783783783559,1
0.33368180606263975,0.4564631943637321,0.7753431135699244,0.5183716567355378,0.797175092819373,0.8783783783783576,1
0.33330234315573226,0.4576921956882631,0.7760028251686057,0.4457825333099885,0.7987248333733603,0.8783783783783594,1
0.3348685111875785,0.45647439876721935,0.7765337163466968,0.47986311138834165,0.7964003739729597,0.8783783783783523,1
0.33488797331021963,0.45768123632321955,0.778634312576733,0.5239679004842549,0.7979501145269474,0.8783783783783665,1
0.33607519193587937,0.4564851140562299,0.7793908014628579,0.4396356575134271,0.7956253522653867,0.8783783783783594,1
0.3394113290141715,0.45767076434159937,0.7814194563701642,0.5009103389213773,0.7894263900494352,0.8783783783783718,1
0.33889814427541565,0.4564953431176076,0.7805302406424414,0.520472409227053,0.7933008928649841,0.8783783783783647,1
0.3336716592779939,0.45766077835300634,0.7811956308005243,0.4420364910734877,0.7940756117113983,0.8851351351351262,1
0.33780737882425893,0.4565050852140645,0.7786488608860418,0.52931777363305,0.7964003739729595,0.8851351351351102,1
0.3387301444385709,0.4576512817194687,0.7780046975764332,0.4962556086803867,0.7952379928421791,0.8851351351351155,1
0.3341340640000847,0.4565143340490346,0.7785396570111499,0.46441549613053273,0.7948506334189718,0.8851351351351155,1
0.3324866406078716,0.4576422836643611,0.7769966370904318,0.5461386324437092,0.7925258711574104,0.8851351351351227,1
0.3336999671482824,0.45652307807636094,0.7760739897336888,0.4951682505481408,0.7936882522881912,0.8851351351351155,1
0.3332472881165525,0.457633796275251,0.7752650861349708,0.4598208594502027,0.7898140523338024,0.8851351351351298,1
0.33350941770194314,0.45653130885396753,0.7758330405658826,0.5418770705331168,0.7948506334189724,0.8851351351351227,1
0.33477781501916587,0.4576258150658508,0.7780323073560312,0.4849569540686141,0.7921385117342037,0.8783783783783594,1
0.3323959811384452,0.45653906438457575,0.7770382359653505,0.4414129494938589,0.7940756117113985,0.8783783783783576,1
0.33503544848168376,0.45761822127551566,0.7792773142834712,0.5199035223119723,0.792913230580619,0.878378378378379,1
0.3373462149729985,0.45654665952719736,0.7788869590348142,0.4967572946492131,0.7921385117342035,0.8783783783783576,1
0.3346628084482625,0.45761019492318117,0.7782438902536994,0.44757608653736375,0.7933008928649836,0.8783783783783488,1
0.3360341053421142,0.45655636661577187,0.7790995224260135,0.5308460467367765,0.7917508494498364,0.878378378378363,1
0.33705548439333405,0.45759445811015365,0.7807596492740954,0.49574767185383745,0.790976130603424,0.878378378378379,1
0.34093736252738616,0.4565991569977871,0.7806539665371517,0.4331969225738583,0.7878766494954486,0.8783783783783701,1
0.3410594987233788,0.4573053698472472,0.7811328694976041,0.5187030908543241,0.7902011088958496,0.8716216216216122,1
0.3416218770932588,0.45024518087257825,0.780711668116707,0.5097022441547766,0.7886513683418617,0.8716216216215908,1
0.3423822033079583,0.4504514096423818,0.7809970962005193,0.43695199115059463,0.7898140523338018,0.8716216216216122,1
0.33974836496055366,0.4503823558468404,0.7805994442794083,0.509884295650587,0.7878766494954479,0.8716216216216193,1
0.34047432595775684,0.4507526744051252,0.7814545157137878,0.5104719937405865,0.7886513683418617,0.8851351351351173,1
0.34142296416975854,0.4505653748480227,0.7801255491546186,0.42981549155910237,0.789426390049436,0.8851351351351173,1
0.34085883773393866,0.45370413407715054,0.7806533620439584,0.49447398055442887,0.7871016277878744,0.885135135135112,1
0.33873479355713243,0.4510871966019363,0.7800663915384568,0.560290227196922,0.7874892900722412,0.8851351351351173,1
0.3384261876967897,0.4526736101977726,0.7810113084403598,0.47787125544344483,0.7871016277878744,0.8783783783783647,1
0.3394875056719771,0.45526031653213295,0.780800193682928,0.4520257521683742,0.7867142683646684,0.8783783783783647,1
0.338065680548051,0.45717685813852743,0.7805367539810198,0.5199691305638237,0.7836147872566925,0.8783783783783594,1
0.3417449558432723,0.45449823867342376,0.7799670608076379,0.48589408639146175,0.7855521900950468,0.8783783783783665,1
0.3399899707582953,0.4529568318767081,0.7808177745863185,0.4537496459921274,0.7836147872566914,0.8783783783783523,1
0.33976558520805955,0.45404921897911754,0.7794623894847734,0.5257443700335918,0.7867142683646688,0.8783783783783665,1
0.3401852545309182,0.45469001127262976,0.7805951303125502,0.47745845780523616,0.7816776872794977,0.8783783783783594,1
0.3425325206090041,0.457007567992692,0.7809980816857348,0.45082886305022546,0.7847771683874731,0.8783783783783647,1
0.33864113478407315,0.4572929797621961,0.7808777484247329,0.5281268362183353,0.7840024495410589,0.8716216216215997,1
0.34163165201718604,0.45685498516857403,0.7808770676431536,0.464978078026768,0.784389808964266,0.8716216216216068,1
0.34195636780478206,0.4564216517855479,0.7810058494646333,0.46450220978066237,0.7832274278334865,0.871621621621621,1
0.3421562204267871,0.45446385956287966,0.7803569586055878,0.5426287235612222,0.782840068410279,0.8716216216216122,1
0.341704483231429,0.45654553541673515,0.7804661998371973,0.4568070917200385,0.7824527089870719,0.8783783783783647,1
0.3411330238748302,0.45610526991015987,0.7811301611205685,0.4577224150593945,0.7805153061487173,0.8783783783783647,1
0.3412808294489411,0.45689629357432193,0.7806976422722183,0.5477315192995448,0.781290327856291,0.878378378378363,1
0.33849575747177296,0.4571472084208306,0.7811543213000522,0.48512811509663395,0.7793529250179358,0.878378378378363,1
0.34042903747868464,0.45633799356144744,0.7803272496791587,0.44953178175454156,0.7809029684330848,0.8716216216216122,1
0.3395150685508689,0.4566015492603882,0.7804921442072922,0.5460082211548717,0.781290327856291,0.8716216216216015,1
0.3411171438311736,0.4573315562636565,0.7809695206841781,0.5174856415229171,0.7801279467255109,0.8716216216216139,1
0.3398679097174227,0.4557340009623612,0.7809404195091393,0.43869468737404205,0.7797405873023027,0.8716216216216051,1
0.34099931235968933,0.4575542872972208,0.7806498017549264,0.48554519438612154,0.7793529250179376,0.8716216216216193,1
0.33940440265521166,0.45659862904290544,0.779526964109676,0.5327454827643603,0.7789655655947312,0.8716216216216139,1
0.34156016390452265,0.45539202553808034,0.7809557528224799,0.44434353963184325,0.7766411061943288,0.8716216216216122,1
0.3419899682778306,0.45691964438461763,0.7808751528563429,0.4829266530789694,0.7774158250407419,0.8716216216216086,1
0.34212266080003984,0.4571838377239513,0.7809048732845149,0.5311895221380165,0.774316343932766,0.8783783783783647,1
0.34182973688273877,0.45503397635303344,0.7809243548818176,0.4513162295574373,0.7781908467483167,0.878378378378379,1
0.3422321896979987,0.45717991957092097,0.7808514326520483,0.46508123274988883,0.7743163439327667,0.8783783783783594,1
0.3417202004644661,0.4558902801737651,0.7810083969742658,0.5494328365892976,0.7762534439099618,0.8783783783783505,1
0.3412085379606519,0.45726037396191677,0.7801076588632462,0.4691369584952042,0.7758660844867558,0.8716216216216086,1
0.3413788784506265,0.45691620550359047,0.780851898755574,0.43398935254320886,0.7762534439099626,0.8716216216216086,1
0.34131043935520283,0.4572199561098125,0.7808710578526237,0.5325491718583858,0.7747040062171333,0.8716216216216139,1
0.34040132746002344,0.4569763834839616,0.7809859285396049,0.5340793630630077,0.7735416250863525,0.8716216216216015,1
0.33966793658746675,0.4571341169882806,0.7807563371378134,0.4344110811866818,0.7743163439327676,0.8783783783783736,1
0.3378377283862196,0.45710418920782336,0.7811616064759994,0.47068770741587107,0.77392898450956,0.8783783783783523,1
0.3374557336615815,0.4569228549079824,0.7802290247246796,0.5504539672953527,0.7735416250863538,0.8783783783783718,1
0.3383621495367829,0.45754208038165384,0.7800497731105458,0.5044791008666715,0.7685047411400241,0.8783783783783559,1
0.34331858993268105,0.4537760796640144,0.7831407937785264,0.42653890383164855,0.7731542656631472,0.8783783783783843,1
0.33490445165952554,0.45439692961151557,0.7766458878366737,0.4876942949940905,0.7719918845323646,0.8783783783783505,1
0.33539540083394065,0.45584005057156807,0.7778608025306961,0.5443446263423084,0.7719918845323659,0.8783783783783736,1
0.3370667387205156,0.4534757692865801,0.7796021953007423,0.4491655253342641,0.771604525109159,0.8783783783783559,1
0.3410307577954321,0.45625163216023074,0.7810133923817305,0.48298614717724125,0.7704421439783766,0.8783783783783523,1
0.3391898045874729,0.4551578747915764,0.7801288684964534,0.5495157765445874,0.7685047411400239,0.8783783783783701,1
0.3393723972161085,0.45631569969678704,0.7796656468133446,0.4589487058644088,0.7696671222708045,0.8783783783783701,1
0.34036667489884315,0.45251261951468585,0.7814968416470303,0.4308213503269147,0.7704421439783784,0.8783783783783701,1
0.3397597809332646,0.45291695299718854,0.7796960217756863,0.5391802360786504,0.7669550005860355,0.8783783783783488,1
0.3361436750458792,0.4534296323303671,0.7795267433594533,0.48989711947074227,0.77005478455517,0.8783783783783559,1
0.3366901897271287,0.4529066252723403,0.7798452721901595,0.41505496265060204,0.7681173817168179,0.8783783783783736,1
0.3381810395912794,0.45146799864035175,0.7774639593275249,0.5144314267017195,0.7692797628475974,0.8783783783783559,1
0.33524601826883316,0.45629208745536104,0.7786890363211567,0.5497922533801951,0.7692797628475978,0.8783783783783594,1
0.33294789180303563,0.454009651813476,0.7766220028466008,0.4464630759539866,0.7681173817168168,0.8783783783783559,1
0.3340148188876199,0.4547993652485835,0.776167175475953,0.4608839147106306,0.7685047411400239,0.8783783783783647,1
0.3322875491229936,0.4525851930179702,0.7742372820986249,0.5412353432147752,0.7681173817168168,0.8783783783783647,1
0.3362868443894849,0.4529960353084801,0.7774052092471434,0.49938958294768754,0.7681173817168165,0.8783783783783647,1
0.3369838065678556,0.4537368644794567,0.776842402602078,0.4446209349683063,0.7692797628475978,0.8783783783783647,1
0.3349765707920814,0.4524308830579789,0.777631760489666,0.5130112590370364,0.7603686789468784,0.8783783783783647,1
0.3393442234218144,0.45247664280014444,0.778949036876532,0.5082551647994761,0.7650179006088411,0.8783783783783576,1
0.33900931129058287,0.45195925633066636,0.7813177830388882,0.43307150415634177,0.7642431817624264,0.871621621621598,1
0.3385668352297892,0.4539496420500536,0.7799989386304682,0.5225525527808784,0.7634681600548541,0.8716216216216051,1
0.3385622570672171,0.4507565441868029,0.7792511675634073,0.5072358406994331,0.7638555194780612,0.8716216216216086,1
0.33894189247257983,0.4520094749480157,0.780380026122955,0.42285465905259717,0.7642431817624273,0.8716216216216139,1
0.32862092910485863,0.45093742861738567,0.7711414859058856,0.51998214668567,0.7642431817624287,0.8716216216216193,1
0.33173226059371597,0.44877937987479305,0.7719068522787897,0.5517361504375438,0.7650179006088407,0.871621621621598,1
0.33234785831895375,0.4491534253226026,0.7740874968060587,0.42936636670414324,0.7650179006088422,0.8716216216216175,1
0.3327219463314644,0.44891002702675575,0.7748234747260868,0.47823120872374314,0.7650179006088422,0.8716216216216122,1
0.3325865730877727,0.448980242467226,0.774528729787987,0.5533186218073591,0.7642431817624284,0.8716216216216193,1
0.33260064067753525,0.44935908544089,0.7740036274547157,0.4972435984776463,0.7626934412084407,0.8716216216216015,1
0.3326669561831594,0.45081294734600363,0.7740527861151908,0.43941478411958934,0.7630808006316467,0.8716216216216193,1
0.33254086619952034,0.44922338148117996,0.7744677205791868,0.5261693646831787,0.7623060817852347,0.8716216216216086,1
0.3327146455817539,0.4499135288237023,0.7741459494824143,0.5343529289925204,0.7611437006544528,0.8783783783783665,1
0.3325008534493244,0.4488021349144822,0.7736097624800929,0.4387131898093292,0.7611437006544541,0.8783783783783772,1
0.3327496381982626,0.4505169208797076,0.7738214464480232,0.47601566279535323,0.7630808006316467,0.8783783783783559,1
0.3324689750106153,0.4493394800310635,0.7736369319750509,0.5425267605186095,0.7630808006316474,0.8783783783783559,1
0.3327801892493096,0.4492027314720986,0.7740079144581175,0.4448785345813311,0.7626934412084405,0.8716216216216068,1
0.3324372942843021,0.4494524268212234,0.7742730671263718,0.4704312232171757,0.7626934412084403,0.8716216216216193,1
0.3328181383703453,0.45226925017042235,0.7748173983693755,0.5335921959089677,0.7607563412312455,0.8716216216216051,1
0.3323766144450193,0.4496699340941146,0.7745902258722968,0.45009941815361065,0.7619184195008655,0.871621621621598,1
0.33268916227907797,0.4512639218856442,0.7746573621337508,0.46067003833909953,0.7623060817852343,0.8851351351351351,1
0.3326460527333106,0.45068863684834126,0.7748003245759589,0.5517594098224684,0.763080800631647,0.8851351351351173,1
0.33269908789916386,0.4515045319187919,0.7746439748207419,0.4644628929926737,0.7607563412312468,0.8851351351351191,1
0.3325147209923181,0.45309408920488936,0.7747483182125973,0.4422993888068028,0.7595939601004651,0.8851351351351155,1
0.33271524236805633,0.45388253565229125,0.7743019137141293,0.5513851045808598,0.7611437006544526,0.8716216216216015,1
0.3325444490317098,0.4530973300260994,0.7728615500581628,0.510393465736978,0.7603686789468787,0.8716216216216068,1
0.33262442827735655,0.4518375397516302,0.7744976700096523,0.4049791920927615,0.7607563412312446,0.8716216216216051,1
0.33279661120810683,0.45486458412865016,0.773142363675086,0.506812813035647,0.7607563412312457,0.8716216216216068,1
0.33093439759537047,0.4562002824295414,0.7712059223431456,0.5576764090857131,0.7599813195236718,0.8783783783783594,1
0.3314072811690433,0.4510414845643197,0.7709593847314014,0.44710207892621645,0.7588189383928914,0.8783783783783523,1
0.3332962481301045,0.45188281857808815,0.7717967129483423,0.44703387529571254,0.7595939601004646,0.8783783783783559,1
0.33206318611963664,0.44941906657987496,0.7740316992763172,0.5494622488480834,0.7595939601004653,0.8783783783783718,1
0.33311910841209535,0.4493811442626486,0.773017758736616,0.4801597280218364,0.7588189383928907,0.8716216216216068,1
0.33214016892473847,0.44953456201227054,0.7739401661928347,0.43522857148347194,0.7584315789696845,0.8716216216216086,1
0.33308102174306015,0.45021094230810865,0.774675220632468,0.5326987782002721,0.7557194572849153,0.8716216216216122,1
0.33215877779503283,0.4523050201765669,0.7747732603925945,0.49164488445532945,0.7576565572621099,0.8716216216215926,1
0.33307381643330564,0.4546492295848197,0.7745901516060625,0.43790878588334553,0.7568818384156966,0.8716216216216051,1
0.3321584049812762,0.4521360417088759,0.77479281442826,0.53800316836732,0.75881893839289,0.8716216216215926,1
0.333079972381512,0.4501123246604488,0.7745909264824788,0.503558022940381,0.7561068167081217,0.8716216216215997,1
0.3321468983578517,0.4513767005523972,0.7747749008313958,0.4297848057626723,0.7588189383928914,0.8716216216216139,1
0.33309805553002503,0.4537223612623019,0.774650051560702,0.5160151888552064,0.7561068167081217,0.8716216216216015,1
0.3321170423351,0.4547568098718222,0.7744697384289727,0.5414121933901332,0.7584315789696843,0.8716216216216122,1
0.33316159526786127,0.4542494415295304,0.7721455333274685,0.43285900330783816,0.7584315789696838,0.8716216216216068,1
0.3318307319729434,0.4529904135965155,0.7733868497913005,0.475701073138818,0.755719457284916,0.8716216216216051,1
0.3312696280359089,0.4530788653320162,0.7730119322386982,0.5616634814392355,0.7564944789924901,0.8716216216216139,1
0.3318135908259685,0.45482574142375437,0.772305188074194,0.49894464286914864,0.7541697167309289,0.8716216216216122,1
0.33202233959336247,0.456041753089837,0.7734616941904924,0.41921557707437623,0.7553320978617075,0.8716216216216086,1
0.3320655028740018,0.4555406264752347,0.7726629597863276,0.5062128198983498,0.7533949978845154,0.8716216216216139,1
0.33316691557838324,0.454844455620412,0.7722410161524058,0.5398373397201455,0.7564944789924892,0.8783783783783576,1
0.3320605864599242,0.45355368681599106,0.7735057395969582,0.4383559415162896,0.7533949978845151,0.8783783783783594,1
0.3331839169657893,0.4569583008022627,0.7739546022123942,0.4841731976149837,0.7545570761541351,0.8783783783783647,1
0.33203657818435134,0.45478122041295893,0.7750887305425355,0.5320160409357377,0.7541697167309287,0.8783783783783452,1
0.33321388199869695,0.4555655939593674,0.7743511779882455,0.4407069689542132,0.7541697167309291,0.864864864864856,1
0.33199992299846753,0.4558310961601681,0.7750340640153974,0.47002204304503786,0.7537823573077227,0.8648648648648596,1
0.33325964170600547,0.456249308744291,0.7742649796673381,0.5556743894711524,0.7533949978845145,0.8648648648648543,1
0.3319396137348177,0.4535289088221476,0.7743411746302806,0.4661622754822537,0.7526199761769414,0.8648648648648543,1
0.3333485030783042,0.456578081521796,0.7733827893234881,0.4262953953372275,0.7520088023567431,0.8716216216216015,1
0.33176267463031756,0.4557930933675973,0.774099984224593,0.535778765851771,0.7558833051722937,0.8716216216216015,1
0.33219552087552634,0.45599994315265807,0.7720991483936337,0.5070766991998122,0.752783824064317,0.8716216216216068,1
0.33031094183126064,0.4557495392417591,0.7723557334482022,0.42180317440354265,0.7539459023339385,0.8716216216216086,1
0.33147303033247066,0.4567784523001403,0.7698304246692181,0.5020740981101087,0.7508464212259631,0.8716216216216175,1
0.33083682200083575,0.45691587246902166,0.7702628158501411,0.5656714017033191,0.7535585429107312,0.8716216216216122,1
0.3311981372735531,0.4557923222825137,0.7710580528488294,0.45166035487829737,0.7523961617799508,0.8716216216216015,1
0.32980044144555076,0.4563777615337681,0.7714065665529923,0.448193231207684,0.7523961617799504,0.8716216216216175,1
0.32950479322555676,0.45608905131310756,0.7681944316525924,0.5527342477286394,0.7516214429335366,0.8716216216216051,1
0.3296480827229021,0.4544938341870902,0.7705357955169778,0.48835577064524527,0.7500717023795493,0.8716216216216122,1
0.33297838079654407,0.4569382277010626,0.7690610470028332,0.4357197038663135,0.7504590618027567,0.8716216216216086,1
0.3287593177126348,0.4558106667709538,0.7711924487740938,0.5346825860177233,0.7469722212715757,0.8716216216216139,1
0.3327879940744947,0.4545170008774355,0.7736329427184759,0.4705662685906764,0.7492969835331358,0.8716216216216139,1
0.3321927988901679,0.4541648975560162,0.7731536665916693,0.4465718605283002,0.7473595806947813,0.8716216216216086,1
0.33312476118434753,0.4515768750637504,0.7742880144267125,0.5452734360136476,0.7481346024023552,0.8716216216216015,1
0.3320491231027641,0.4532452566865384,0.7730952031782107,0.46902039384694594,0.7469722212715746,0.8716216216216086,1
0.333269101190042,0.4559394649303707,0.7746490571209872,0.44359996819332614,0.7473595806947824,0.8716216216216193,1
0.33164212679722427,0.4569555081314411,0.7734296888585948,0.5499428932741169,0.7465848618483664,0.8716216216216086,1
0.3320682986400394,0.45668417568653674,0.7712072910392986,0.4818631157147154,0.746584861848367,0.8716216216216051,1
0.3326375587760453,0.45595115658237784,0.7713405636804193,0.4531777133328422,0.746972221271573,0.8716216216215926,1
0.3308250945398617,0.45546430735393284,0.7695437532434719,0.5543373128178617,0.7454224807175855,0.8716216216216086,1
0.32849478909373786,0.4572400282428106,0.7695579295777546,0.5143456146765628,0.7461975024251613,0.8716216216216086,1
0.329432771946839,0.45690569356136534,0.7683502354680273,0.41213936119079214,0.73496165626288,0.8716216216216175,1
0.3296851886131234,0.45739960645376887,0.7687898945784615,0.5192584260534727,0.7423229996096112,0.8716216216215997,1
0.33038432199923756,0.4558127398239522,0.7687618794300607,0.5355289797806912,0.7403858996324169,0.864864864864856,1
0.330683558180538,0.4549334903291611,0.7697749104969802,0.43784687906907926,0.7430977184560259,0.8648648648648489,1
0.33142875752957146,0.45699964778630675,0.7691622220431515,0.4930868315007581,0.7419356401864037,0.8648648648648383,1
0.3304179545899505,0.4543889446916032,0.7712000868569666,0.5336388691440596,0.7427103590328186,0.8648648648648471,1
0.33270924305446564,0.45576261336472634,0.7716995503355912,0.43500364003945613,0.7419356401864048,0.8716216216216122,1
0.33165785855574975,0.4570341067397917,0.773176942506062,0.5018695953522427,0.7423229996096112,0.8716216216216068,1
0.3326689692499501,0.45437165933909923,0.7720845673230788,0.5339919768716954,0.7415479779020377,0.871621621621598,1
0.3304085031089862,0.4531859772268638,0.7724216182525765,0.4296496614366503,0.741547977902038,0.8716216216216246,1
0.3333366384100422,0.45494654958311864,0.7724113177218901,0.4855211147480398,0.7411606184788317,0.8716216216216122,1
0.3317087797645275,0.45540185726220206,0.7718543978503586,0.5479470834967602,0.7376737779476485,0.8716216216215997,1
0.3336107245424895,0.4551466176518899,0.771152338282216,0.4369960460037602,0.7407732590556242,0.8716216216216086,1
0.3309080720146194,0.45489033675245427,0.7695030990775056,0.4740462523977327,0.7392235185016351,0.8716216216215997,1
0.33177283932776785,0.4557942520615804,0.7701831050936432,0.5679512605620122,0.7403858996324171,0.8716216216216086,1
0.32917683421580296,0.4569767663537236,0.7694098336239054,0.4842189288250307,0.7384484967940632,0.8716216216216086,1
0.3320458545576104,0.45711806598076316,0.7693231185940441,0.4176197236843883,0.7392235185016363,0.8716216216216015,1
0.33015565873238917,0.4570859137661543,0.768616899706581,0.5212068647577451,0.7388361590784298,0.8716216216216122,1
0.331107395314925,0.4559844024760782,0.7694387986061766,0.5409352023744245,0.7388361590784296,0.8716216216216068,1
0.3310863832500229,0.456026976915488,0.7704422257082117,0.4412860272710437,0.7388361590784291,0.871621621621621,1
0.33241921327267876,0.4573312446191853,0.7720856372029241,0.46955010279883547,0.7384484967940632,0.8716216216216122,1
0.3307792264448583,0.4558116263438218,0.7732709430125542,0.5330460898476327,0.7376737779476497,0.871621621621598,1
0.333936778367903,0.4549226288608579,0.7736344947433742,0.46010526960761455,0.7345742968396731,0.8648648648648471,1
0.33131123950160957,0.4558135277997193,0.7733095949773491,0.4600007053148435,0.7361240373936606,0.8648648648648471,1
0.3339551168560929,0.45470209390287347,0.7743547136701117,0.5409772746763682,0.7349616562628827,0.8648648648648614,1
0.331227333109519,0.4528801123297588,0.7734774806430765,0.4706709556003027,0.7353493185472475,0.8648648648648543,1
0.33407953262738116,0.45490811413910226,0.7729884225972963,0.43247094428640437,0.7345742968396736,0.8716216216216068,1
0.3310388284223159,0.4554280089633386,0.771870855889565,0.5355302130762646,0.7353493185472488,0.8716216216216175,1
0.3344480166810945,0.45635903344301476,0.7706912972264668,0.5069006512406643,0.73496165626288,0.8716216216216068,1
0.3290957237565375,0.4557923440868665,0.7706682232104187,0.43278602258811194,0.7357363751092947,0.8716216216216086,1
0.3298253054798272,0.45699858230809287,0.7700472250320812,0.5191444195702067,0.7353493185472475,0.8648648648648525,1
0.3288666549749161,0.4559260445999601,0.7695650561654551,0.5417338118761432,0.7349616562628809,0.8648648648648489,1
0.33198547269673107,0.4557527698306024,0.7690000677208315,0.4388965111648112,0.7345742968396731,0.8648648648648543,1
0.3309060523379225,0.45736887136660936,0.7697494455836031,0.4651124989537311,0.7306997940241253,0.8648648648648631,1
0.3319753594541673,0.45441375585874494,0.770418543310142,0.5394634503389927,0.735736375109294,0.8716216216216015,1
0.33085072655882447,0.4564803024602103,0.7730823481460585,0.4595948220338266,0.7322495345781121,0.8716216216216086,1
0.33451942580415006,0.455634521533088,0.7716370804798163,0.4575783462363794,0.7330245562856867,0.8716216216216068,1
0.3299835959371635,0.4565304852786176,0.7742884370797699,0.54190684812762,0.7326371968624785,0.8716216216216068,1
0.33385130079391045,0.4544772664182917,0.7714652345997397,0.4608458417399989,0.7314748157316993,0.8851351351351191,1
0.3309580753194717,0.456395760920026,0.7741880394043548,0.4521386524485403,0.7318621751549048,0.8851351351351049,1
0.3344549606251081,0.45611599531676006,0.7720406050737203,0.5527179572742564,0.7314748157316986,0.8851351351351369,1
0.33063844642930024,0.4547667243913072,0.7721345025503309,0.47250854869579545,0.7318621751549055,0.8851351351351173,1
0.33270765789096324,0.4540944984689387,0.7692451315190556,0.4341635968508275,0.730312434600918,0.8716216216216015,1
0.3288528628348645,0.458357180440379,0.7685723287055187,0.5522687908091476,0.7314748157316984,0.8716216216216122,1
0.3314719590078388,0.45602102836855374,0.7687865858314441,0.5234590309872225,0.7272129534929432,0.8716216216216086,1
0.3234420872344408,0.45808073739244265,0.7701965389036848,0.4212993892278135,0.729925075177712,0.8716216216216068,1
0.3295153892915653,0.4560842595249747,0.7674975196905082,0.4942167954636735,0.7276003129161486,0.8716216216216015,1
0.32600111143184624,0.45810919920674015,0.7692991157657778,0.5584188588903115,0.730699794024124,0.8716216216216122,1
0.32814211453137215,0.4559524690323492,0.7688259052901008,0.4630075096038315,0.7291500534701372,0.8716216216216015,1
0.3273252282783164,0.4571164901109849,0.7702095177151034,0.44514204221582554,0.7287626940469303,0.8716216216216086,1
0.33237636118302194,0.45614492301707493,0.7677611289212326,0.543718853132679,0.7283753346237225,0.8716216216216068,1
0.33020764722703033,0.4573252118982769,0.7712384481103309,0.48764747855396773,0.7279879752005145,0.871621621621598,1
0.3336142703444625,0.4546662274747981,0.7701856012684192,0.4292699380483449,0.7279879752005167,0.8716216216216015,1
0.33007640433227403,0.45729255961020165,0.7723719108478608,0.5283416495080402,0.727987975200517,0.8716216216216068,1
0.33415062759158615,0.4556144117143083,0.771744897822529,0.5192571256425561,0.7276003129161488,0.8716216216216015,1
0.32956649867478705,0.45624929806483483,0.7729168177247993,0.41744554378112314,0.7260505723621622,0.8716216216216122,1
0.3356680281637133,0.4539763682000734,0.7733634831372409,0.49778044604572985,0.7272129534929435,0.8716216216216051,1
0.3283340016228355,0.45866754579375335,0.7716406815459221,0.5620514921447762,0.7252758535157473,0.8716216216216086,1
0.3322539075149907,0.4553919485195901,0.7689921944451773,0.44537624472931825,0.7264382346465283,0.8716216216216015,1
0.3260573508070904,0.4589289678239864,0.7708559944230675,0.43060705808754607,0.7245011346693349,0.8716216216216086,1
0.333686046859046,0.4550231550560886,0.7677549207781159,0.5595832989710511,0.7264382346465283,0.8716216216216015,1
0.32233325538786134,0.45943786150484606,0.7699696332029664,0.5198411773950035,0.7260505723621633,0.8716216216216264,1
0.3312090187319456,0.45388464881950397,0.7667975675950313,0.41798718940739343,0.7241134723849671,0.8716216216216068,1
0.32428076949744844,0.45937187294310866,0.7703696627843817,0.4986272632021507,0.7264382346465292,0.8716216216216122,1
0.33243318570752767,0.4535866546391227,0.7663116720203251,0.5511428348324819,0.7248884940925417,0.8716216216216086,1
0.3225876955467086,0.4597902650781603,0.7717934060064275,0.4435488226219914,0.7248884940925406,0.8716216216216086,1
0.3380696790206978,0.4535408937843618,0.7653773517437511,0.46335571599736736,0.7210139912769937,0.8648648648648525,1
0.3222594882773748,0.46121619557383786,0.7726846797011461,0.55046157608688,0.7233384506773943,0.8648648648648596,1
0.3394916390107128,0.4522317678449614,0.765787216207242,0.4457854628635899,0.7221763724077737,0.8648648648648614,1
0.22615968116207585,0.46467690883232426,0.7733452243077152,0.45561126790210993,0.7229513941153469,0.8648648648648614,1
0.4224440996171586,0.28423047379593597,0.6854576697442376,0.556315420595544,0.7221763724077728,0.86486486486484,1
0.41649219381609137,0.2926686647753798,0.7997111132557453,0.4498005345463642,0.720626631853786,0.86486486486484,1
0.37272158498477864,0.3260937948398922,0.7753438213442975,0.4342282763991342,0.7194642507230065,0.8648648648648614,1
0.2915092293684808,0.3170009117590573,0.6982008443607194,0.5411226879887527,0.7183018695922259,0.8648648648648471,1
0.3555537851935546,0.3303376460406398,0.7205751799541503,0.5233551372830949,0.7194642507230029,0.8648648648648294,1
0.4868445496705936,0.4476572107660466,0.8781594704582776,0.5107037400216767,0.7194642507230047,0.8648648648648471,1
0.4598209038549266,0.4944907031491668,0.8801628912311126,0.6117249325697158,0.7229513941153469,0.864864864864856,1
0.4987245485118966,0.46912350637533135,0.8573503519350787,0.5153279391324075,0.7159774101918228,0.864864864864856,1
0.4635878853481401,0.47980098457165515,0.8640320734263074,0.3608335986666752,0.7163647696150302,0.8716216216216015,1
0.4807525436807901,0.4660016266525552,0.8561454187592092,0.4390548997757342,0.7140403102146287,0.8716216216216086,1
0.46060002436274117,0.4686462484797622,0.858858244754034,0.4773069623834598,0.7082287074218852,0.8716216216216051,1
0.4703021294217118,0.44940698829282133,0.8508467043632552,0.4837804190461975,0.714815029061042,0.871621621621598,1
0.4570323250784721,0.45488057893403855,0.8542199514528418,0.44453404765341825,0.7159774101918237,0.8648648648648543,1
0.4658195448747892,0.44594807267565917,0.8476199584471037,0.5113661591513166,0.7163647696150295,0.8648648648648347,1
0.45794661518223634,0.45326612958182017,0.8532671782967312,0.43100044314251096,0.7167521290382366,0.8648648648648489,1
0.46768209432006824,0.44702472293627477,0.8501689981153548,0.4996418438474281,0.7198516101462125,0.864864864864856,1
0.4605563764163549,0.4515610811331335,0.8523599504593541,0.4896867483219859,0.7186895318765918,0.8648648648648614,1
0.4672501913461217,0.4465917345310641,0.8488434814094176,0.4469958517826409,0.7198516101462125,0.8648648648648418,1
0.4612159343103767,0.4512554106181385,0.8518685011713718,0.5584315880872556,0.71520238848425,0.864864864864856,1
0.46616822501797167,0.44687094761311547,0.8478227897762348,0.4374813243245718,0.7186895318765918,0.8648648648648631,1
0.4606595845082157,0.45101167539123993,0.8505486703349168,0.4869661116494427,0.7167521290382382,0.8648648648648631,1
0.46676337795227824,0.4470835583877678,0.8480410268504909,0.5918555643466642,0.7194642507230038,0.86486486486484,1
0.4616298321585477,0.45082552069090237,0.8503461594441717,0.42744909249082486,0.7179145101690172,0.86486486486484,1
0.46626011440982296,0.44724682773680835,0.8482343128146929,0.5325253573845224,0.7175271507458092,0.8648648648648383,1
0.4620872539491892,0.4506829730540136,0.8501429347550482,0.6020752300798929,0.7167521290382388,0.8648648648648614,1
0.4655536111416746,0.44736872339315903,0.8496736705967554,0.4953100042089317,0.7183018695922234,0.8648648648648454,1
0.461202613047477,0.4505866431308693,0.8521994009173564,0.4007462947140412,0.7183018695922243,0.864864864864856,1
0.46613936479137524,0.44741203244505434,0.8480097042021923,0.5436779730346576,0.7155900507686164,0.8648648648648525,1
0.46216679348334927,0.451409589140601,0.851150200286971,0.5591713806299529,0.715977410191823,0.8648648648648596,1
0.4658320204199835,0.44775732520389333,0.8481221062967104,0.4649570108373852,0.7124902667994821,0.8648648648648543,1
0.4623495514900574,0.45027158555245494,0.8511854042413545,0.42658188921071094,0.7144276696378342,0.8648648648648471,1
0.4657661830700539,0.44774072887246696,0.847893388276338,0.5312576699837289,0.7109408291066543,0.864864864864856,1
0.4619356953202823,0.4502300705707045,0.8512798694582754,0.5208765303023318,0.7128779290838478,0.8648648648648596,1
0.4646031867897345,0.4477933219562917,0.8492172269317642,0.4447432859620888,0.7109408291066528,0.8648648648648631,1
0.46308568086740587,0.4501754332255351,0.849781000334713,0.45767453636608535,0.7113281885298604,0.8648648648648543,1
0.46388398844712825,0.4478471816767776,0.8486221515915349,0.5283801328376118,0.7082287074218847,0.8648648648648471,1
0.46307792716261253,0.4501233948342739,0.8498565171974268,0.46508695609378947,0.7105534696834457,0.8581081081080839,1
0.4649968899690522,0.4478970108131135,0.849277324224343,0.454723888025823,0.7105534696834455,0.8581081081080892,1
0.4631597227313766,0.45007588503126256,0.8501429849652392,0.5143673113187577,0.7101658073990795,0.8581081081080839,1
0.46490747427780715,0.4479422179625372,0.8497673285335983,0.48004656665732415,0.7090034262682994,0.8581081081080999,1
0.4632516051544655,0.4500329047135585,0.8502298090424465,0.44640122595860193,0.7070663262911041,0.86486486486484,1
0.46481538093130964,0.4479830737623197,0.849006028391019,0.512118716561389,0.7105534696834457,0.86486486486484,1
0.46334286645252126,0.44999406118961166,0.8512042054835111,0.48225890144390976,0.7078413479986783,0.864864864864856,1
0.46472542170541453,0.4480200185512588,0.8492027072133099,0.44438628042639416,0.7090034262682996,0.8648648648648525,1
0.46343134823107957,0.4499589048046882,0.8513100336078455,0.5116896885165483,0.7074536857143117,0.8648648648648543,1
0.46463843085288037,0.4480534913667967,0.848589651023302,0.5006891804617102,0.7090034262682989,0.8648648648648596,1
0.46351692938148403,0.44992701727858486,0.8502313256938763,0.43355605772678785,0.7078413479986765,0.8648648648648294,1
0.4645541182506486,0.44808388495758394,0.8493803909317806,0.491672256207913,0.7086160668450916,0.8648648648648543,1
0.46360015736355453,0.44989803318255056,0.8513674435250463,0.5237449277283853,0.7090034262682987,0.8716216216215926,1
0.46447175450217837,0.4481115373071115,0.8507359522658449,0.45500098831225977,0.7062916074446894,0.8716216216216051,1
0.46368191550462107,0.45088195280129517,0.8514272714169154,0.4639713792128368,0.705903945160324,0.8716216216216015,1
0.4643902953977398,0.4481367343283039,0.8493620323334196,0.5359440613659171,0.7035794857599209,0.8716216216216051,1
0.4637634499964641,0.44984757934467734,0.850813995973333,0.4882256852000016,0.7051292263139108,0.8716216216216086,1
0.4643082072635246,0.44815971558246553,0.8495128901583957,0.4415126843559966,0.7039668451831287,0.8716216216216086,1
0.46384673865175957,0.4498256289743404,0.8507491719148068,0.5146122915139256,0.7051292263139095,0.8716216216216193,1
0.4642227808637984,0.44818068025326846,0.8491925218733121,0.5200470800173994,0.7024171046291414,0.8716216216216086,1
0.4639357756651581,0.449805609042379,0.8494647646549558,0.4383704643921952,0.702417104629141,0.8581081081080946,1
0.46412757957052053,0.4481997924584451,0.8503359453642046,0.49900727035591824,0.7016420829215666,0.8581081081080804,1
0.4640421636705754,0.44978737125504764,0.8506755918508236,0.5365587048948195,0.7016420829215682,0.8581081081080875,1
0.46399819344841325,0.4482171856506918,0.8494496054668936,0.44359589571966246,0.701642082921569,0.8581081081080999,1
0.4642320003799351,0.44977079613178056,0.850455837442176,0.47202754374025685,0.7004800046519473,0.86486486486484,1
0.46350455100583626,0.448232966097775,0.8493936489802516,0.5588781840314754,0.7016420829215679,0.864864864864856,1
0.4631726102980606,0.44975578996302,0.849986123433792,0.48953586818604544,0.6969931641207658,0.864864864864856,1
0.4642338891923104,0.44824721550562246,0.8488009583322336,0.4226926903863322,0.6989302640979602,0.864864864864856,1
0.46402215652873247,0.4497422825876318,0.850918939155735,0.5246679726574224,0.6966055018363981,0.8648648648648471,1
0.464009790054989,0.448259992857259,0.8496716984209978,0.5587312399192923,0.6993176235211669,0.864864864864856,1
0.46416492273722326,0.44973022592339185,0.8507299669427903,0.45890014042839716,0.6966055018363977,0.8648648648648383,1
0.4638942680474158,0.44827133552391135,0.8484942018439602,0.4459305748360502,0.6954434235667781,0.8648648648648489,1
0.4642684453760603,0.4497195932068825,0.8503029656184161,0.5451966724072027,0.6954434235667775,0.8581081081080839,1
0.46379660368551295,0.448281259677612,0.8491917648593832,0.5241359944507723,0.6954434235667761,0.8581081081080768,1
0.46436328880490535,0.4497103789290388,0.849567725894261,0.42855515111330156,0.69505576128241,0.8581081081080839,1
0.4637028435558499,0.44828976000246284,0.8492458245993956,0.4895730729270128,0.6931186613052149,0.858108108108091,1
0.46445708377526695,0.4497025994867804,0.8506254527721411,0.5489182612418789,0.6935060207284236,0.8716216216216246,1
0.46360821660641915,0.4482968086654209,0.8493599825026754,0.45278958480751674,0.6931186613052156,0.8716216216215944,1
0.46455316550086123,0.4496962946098447,0.8503126734192152,0.46063722711235333,0.6938936830127891,0.871621621621598,1
0.463510152569698,0.44830235346601327,0.8484197360580124,0.5486442830599041,0.692343942458802,0.8716216216216068,1
0.46465369058092093,0.44969152966666887,0.8506912082705016,0.48993717314449947,0.6919562801744357,0.8648648648648418,1
0.46340670664787814,0.44830631503582263,0.8486717119807234,0.41555351866488727,0.691956280174435,0.8648648648648418,1
0.46476051953774683,0.4496883990061103,0.8498667942516954,0.5064276622971255,0.6904065396204484,0.8648648648648489,1
0.46329601278948573,0.4483085829007582,0.8485819275139919,0.5607888023986096,0.691181561328021,0.8648648648648471,1
0.4648755959998841,0.44968703055489107,0.8505662955833423,0.445070167856152,0.6892441584896676,0.8716216216216051,1
0.46317598266538723,0.44830901015070734,0.8511609463549161,0.43484113055563023,0.6919562801744357,0.8716216216215997,1
0.4650012259711124,0.4496875919638851,0.8507191784512302,0.5501847170020171,0.68885710192762,0.8716216216216139,1
0.46304400101164805,0.44830740638450783,0.848305210205338,0.5297824225610828,0.6892441584896678,0.8716216216216086,1
0.46514046456515445,0.4496902986735507,0.8504867018684625,0.42557350431992347,0.6873070585124725,0.8648648648648471,1
0.46289636342327667,0.4483035285258798,0.8502483398062091,0.47579467488741073,0.6880820802200454,0.8648648648648489,1
0.46529804378640144,0.44969542432679227,0.8513154641499139,0.5544183877952726,0.6873070585124736,0.8648648648648543,1
0.4627265291526392,0.4482970690781944,0.8476986959990103,0.4602352410137729,0.6869196990892663,0.8648648648648471,1
0.46548422112543736,0.44970331392873514,0.851371325489681,0.4504361936880868,0.6869196990892652,0.8716216216216086,1
0.4625145885542574,0.4482876415145284,0.8489907011067299,0.5491257373568071,0.6865323396660588,0.8716216216216086,1
0.46575724190497075,0.44971439985390754,0.8502220983129677,0.4676002957405777,0.6807207368733157,0.8716216216216122,1
0.46123256244968797,0.4482747630844156,0.8480444458578095,0.4346167256896334,0.6830454991348758,0.8716216216216068,1
0.46568829278608637,0.44972921974074076,0.8512073673266857,0.5561045381914985,0.6834328585580847,0.8716216216216175,1
0.4622129089304738,0.44825783716831885,0.8495202617388868,0.5019247786805704,0.6803333774501081,0.8716216216216051,1
0.4660621207947548,0.44974843215173,0.8505470851843968,0.4101173690401313,0.683432858558084,0.8716216216216086,1
0.46188961385739796,0.448236142667269,0.8481413676067204,0.5209024734054446,0.680720736873315,0.8716216216216015,1
0.4663940103269995,0.45078312842023166,0.8512655789851986,0.5583570061390968,0.6826578368505101,0.8648648648648631,1
0.4615334093043512,0.4482088533200025,0.8478033178621112,0.4423405994065811,0.6818831180040961,0.8648648648648418,1
0.4667840310067753,0.44980321982843413,0.8507568336392222,0.45215970630157315,0.6799460180269015,0.8648648648648471,1
0.4611007865477877,0.4481751558028079,0.8483338238430105,0.5670346407841537,0.6807207368733146,0.8648648648648525,1
0.46726912109960733,0.44984032283956504,0.8515792255295231,0.48210466705528715,0.6795583557425342,0.8648648648648471,1
0.46055114520478946,0.4481346828917017,0.8487367985479711,0.43123232775033427,0.6818831180040967,0.8648648648648596,1
0.4678988222242731,0.4498838406318389,0.8521732267273174,0.5272376988799066,0.6776212557653403,0.8648648648648471,1
0.45982080473759296,0.44808900675139207,0.8476134066931615,0.5182050547982756,0.6811080962965219,0.8648648648648418,1
0.46875797063866165,0.4499296903322957,0.8519165551925285,0.4215804561213776,0.6803333774501086,0.8648648648648489,1
0.4587929590859897,0.44804717808505523,0.8492481481984415,0.5239374051151402,0.6803333774501084,0.8648648648648294,1
0.4700133735216727,0.4499586345255797,0.8537012118434835,0.5194040820433683,0.6776212557653407,0.8648648648648471,1
0.45721834805561773,0.4480506050793621,0.8461666566415204,0.4200064205066214,0.6787836368961195,0.8648648648648347,1
0.472061261657685,0.4498763429249937,0.8548709164364913,0.5077935962575807,0.6780086151885489,0.8648648648648631,1
0.45440398971499074,0.4483399295684286,0.8462561770695924,0.5451791340715484,0.6760715152113519,0.8648648648648471,1
0.47635922125443997,0.448915618808933,0.8563568335593152,0.41905502726792315,0.676846234057767,0.8648648648648454,1
0.4444830747936661,0.4546860402720174,0.8493385251618719,0.467488631475115,0.6756841557881459,0.864864864864856,1
0.45939103860694325,0.45793632518745053,0.8843125142674998,0.5617102070442717,0.6764588746345594,0.8716216216216015,1
0.37517486989493265,0.3298360190196107,0.7776792760630514,0.5165186091819223,0.6756841557881457,0.871621621621598,1
0.4278214050197329,0.23126021773165084,0.7372494562304467,0.4133718168478336,0.676846234057767,0.8716216216216122,1
0.35778399393744187,0.27852585366939003,0.7020928666160177,0.4935958446492082,0.6667730718874281,0.8716216216216175,1
0.30439643916043224,0.5083420339704503,0.7203856620881883,0.5492751995540045,0.6520503851939647,0.871621621621598,1
0.38729689969418474,0.47527290184908183,0.8382860795409752,0.550291769792665,0.6481761852395753,0.8716216216215926,1
0.2651288054476627,0.444791371746102,0.7382879337468145,0.4838443584698847,0.6524380474783327,0.8716216216216086,1
0.2855316476518662,0.46713874427426166,0.7205780161015072,0.3993579093829574,0.6547625068787333,0.8716216216216051,1
0.25418149144476965,0.4548070306751125,0.707938879132402,0.4458346676310201,0.6520503851939663,0.8581081081080999,1
0.2750201526674748,0.4644293555980538,0.7116321375587498,0.4773168301145909,0.6539877880323179,0.8581081081080768,1
0.2513230906425189,0.45685379787667596,0.7008227636676719,0.4787994425055122,0.6520503851939659,0.8581081081081017,1
0.2714593638393783,0.46276764985892643,0.7070546994914653,0.47546117296477114,0.6520503851939647,0.8581081081080804,1
0.2565871734202393,0.4590974940169708,0.7039149317044409,0.4576975723421938,0.6508883069243443,0.8716216216216015,1
0.2707379114809051,0.46505479642525105,0.7074692496162994,0.4872885162168289,0.6508883069243443,0.8716216216216015,1
0.2595040659886608,0.4624642635473364,0.704538633770236,0.5585848968089313,0.6501132852167706,0.8716216216216193,1
0.2734129708753461,0.46606181442468664,0.7114728424834756,0.4471342906978401,0.6481761852395753,0.8716216216215926,1
0.2579198331405568,0.4633007432346703,0.7017559590504293,0.5016566878361919,0.6470138041087965,0.8716216216216086,1
0.2671805558532896,0.4657227850127097,0.7066367780150481,0.5415037926679287,0.6474014663931618,0.8716216216215997,1
0.26078443924537464,0.4636478887646728,0.704067289912376,0.45040974981730475,0.6470138041087956,0.8716216216216175,1
0.2684522773495551,0.4655204488378376,0.7081835143148116,0.5132841987671741,0.6435269635776133,0.8716216216215997,1
0.26261447397782045,0.4634802882074773,0.7047381256283038,0.5287161714367867,0.6458514229780157,0.8716216216216086,1
0.2689050037872992,0.4647078628412108,0.7075529294926075,0.4282708289713338,0.6454640635548066,0.871621621621598,1
0.2590587781179208,0.4641650050904908,0.7041526690704648,0.5462217911537128,0.6446893447083932,0.8716216216216086,1
0.2671960378201621,0.46499005952177114,0.7073892974740666,0.49817649595027946,0.64391432300082,0.8716216216216015,1
0.25974128926923223,0.46449065703110487,0.703955909413994,0.4298881392949255,0.6423645824468325,0.8716216216216086,1
0.2647966480119537,0.4658575695290819,0.7040075106032897,0.5393231962768583,0.6439143230008206,0.8716216216216015,1
0.2593083087967828,0.46447955721151224,0.701214898641693,0.5465316120994028,0.6415898636004191,0.8716216216216086,1
0.2632634891536615,0.46582532016004347,0.7030348883281026,0.41816232358009103,0.6408148418928452,0.8716216216216015,1
0.25781996450642575,0.4645282115211414,0.7025875593494362,0.4541257805862921,0.6412022013160521,0.86486486486484,1
0.2611068731190651,0.4657630464900719,0.7040018380030612,0.5683783317162695,0.6404274824696379,0.8648648648648614,1
0.25802362843126647,0.4646096827690991,0.7028981607913128,0.5049496462823955,0.6400401230464319,0.8648648648648489,1
0.2667942837098739,0.4656456947345016,0.706212747198449,0.4212097888031244,0.640040123046431,0.8648648648648454,1
0.2593810284965289,0.4648141143723802,0.7054872019064113,0.49856741703306456,0.6400401230464305,0.8716216216215908,1
0.26508308877604236,0.46504815242452685,0.7049238498558914,0.5421287467833472,0.6396524607620653,0.8716216216215944,1
0.26018710394147426,0.4622392474598829,0.7044715577833083,0.4387721148869112,0.6384903824924448,0.8716216216216175,1
0.26720785755657017,0.46471459076764576,0.707432630538761,0.46582320967407903,0.6388777419156504,0.8716216216215997,1
0.26329420057473074,0.46220609476973606,0.7054523714810668,0.5423238329730901,0.6377153607848713,0.8716216216216068,1
0.2661087701300484,0.4621872687773685,0.706871966314215,0.4544736053967072,0.6373280013616633,0.8716216216216086,1
0.2618485373167524,0.4618913791850046,0.7048512552578722,0.4372966168342326,0.6342285202536893,0.8716216216216139,1
0.2663343042100216,0.4660419532348328,0.7075720030601036,0.5323256406818561,0.6353905985233088,0.8716216216216051,1
0.2620996564402225,0.46243973784666903,0.7038830836163074,0.5204946480554272,0.6342285202536899,0.864864864864856,1
0.2639854505583593,0.4656198306983443,0.704124079806638,0.4158187712318132,0.6346158796768959,0.864864864864856,1
0.25914063978494095,0.4623285108433404,0.7033429326898449,0.4637626714660047,0.6326787796997,0.86486486486484,1
0.2635736512961845,0.46686227319453344,0.7053750384316803,0.5624216050930849,0.6330661391229064,0.8648648648648525,1
0.2586289301790209,0.4634032288579498,0.7023224008770981,0.5057594785077689,0.6295792985917263,0.871621621621621,1
0.265031656247843,0.4656892422555239,0.703704247335213,0.41936564639472385,0.6338411608304806,0.8716216216216051,1
0.26099237363063643,0.4638845324442485,0.702257082211258,0.4672199375864711,0.6338411608304813,0.8716216216216051,1
0.26357421938768644,0.4665891176078866,0.7051150894742926,0.5592083360141545,0.6326787796997,0.8716216216216015,1
0.25945476783602284,0.4635762331501546,0.7028819111526716,0.4664058673811156,0.632291420276494,0.871621621621598,1
0.263647848264036,0.46704047311301206,0.704672860174256,0.44044764927099933,0.6303540174381395,0.871621621621621,1
0.2578260025368787,0.46227546609593645,0.702398829783047,0.5368803695297044,0.6315163985689201,0.8716216216216122,1
0.26111118106264974,0.46854687545981605,0.6992383329191145,0.5028285008352948,0.6295792985917259,0.8716216216216122,1
0.2557217588335454,0.470215925469681,0.6980986038862318,0.4289175283310491,0.6307416797225076,0.8716216216216175,1
0.2600478066360987,0.4739528138935025,0.6958756142208259,0.5398050862776442,0.6311290391457125,0.8716216216215997,1
0.2562263320899135,0.47720046335381133,0.7003548152280434,0.48607789174406046,0.6319037579921272,0.8716216216215926,1
0.264062250628759,0.47988294982396595,0.7050934417345365,0.4416624907167396,0.6315163985689207,0.8716216216216193,1
0.2577485517059942,0.47799791580795115,0.6997315561935274,0.572621627188081,0.6303540174381392,0.8716216216216086,1
0.2620527032746468,0.48117606432122556,0.7025835369696213,0.47872162232801935,0.6299666580149321,0.8716216216216086,1
0.255603336978127,0.4808031500839578,0.6983598950061092,0.4297035146569405,0.621830595821788,0.8716216216216086,1
0.2588580110350829,0.4821529570726111,0.7009315678412379,0.5523080746115592,0.6264798174837509,0.8716216216216086,1
0.25613015901319625,0.4804429328824886,0.7001924924783589,0.48298075777005534,0.6241553580833485,0.8783783783783594,1
0.25854678400328923,0.4781002718100827,0.6974131925369088,0.43127894549780604,0.6280295580377386,0.8783783783783772,1
0.25312024336198824,0.47439126770120427,0.6951264208927956,0.5604305594208766,0.6245424146453975,0.8783783783783736,1
0.2567481693278092,0.47503770882454543,0.6943231358106154,0.5064241262988649,0.6276421986145313,0.8783783783783665,1
0.2546200769453979,0.4702589840916851,0.6940670811860948,0.425645924964654,0.6268671769069571,0.8716216216216068,1
0.25850245084141554,0.4738099979310673,0.6952916646393694,0.5469598139393558,0.6268671769069574,0.8716216216216139,1
0.25408260151471596,0.47195610773339514,0.6923565870089831,0.5015672484360856,0.6264798174837505,0.8716216216216175,1
0.2559999369144924,0.4727150645666699,0.693663574415393,0.4382984726865008,0.6253174363529712,0.8716216216216086,1
0.2545400195953995,0.4718679336465175,0.692669754330844,0.5565298616550978,0.6253174363529701,0.8648648648648471,1
0.25522618772394357,0.4746432314452034,0.6931490690560727,0.4794744689894155,0.6237676957989824,0.8648648648648525,1
0.2506448250992197,0.47175989831738085,0.6917501482909907,0.42158250916431494,0.6245424146453971,0.8648648648648631,1
0.25531266179934564,0.47482862240869167,0.6920113638989949,0.5547770731323559,0.6229926740914093,0.8648648648648525,1
0.25071300478099623,0.47155803560167664,0.6884721520041701,0.5027892856740271,0.6245424146453955,0.8716216216215926,1
0.2530089676391599,0.47504631062001823,0.6886977409742829,0.4277899155984234,0.6233803363757762,0.8716216216216139,1
0.24885447792475146,0.47131868942752936,0.6873317933337943,0.538611280097291,0.6229926740914089,0.8716216216216086,1
0.2513818501551054,0.4753171580529756,0.6880706352500388,0.5490041157181477,0.6229926740914082,0.8716216216216122,1
0.2538484018521451,0.47099884943710846,0.687370139244369,0.42763302011028714,0.6214432363985816,0.8648648648648525,1
0.2540965787347137,0.47572386883326,0.6880290791099639,0.47797378497421933,0.6233803363757751,0.8648648648648471,1
0.2508628524221187,0.4703910458338599,0.6875893797293295,0.5361557102459407,0.6210555741142141,0.864864864864856,1
0.25539546004939784,0.47736291593187824,0.6925383719638515,0.4491822294100164,0.621830595821786,0.8648648648648471,1
0.25501219041568746,0.472504362429992,0.6943879074169514,0.47594737349474825,0.6187311147138124,0.871621621621598,1
0.25307390019443365,0.4796445350362125,0.6906872019211325,0.5308290860235401,0.6210555741142141,0.8716216216216068,1
0.24719706085211646,0.4804699748054394,0.6872209135485673,0.4510426119068396,0.6187311147138126,0.8716216216216068,1
0.2553232853810985,0.4825871402706663,0.6929280632579345,0.48167982117756186,0.6206682146910074,0.8716216216216015,1
0.25620364567328013,0.47564225337756555,0.6938498393288894,0.5312800533089231,0.6191184741370199,0.8783783783783576,1
0.2546787810800065,0.4840594480766547,0.6926394694550151,0.4416058783615523,0.6179560930062382,0.8783783783783665,1
0.2565623744638219,0.4769917212259764,0.694807195955933,0.4523669123578157,0.6179560930062391,0.8783783783783594,1
0.255096877923091,0.4859362189938997,0.6913376060833835,0.5359592768984215,0.6167940147366171,0.8783783783783523,1
0.2534919805950464,0.47621903248814706,0.693876100032976,0.47627382292536724,0.6183437552906057,0.8648648648648543,1
0.2556913026359381,0.48710242246760294,0.6933475282042667,0.4438602660940751,0.6160189930290454,0.8648648648648543,1
0.2538629441012601,0.4746786919390262,0.6948237167929463,0.5227342752069005,0.6167940147366191,0.8648648648648543,1
0.25500753570563917,0.4891614034838931,0.6897691353115691,0.486790070773002,0.6160189930290452,0.8648648648648543,1
0.2518624381796325,0.47181290634637285,0.6929559700520944,0.4455563642105236,0.6144692524750566,0.8716216216216051,1
0.2588772665274761,0.49337101915502324,0.6853871147659649,0.5179810575371929,0.6133068713442766,0.8716216216216193,1
0.22673169412216576,0.466099896533246,0.7000521594093377,0.4813352039387968,0.6148566118982648,0.8716216216216246,1
0.23678457371871053,0.5487685320150639,0.7437006664220849,0.44424001743212443,0.6144692524750572,0.8716216216216086,1
0.5834957374432848,0.3160986892538966,0.774392994555708,0.5224259236945173,0.6148566118982621,0.8716216216215944,1
0.4677167569590161,0.27284877777168315,0.8690877366964349,0.4752527019041721,0.6229926740914089,0.8716216216215997,1
0.42183780039330676,0.33479497299039696,0.8122205836333096,0.4474322823196552,0.6361656202308827,0.8716216216216122,1
0.43931508788342866,0.300836535599753,0.8100390447941892,0.5899338740476574,0.6388777419156504,0.8716216216216086,1
0.4049843915899826,0.3143265978502463,0.7848273283847654,0.5751788838484255,0.6342285202536884,0.8716216216216086,1
0.4358046910838017,0.34276468016048633,0.8340354131541572,0.5741152306461466,0.640040123046431,0.8716216216216015,1
0.36993313364368335,0.3050311199062842,0.7720747168154634,0.466898753134012,0.6392651013388571,0.871621621621598,1
0.35468882479410796,0.27650833527998925,0.7223576594475339,0.42473160914189995,0.6381027202080771,0.8716216216216015,1
0.3863548468432587,0.26294277947588884,0.7390016060482517,0.4433438082073595,0.6381027202080771,0.8716216216216015,1
0.2959277894093524,0.2900477722036196,0.6338773555131162,0.4043875121665255,0.6369403390772956,0.8716216216216015,1
0.21601020390631276,0.3368162355500994,0.4216522560665509,0.400193133233329,0.6268671769069578,0.8716216216216175,1
0.31995450650238433,0.3154298878122511,0.3194871648190304,0.5831078097778338,0.6090453119666792,0.8716216216215997,1
0.3320219996403992,0.318799396613818,0.311981180914361,0.48818547278206015,0.5935476035656435,0.878378378378363,1
0.39182487809279853,0.26632179302323905,0.27950206566568336,0.3802493770507374,0.5924127828003942,0.878378378378379,1
0.43112093754858716,0.2714811115829686,0.2995169087701687,0.38333928201636014,0.58776356113843,0.8783783783783647,1
0.24749346065183153,0.3278502852816064,0.38881997962437254,0.5486793798364761,0.5850514394536628,0.878378378378363,1
0.30751277248992215,0.31322542806342946,0.3397646007171127,0.4852099118842736,0.6017112261243192,0.8716216216216086,1
0.32963135483922135,0.26837689173128126,0.3586786725118194,0.4909800318285826,0.6024859449707325,0.8716216216216015,1
0.20851962568900828,0.3088240069482022,0.48274465116023,0.4393291545191579,0.5997741261471234,0.871621621621598,1
0.30761255008701016,0.2985762886599498,0.6928473243098219,0.5774920193905801,0.6036483261015124,0.8716216216216015,1
0.3008785248114637,0.26542458972246674,0.6454622101837952,0.5738219346797547,0.6319310154964977,0.8783783783783718,1
0.38978792642971055,0.3267025748084601,0.7784150471716453,0.571042560801335,0.6389049994200198,0.878378378378363,1
0.33424917608776955,0.3303689994925594,0.7617284166032934,0.40751032221289535,0.6389049994200209,0.8783783783783576,1
0.3303469436459797,0.3066759739318131,0.724206699093415,0.5667034636404826,0.6404547399740086,0.8783783783783647,1
0.3224314458716651,0.32042408565599395,0.730358419395174,0.6827317569764816,0.6389049994200213,0.8648648648648525,1
0.3191085765830119,0.31390212077054014,0.7129415939726261,0.500419231888311,0.6361928777352528,0.8648648648648543,1
0.2904196262771408,0.3295085147260568,0.7042325339834166,0.42884377750752495,0.6365805400196198,0.8648648648648489,1
0.28854052059554314,0.32509622134745997,0.6868639802956409,0.399647116426681,0.6361928777352519,0.8648648648648614,1
0.2781600486420859,0.336947721595783,0.6845381711048412,0.4141304692295246,0.6354181588888377,0.8783783783783647,1
0.2801661416892477,0.3328278694539888,0.6780627066675354,0.5266026133131211,0.632318677780864,0.8783783783783718,1
0.27332273250816763,0.33866882096032946,0.6794597294651576,0.5396428172934111,0.6323186777808627,0.8783783783783523,1
0.27533062340846004,0.3317643683482956,0.678077260316784,0.4513042188416818,0.6319310154964966,0.8783783783783701,1
0.27554918044828924,0.33670481855699186,0.6784832477056228,0.5280884473534742,0.6319310154964963,0.871621621621598,1
0.27708012309343977,0.3319183735929462,0.6783345914274762,0.4669803498246335,0.6311562966500832,0.8716216216216051,1
0.27402038835372056,0.33791791689366113,0.6807791654967049,0.4664977775617091,0.6311562966500817,0.8716216216216051,1
0.2758066233023566,0.33323902641153613,0.6789554814937938,0.5112158811472068,0.6303812749425095,0.8716216216216122,1
0.27423317668550573,0.338401125312641,0.6807931848547739,0.4529153773619958,0.6303812749425086,0.8648648648648418,1
0.27838918579542815,0.33335228645901954,0.681406035335773,0.49983454177763165,0.6311562966500828,0.864864864864856,1
0.27408091652034905,0.3382793401931331,0.681386676421336,0.5077625701395898,0.6299939155193015,0.8648648648648471,1
0.27950612807347175,0.3326987000915134,0.6821889040927612,0.43622262009367774,0.6307689372268754,0.8648648648648418,1
0.27747811933936595,0.33446242944849813,0.6818458665637351,0.5151711312254419,0.6280568155421056,0.8716216216215926,1
0.278799311496034,0.3288817995479323,0.6807432746826428,0.5065868964856818,0.6280568155421062,0.8716216216216015,1
0.27712075264461944,0.33384667157180453,0.6796240771893174,0.43804315295727275,0.6226325721725723,0.8716216216216086,1
0.27674401867993514,0.3280524444662526,0.677639742288598,0.49856255571919134,0.6253446938573388,0.871621621621598,1
0.2742831663224653,0.333814283426267,0.6793106337756176,0.5201354193827676,0.6253446938573395,0.8783783783783718,1
0.27713423214724353,0.3286059075103661,0.6800970471176448,0.44174883227659223,0.625344693857339,0.8783783783783665,1
0.27484888416739617,0.33583944570460694,0.6813221819175935,0.4835833893345615,0.6249573344341326,0.8783783783783647,1
0.2782757193819413,0.3289481437790105,0.6802897982506964,0.5277718921136169,0.6237949533033531,0.8783783783783718,1
0.2750305577412292,0.333540091765789,0.6775506043494604,0.4548777352466188,0.6265070749881192,0.8716216216216086,1
0.2788309528192563,0.3310774600273462,0.6793632428810016,0.48361668087631876,0.6245699750109253,0.8716216216216122,1
0.27463030230997487,0.33295691311540476,0.6791808818164573,0.548096419721121,0.6241826155877193,0.8716216216216086,1
0.27784718760578453,0.32978108521935967,0.6794140184838272,0.4617441098285084,0.6230202344569378,0.8716216216216086,1
0.27468938356726436,0.33276298697821954,0.6811415059829733,0.4646037050073449,0.6210828316185832,0.8716216216216086,1
0.27834623849705764,0.3270846369934175,0.679876938842987,0.503325950146087,0.6222452127493643,0.8716216216216139,1
0.27571307934846134,0.33093696310108567,0.680058505758554,0.41445541620781284,0.6218578533261558,0.8716216216216086,1
0.27829497905405787,0.3267475904767875,0.6804153890113167,0.4896107933444822,0.621857853326157,0.8716216216216051,1
0.2769537239308537,0.3314595241185388,0.6791990314353507,0.5490985066846266,0.620308112772169,0.8716216216216015,1
0.2798856218419148,0.328509525683929,0.6791465001443999,0.4623662304706955,0.6218578533261578,0.8716216216216015,1
0.27565618118163604,0.3321173789835692,0.6795028743110879,0.490172887754819,0.6195330910645978,0.8716216216216175,1
0.2781472195622313,0.32835831644863656,0.6799213708875776,0.5550892137396793,0.6203081127721701,0.8716216216216086,1
0.27594857339471557,0.3298474261126475,0.6792517275585008,0.4559122282044338,0.6214704939029516,0.8716216216216086,1
0.2771134503468583,0.326550232150835,0.6800415762743369,0.4750894907572026,0.6187583722181824,0.8716216216216139,1
0.2753465217357297,0.3290275420457584,0.6776338316556955,0.5389477188335583,0.6187583722181815,0.8716216216216175,1
0.27734547782370045,0.3264622741656165,0.6794026329958969,0.4615033405259841,0.6168212722409876,0.8716216216216193,1
0.2765111089579084,0.32908095643500734,0.6768775718386726,0.4802462415221897,0.6187583722181829,0.871621621621621,1
0.2771063939281684,0.3274300742433085,0.6777227464932081,0.5296325709116272,0.6164336099566223,0.8716216216216139,1
0.2753374372239302,0.3291300265502003,0.6741397435453031,0.4423121526877276,0.6175959910874014,0.8716216216216139,1
0.2775208985471175,0.3263279220726852,0.6776069308312722,0.5005928333344138,0.6168212722409876,0.8716216216216015,1
0.2756405494331027,0.329513714669614,0.6745523049790108,0.5316173256523791,0.6175959910874014,0.8716216216216175,1
0.2763275527161868,0.32960517567067293,0.6780515284395051,0.43669329288175923,0.6172086316641938,0.8716216216216086,1
0.2760040712205709,0.3298444528903446,0.6761078235554014,0.49795637829182027,0.6168212722409876,0.8716216216216086,1
0.2765814698356903,0.3283687403864889,0.6756570918936973,0.5559109743412552,0.6160462505334137,0.8716216216216051,1
0.2760613597313174,0.33410486526583183,0.6765854284005438,0.45692193160030403,0.6148841722637939,0.8648648648648614,1
0.276333256926113,0.3299953597504172,0.6772220365315693,0.4838472287935252,0.6152712288258397,0.8648648648648418,1
0.274205834062507,0.330699120560493,0.6774919963694918,0.5204456759462773,0.6121720505790254,0.8648648648648525,1
0.28214896592509175,0.32705966837708345,0.681688008411119,0.47330094677125123,0.6148841722637934,0.8648648648648543,1
0.2818295248961996,0.3256878566694702,0.6807988690588531,0.44769194880773977,0.6125594100022322,0.864864864864856,1
0.2818572567909281,0.32223892197462733,0.6823797295566533,0.5146316645289603,0.6152712288258411,0.8648648648648543,1
0.282949860020425,0.3207193811104531,0.6778795550567323,0.5264481434707421,0.6148841722637939,0.864864864864856,1
0.28311280256660853,0.3194023335623568,0.68112280556274,0.4579952579965856,0.614884172263793,0.8648648648648347,1
0.2819169726053573,0.31949690823654164,0.6736568405496264,0.4887413608184711,0.6141091505562197,0.8783783783783665,1
0.27773050544174194,0.32146110963202823,0.680377095377155,0.5225948113653791,0.6125594100022336,0.8783783783783647,1
0.28102945302011306,0.32080029764283224,0.6723154077764378,0.46279551725888807,0.6133344317098051,0.8783783783783807,1
0.27298281226276844,0.331690270369019,0.6868904465726255,0.46278628306161,0.6121720505790254,0.8783783783783807,1
0.41910648307133946,0.3537854765329915,0.7666343272642554,0.5045759738433807,0.6129467694254376,0.8783783783783505,1
0.43317135593145695,0.4169799987879602,0.7808599150920361,0.4751748724182842,0.616433609956621,0.8783783783783718,1
0.2197930787962774,0.6179848203061264,0.7618853773523238,0.4691374415059282,0.6183710127949755,0.8783783783783718,1
0.28130362515024854,0.646252303738107,0.7006494115661794,0.5431954980798621,0.6172086316641952,0.8783783783783594,1
0.2711826418779024,0.6191439102863093,0.693132451410744,0.5466618362279428,0.6141091505562195,0.878378378378363,1
0.2739820906782072,0.6257739110460786,0.6886323425847615,0.4459088614267837,0.6133344317098055,0.8783783783783647,1
0.2687394616780513,0.6265383364522177,0.6905687059082081,0.4312383913461434,0.6133344317098051,0.8783783783783576,1
0.27442651113838845,0.6260896088693537,0.687261513468569,0.4283798771147212,0.6133344317098046,0.8783783783783523,1
0.274707976297735,0.6308618886339151,0.6909628338136632,0.4187448722095429,0.6129467694254387,0.8716216216216086,1
0.27840132737683965,0.6346967880218006,0.6908641533726737,0.5269262382723585,0.6160462505334137,0.8716216216216015,1
0.2766704706061375,0.6353929057733745,0.6932730350025001,0.5196891616008015,0.6137214882718527,0.8716216216216086,1
0.27974088870714364,0.6342419914667684,0.6936239343979164,0.4403666821466599,0.614496509979426,0.8716216216216068,1
0.27641759817602773,0.6356514738089274,0.6942935716757738,0.523875617559782,0.6121720505790245,0.8716216216216015,1
0.2795822861182753,0.6340601489991395,0.6927819932706741,0.5405909957935578,0.6141091505562211,0.8716216216216193,1
0.27680566833406417,0.6358012901190649,0.694284853026726,0.44948214446311163,0.6137214882718536,0.8716216216216086,1
0.2805729172425112,0.6339135359388696,0.6935526252904294,0.50804354840451,0.6121720505790262,0.8716216216216175,1
0.2777914063251573,0.6359824194690101,0.6943875839765662,0.5519009847321674,0.6125594100022316,0.8783783783783647,1
0.281867185463925,0.6335911246587139,0.6941661140664971,0.4654024439000788,0.6113970288714516,0.8783783783783559,1
0.2824153451748561,0.6383892639491431,0.6963063113104465,0.4898970346783257,0.6113970288714525,0.878378378378363,1
0.2875780609104637,0.6387069749907663,0.6984346562006165,0.5366844207692704,0.6102349506018301,0.8783783783783523,1
0.2839986745628913,0.6380058263111208,0.7000784904084034,0.458889134744763,0.6113970288714514,0.8851351351351227,1
0.2872570923250738,0.6408072452526145,0.7002096076220561,0.5015439275922523,0.6117843882946585,0.8851351351351262,1
0.28414258460116526,0.6406428876263588,0.6992266889134521,0.5390174254670839,0.6110096694482432,0.8851351351351049,1
0.2871734128527115,0.6397965220386935,0.6983451276980843,0.4575103253048267,0.6086849071866838,0.8851351351351173,1
0.28419809986591504,0.6440080659627061,0.6983850956520551,0.48787587321156933,0.6102349506018303,0.8716216216216175,1
0.28713367408496915,0.64196694492025,0.6993076525418986,0.5358198523337316,0.6102349506018308,0.8716216216216015,1
0.28422786863426575,0.6440032860051381,0.6981633303500014,0.46492327063975364,0.6082975477634749,0.8716216216216015,1
0.2871107815471461,0.6419139149064061,0.6991523054368316,0.4783596892622707,0.6102349506018303,0.8716216216216051,1
0.2842456931545678,0.6441185638227368,0.6962486028340195,0.5169014085531147,0.6082975477634764,0.8851351351351227,1
0.2870968908665289,0.6416134414064223,0.6968586400902372,0.47372194697460895,0.6102349506018301,0.8851351351351173,1
0.28425640248685224,0.6432330994741998,0.6972993902472645,0.4568593805194624,0.606360447786281,0.8851351351351084,1
0.28708883993246415,0.6416120729847393,0.6973672076100013,0.5167450443585436,0.6090725694710506,0.8851351351351315,1
0.284262173281957,0.6420544064944547,0.6990772752563743,0.48136034924210325,0.6086849071866827,0.8783783783783665,1
0.2870850654841839,0.6423797745951345,0.7007018060627856,0.46254220514747857,0.6086849071866842,0.8783783783783701,1
0.28426417212385113,0.6438229074736737,0.6996332811615688,0.513151211013645,0.6067478072094883,0.8783783783783701,1
0.2870846637631359,0.6416360082166007,0.7006402429925445,0.48117358575305763,0.6067478072094885,0.8783783783783647,1
0.2842631276513867,0.6430721432193187,0.6996199336912626,0.4582714140226196,0.6067478072094885,0.8783783783783718,1
0.28708701978657036,0.6424291346501583,0.7006820591050811,0.5242149207778825,0.6055854260787081,0.8783783783783647,1
0.28425958803135365,0.6436309314047919,0.6995575336102934,0.48229144164982174,0.6001614855703319,0.8783783783783807,1
0.28709161250033965,0.6422737013352358,0.7007723361536169,0.4480544672356061,0.6040356855247206,0.8783783783783665,1
0.28425408536428587,0.6437140460001386,0.6993942112902758,0.5032171318390887,0.6048107072322944,0.8716216216216086,1
0.2870978570141717,0.6422189286689173,0.7001098921632587,0.5120669565512748,0.605973088363075,0.8716216216216139,1
0.28424730854110136,0.6437542590390937,0.699131121630919,0.4451396865381915,0.605585426078707,0.8716216216216051,1
0.28710489164982245,0.6421873182587069,0.7002318034265986,0.48673221931751903,0.6051980666555012,0.8716216216216175,1
0.2842403910395087,0.6437803437164064,0.6975881136507569,0.5210798769359895,0.604810707232293,0.8648648648648489,1
0.28711116044898466,0.6421649770917444,0.70037461285085,0.4633945745189136,0.6032609666783073,0.864864864864856,1
0.28423555245127174,0.6438000592171792,0.6996057679947929,0.4784093596352432,0.604423347809087,0.864864864864856,1
0.28711337378539825,0.6421471450358612,0.6991066598560454,0.5261638741159343,0.6055854260787077,0.86486486486484,1
0.28423787866384587,0.6438165202899677,0.6996714924107239,0.46028877044102967,0.6036483261015153,0.8648648648648685,1
0.2871032555391758,0.6421316937978749,0.7006806175492226,0.48964831648936674,0.6059730883630741,0.8648648648648543,1
0.2842617712254383,0.6438312145406528,0.6995520322089004,0.5319518669990958,0.6044233478090877,0.8648648648648543,1
0.28705325759231226,0.6421175900992846,0.7007524983986803,0.4529469341771435,0.6044233478090866,0.8648648648648329,1
0.28436827358469696,0.6438448144009525,0.6995115146020436,0.470986917884014,0.6040356855247211,0.8783783783783701,1
0.28678603565325,0.6421044948254532,0.7007334993651404,0.5409130828854473,0.6044233478090868,0.8783783783783594,1
0.2857241472656422,0.6438572904630381,0.699946619903556,0.4626221285192911,0.6036483261015138,0.8783783783783559,1
0.2885826250099568,0.642092923718526,0.7013429631064755,0.4656777975848227,0.6020985855475247,0.8783783783783488,1
0.2836766038145049,0.6438673826623559,0.6991176012523976,0.5357920915540635,0.6013238667011125,0.8783783783783736,1
0.2888012240283635,0.642085421306928,0.7011465165078373,0.4756774351856528,0.6013238667011109,0.8783783783783594,1
0.28369893463628215,0.6438700698016262,0.6991098689473625,0.45933854650310063,0.6017112261243198,0.8783783783783647,1
0.28888571548728115,0.6420924345252507,0.7011982432706815,0.5371638557179649,0.6017112261243187,0.878378378378363,1
0.2834945869627785,0.6438406549561162,0.6990381082643777,0.48010723382596315,0.602098585547526,0.8648648648648418,1
0.28779945757301806,0.6421903614706115,0.7012830341624198,0.46562856176698136,0.6032609666783069,0.8648648648648471,1
0.28355615987073113,0.6432062905358789,0.6989428195709013,0.5294109644545473,0.6017112261243183,0.8648648648648454,1
0.2877980448161622,0.6414629218471559,0.7013878418051862,0.47512552960135435,0.6020985855475263,0.8648648648648489,1
0.28355028898985535,0.6442210587950556,0.6988290061377198,0.4556246357931528,0.6020985855475254,0.8648648648648543,1
0.2877530639385131,0.6417812187169925,0.7015097843802327,0.5389133859214585,0.6020985855475272,0.8648648648648596,1
0.28402910385673585,0.6441691030792317,0.6987017788805943,0.4836029138547471,0.6001614855703314,0.8648648648648489,1
0.28888609357895645,0.6417752713254964,0.7016317524887421,0.4460680549892749,0.5989991044395506,0.8648648648648543,1
0.282908107100715,0.6442020471399978,0.6986412485970015,0.5191452100763407,0.6005488449935374,0.8716216216215997,1
0.28994705399734777,0.641723755150166,0.701939969475902,0.5163916485564041,0.6005488449935386,0.8716216216216122,1
0.28375656728375265,0.6442702139173182,0.6980150896591272,0.44061533319752566,0.6005488449935377,0.8716216216216015,1
0.28848505155266246,0.6416375443658536,0.7023115149183253,0.49016178828666757,0.6001614855703303,0.8716216216216051,1
0.28265297376540266,0.6443793383993337,0.6978243525892878,0.52833731654404,0.6001614855703314,0.8716216216216139,1
0.2888911734844708,0.6404827932222772,0.7026382040032921,0.46406056935806483,0.5989991044395504,0.8716216216216068,1
0.28223671233211045,0.6446021777511101,0.6974049244055742,0.4659266319578051,0.5989991044395515,0.8716216216216086,1
0.28937545895069205,0.6407397052975374,0.7031605276640758,0.5376335647910367,0.5993864638627573,0.8716216216216122,1
0.28164894183585953,0.6438769605522922,0.6967494502928138,0.4729800912034294,0.5993864638627566,0.8783783783783559,1
0.29011025729518447,0.6404544146502799,0.7040038297912715,0.45537193372695156,0.5986117450163428,0.878378378378363,1
0.28069716947000634,0.6449575910753136,0.696388013770187,0.5167745035426756,0.5962869827547816,0.8783783783783647,1
0.29268016321586254,0.6413426642691276,0.7058924131471787,0.5124067036271569,0.5982243855931357,0.8783783783783594,1
