wrist_ACC_1,wrist_ACC_2,wrist_ACC_3,wrist_BVP_1,wrist_EDA_1,wrist_TEMP_1,label
0.7869143714346303,0.4520532957517008,0.6615734362812614,0.49775432816545956,0.012826875198422613,0.043478260869573404,1
0.6722493806953767,0.7417198469087445,0.7028443908075793,0.7205709094513977,0.012826875198423404,0.04347826086959472,1
0.8479828076157458,0.6832153804868439,0.5810613705632396,0.5167411489129933,0.011757899309907241,0.032608695652184494,1
0.8470778931387895,0.6315615572264519,0.38345607813089716,0.5824090590885853,0.012826875198422918,0.032608695652179165,1
0.8739114007000002,0.6068632044587026,0.3505115889250347,0.7473616682570245,0.012826875198423127,0.032608695652179165,1
0.8515878929246599,0.5848474926615428,0.22236888738572058,0.6256455971891174,0.012292178388223829,0.032608695652193376,1
0.8695502699389988,0.5619288825557064,0.2317295594528632,0.254871682450487,0.012292178388223648,0.021739130434795584,1
0.8461437809724344,0.5528220297200628,0.36132846510274896,0.5810396456826031,0.01282687519842296,0.02173913043478848,1
0.8773545058303285,0.5603486829401497,0.26961555975019885,0.5753847466509924,0.01015464434307524,0.021739130434795584,1
0.8563044537407976,0.5608563340046374,0.27937173064500764,0.26876548016839863,0.01175789930990745,0.021739130434800913,1
0.8774471072239198,0.5662162581926908,0.284504576619348,0.709384845985003,0.011223620231590972,0.021739130434779597,1
0.8592675242490366,0.5644464096153733,0.30865335336877214,0.8194630259625351,0.011757899309907185,0.021739130434790255,1
0.8782764165002523,0.5699654389924881,0.31090334178128165,0.51297869297815,0.01175789930990738,0.021739130434813347,1
0.8597426210585453,0.5686332346841271,0.32790651085807404,0.5178930482667022,0.011757899309907519,0.021739130434795584,1
0.8696001835671201,0.5750735336614281,0.3199396334742284,0.5173910123471684,0.011757899309906866,0.032608695652179165,1
0.8631474826079744,0.5676627448015712,0.30601111748235127,0.5845008009135688,0.012826875198422821,0.032608695652179165,1
0.8730692550296384,0.5735743143801303,0.283638823815794,0.611696473615668,0.01282687519842296,0.03260869565218805,1
0.8579686452885718,0.5673556015782207,0.3000839697930242,0.5547161412345487,0.01229217838822387,0.03260869565219515,1
0.8765265289701945,0.572700440193746,0.29607790368340875,0.5800429296897175,0.011757899309907185,0.021739130434793807,1
0.8597786967001972,0.5670876193573362,0.3152944974355789,0.574899372828226,0.01122362023159132,0.021739130434793807,1
0.8755288506301802,0.571197631410938,0.3086523440885175,0.5416427644957554,0.01175789930990745,0.021739130434804466,1
0.8620394061174053,0.5665174046727951,0.3221837351335429,0.4641553145564464,0.011223620231590972,0.021739130434779597,1
0.8718619769405338,0.5748011056045643,0.3161986186267489,0.4905227582440244,0.01175789930990738,0.010869565217404897,1
0.8626781434310151,0.5689417449024378,0.323499910000067,0.6371951895147678,0.011757899309907241,0.010869565217404897,1
0.8688528926477626,0.5758895597711646,0.3219239293506707,0.5316232167731363,0.011223620231590847,0.010869565217404897,1
0.8756652943020227,0.5590426818667344,0.3287022365640664,0.5638804859025484,0.011223620231590709,0.010869565217397792,1
0.8691991809688389,0.5620359733313645,0.33105654483419056,0.6103100570226906,0.011223620231590806,0.02173913043478315,1
0.8744942855852447,0.5522356370102859,0.35159975885889816,0.5782122994876179,0.012292178388223648,0.02173913043478848,1
0.867932482706461,0.5711730812653255,0.34462074248823393,0.5167035509210384,0.011757899309907172,0.021739130434795584,1
0.9098127533456746,0.566402358292312,0.377491725820315,0.6072812461123853,0.011223620231590847,0.021739130434818676,1
0.7873651882640169,0.637494322070086,0.6294359456105483,0.60937992160247,0.011223620231591083,0.010869565217399568,1
0.7242157564790881,0.5963788909440744,0.6543435100039949,0.556112721715792,0.01175789930990763,0.010869565217412003,1
0.8922981567910324,0.5504425286491167,0.5405812911006458,0.5786342038839584,0.011223620231590806,0.010869565217404897,1
0.8156359191792806,0.5535645369071746,0.5390539334250896,0.7043850285003329,0.010688923421391688,0.01086956521738891,1
0.9122719622097963,0.5470283963758154,0.4564417760983389,0.5986096777832511,0.010154644343075267,0.021739130434795584,1
0.7812942696982084,0.6510920496106956,0.23201294951624032,0.384890202535913,0.0096199475328759,0.021739130434779597,1
0.9965192964743106,0.6135887157028113,0.25103916450971486,0.3942813506455652,0.008550971644359986,0.021739130434795584,1
0.4675389822098859,0.655762872544709,0.8248725792037919,0.6086344474182427,0.010154644343075059,0.021739130434784926,1
0.45625331912259737,0.5625057434592211,0.9884387109049984,0.7566941640733791,0.01175789930990738,0.021739130434784926,1
0.49309471365669383,0.6173380138406799,0.8854700626662189,0.59241078509141,0.013361154276739298,0.02173913043477249,1
0.5954062043930074,0.6048622577256817,0.8318070243410618,0.49563998902829776,0.01336115427673916,0.021739130434779597,1
0.9106380067689595,0.5770320912621961,0.5363528519483518,0.6069930117618735,0.009619947532875706,0.02173913043477782,1
0.827937772536173,0.6135788186162054,0.457742340547523,0.5032965770287069,0.009085668454559631,0.02173913043478848,1
0.8716693472219839,0.7171049519299212,0.5762138145238501,0.5426274067439135,0.00855097164435989,0.02173913043477782,1
0.46769038434777177,0.6923008024343408,0.8328483092338521,0.5084994543504113,0.009619947532875706,0.02173913043478315,1
0.40020689038109625,0.618760615902172,0.9546480466226281,0.528975179187415,0.012826875198423154,0.02173913043480802,1
0.591224933513894,0.6905411080052171,0.8242535024617459,0.4932468120563851,0.0133611542767397,0.021739130434813347,1
0.4461139124469866,0.6362993148967622,0.921466203194546,0.625486237123024,0.013895851086938762,0.021739130434779597,1
0.5268563683414409,0.5789192223613556,0.9081190973904145,0.6036831545938827,0.012826875198423307,0.02173913043480802,1
0.6294907581952287,0.6184924717817938,0.8288436421471947,0.5844315791326598,0.012826875198423265,0.02173913043480269,1
0.7335142238862158,0.5904715110815186,0.7535262315705188,0.5630540178942429,0.010154644343075142,8.881784197001252e-15,1
0.6695779326480094,0.5916198507156439,0.7947811804707214,0.5814622528534402,0.00801669256604351,0.0,1
0.5561089076185182,0.580893017724607,0.8728852382497188,0.40380527595945737,0.008550971644359917,1.2434497875801753e-14,1
0.5913483560341981,0.587533786771934,0.8634691630987381,0.4339066506078455,0.011223620231590972,1.7763568394002505e-15,1
0.5532876632716408,0.5752466682496518,0.8795847115410724,0.6907108094897744,0.010688923421391508,0.021739130434800913,1
0.5356639417846993,0.582522087742318,0.8862035867496603,0.6266664512212444,0.010688923421391189,0.02173913043478315,1
0.6324222813447891,0.5882624710898209,0.8424111191345539,0.4835903960327076,0.01068892342139155,0.02173913043476894,1
0.5642911866658529,0.5824437111681678,0.8637019257321844,0.5080887590279202,0.010154644343075142,0.021739130434804466,1
0.5459552995777491,0.5842659213944438,0.8799139946950381,0.6198856544984243,0.011223620231590847,0.02173913043478848,1
0.6775582866943226,0.5893944167366781,0.7843800961534394,0.618214993488321,0.010154644343075128,0.02173913043478848,1
0.754131729087735,0.6030252969007388,0.7155069505103026,0.4556377488066481,0.007482413487727144,0.02173913043478848,1
0.7213173860795534,0.6040306904226171,0.7475924338792027,0.560181069521047,0.005344461710696247,0.02173913043478848,1
0.7045201026138215,0.6018562199354378,0.758525342252578,0.6772969500015841,0.005344461710696011,0.032608695652198705,1
0.7075268126358343,0.6025810739217485,0.757589365118412,0.4313160421222144,0.005878740789012377,0.03260869565218627,1
0.7297988911845965,0.605858193181055,0.7287242830165915,0.41429917879385986,0.005344461710696219,0.032608695652198705,1
0.7641254200856795,0.6046566368071753,0.675828616350203,0.8067707812107918,0.004810182632379673,0.032608695652179165,1
0.8737565305913009,0.6156502035147917,0.43778897595293026,0.6069566820807277,0.006413437599211466,0.021739130434784926,1
0.8529102439244414,0.6131537032667901,0.36111922312923356,0.4780681351116196,0.005878740789012349,0.021739130434804466,1
0.8716349390909817,0.6167755513543843,0.38169070458463616,0.6446943408144543,0.00534446171069608,0.021739130434793807,1
0.8468098758987546,0.6095486712421514,0.4051511024193292,0.6256147261514685,0.005878740789012668,0.021739130434793807,1
0.8808470900414527,0.6118207347428014,0.39563681082809754,0.5380733762440353,0.006413437599211647,0.02173913043478848,1
0.8363423407801114,0.6030601713364631,0.41988212334992736,0.5470363457212738,0.006947716677528096,0.021739130434779597,1
0.9219469116072887,0.6192328013377056,0.3952389577686751,0.5671719545713201,0.0069477166775282345,0.02173913043480802,1
0.603116804255094,0.5869217926822425,0.7711078722162388,0.533945780281403,0.006413437599211383,0.02173913043480269,1
0.530909733071886,0.5859291475551652,0.8754406880642073,0.5095208141056117,0.008550971644360056,0.021739130434784926,1
0.8248290168276764,0.606240589100095,0.6382785964909797,0.6096456698173782,0.008550971644360236,0.021739130434784926,1
0.7874687684402117,0.6042422525924542,0.6336545041503787,0.6185202400923414,0.008016692566043648,0.02173913043480802,1
0.8164716848974476,0.6062472209995494,0.6201724716696446,0.6118152177036557,0.007482413487727185,0.021739130434784926,1
0.8021986345702004,0.6063063971352365,0.6138759115680622,0.6219032331158739,0.0074824134877273935,0.02173913043480802,1
0.8041211260640833,0.6033020720490474,0.6240813373255418,0.48094249854563015,0.00855097164436,0.02173913043478315,1
0.8674496187212213,0.5927816746206438,0.5364494745114344,0.4623345605177621,0.008550971644359931,0.02173913043480269,1
0.8302807723876031,0.618812859770572,0.324284573771632,0.5182074453714289,0.006947716677527707,0.021739130434790255,1
0.816399688019966,0.696338854801827,0.2790148637069865,0.5515522119053858,0.01015464434307517,0.021739130434784926,1
0.8392634768794875,0.6161122120999633,0.2711207413759764,0.6184676209991644,0.011223620231590847,0.02173913043478848,1
1.0,0.6498155013453925,0.3160141916915394,0.4205934582154438,0.011223620231590847,0.021739130434790255,1
0.5802664188453115,0.6039376767386623,0.7820346067747791,0.4641290829359648,0.013895851086938693,0.021739130434800913,1
0.535373810846208,0.602006893134376,0.9064576139408103,0.7704620123144958,0.014964409243571508,0.010869565217404897,1
0.47827665790817997,0.617922308210949,0.865155348815627,0.7442715834651153,0.01656808194228647,0.010869565217399568,1
0.5317314885066813,0.5370685394048861,0.9071503932251259,0.48858099081533374,0.017102361020602877,0.010869565217392463,1
0.769453230883991,0.609096504181253,0.7243497587182489,0.7987694256324924,0.01496440924357155,0.01086956521739424,1
0.7887232262866741,0.590997881841491,0.6406663880050008,0.5806695492286147,0.013361154276739007,0.02173913043477782,1
0.8043353148588666,0.6101101951337682,0.6319081147607665,0.2863171291470553,0.012826875198422752,0.02173913043477782,1
0.7769789798512579,0.6075650805260219,0.6649976880557192,0.5030932371526265,0.013895851086938901,0.021739130434800913,1
0.7875424407494038,0.6129204812137423,0.6507530273895745,0.44981312384762295,0.013895851086938443,0.021739130434784926,1
0.7688399221891731,0.5986949979619924,0.6773141563498648,0.6694075908006271,0.013361154276739187,0.032608695652179165,1
0.773739803215612,0.6075628207065991,0.6784767528262478,0.5349127258965282,0.013361154276739395,0.03260869565218627,1
0.7509327555575047,0.5980095632445606,0.6970390383378144,0.4675439244175996,0.011757899309907116,0.032608695652193376,1
0.7891492609639172,0.6058534307800926,0.65279289180528,0.4765947417048286,0.011757899309907519,0.032608695652173836,1
0.8130365696269359,0.5968478145020419,0.6116949224756747,0.5924683380281677,0.011757899309907074,0.03260869565218094,1
0.8128768272609568,0.6028410007419203,0.6113044312721094,0.543310703852466,0.011757899309907074,0.03260869565218805,1
0.8083287119842122,0.5930152330360491,0.6105224347566518,0.48770957420913047,0.009085668454559284,0.032608695652184494,1
0.8142161079808818,0.5964714825842914,0.6102002915381037,0.5624471448536825,0.012292178388224065,0.03260869565218805,1
0.8077841531051917,0.5923616963627838,0.6104809800815477,0.7663725466169804,0.013361154276739534,0.010869565217410226,1
0.816702911665822,0.6004316918477014,0.608872859225479,0.48321257906843057,0.013361154276739187,0.010869565217392463,1
0.8138852887913666,0.599219349675816,0.6055344794379297,0.5462252404141495,0.013895851086938651,0.01086956521739424,1
0.8245086455397608,0.6044216422655267,0.5958318074790093,0.6831007566478958,0.014430130165255031,0.01086956521739424,1
0.8010459493813136,0.5961383722102961,0.6200049318237507,0.6325425966632494,0.012292178388223204,0.03260869565218094,1
0.8075147641330125,0.5986584403853694,0.6313179308041081,0.5307497980165667,0.013895851086938443,0.03260869565218094,1
0.7905185950558999,0.5947377168462982,0.6487509023103657,0.48473607221329873,0.01496440924357137,0.032608695652198705,1
0.7914329362950274,0.5986554874369343,0.6529882371563283,0.583910744153406,0.014430130165254795,0.03260869565217561,1
0.7835841901079514,0.5968650033787419,0.6559740230032941,0.6057281729168842,0.014964409243571675,0.032608695652193376,1
0.7952827388415851,0.5967374155648226,0.6402179774754153,0.6541328808830522,0.014964409243571647,0.032608695652193376,1
0.796832828340154,0.5947674508487304,0.6366729784613646,0.539316557770798,0.014964409243571744,0.03260869565218627,1
0.7980280077406174,0.5971808031114046,0.6385816637098328,0.43816988609162605,0.01496440924357148,0.032608695652179165,1
0.7843202758768397,0.5957834191035141,0.6533026062534221,0.5288137470754813,0.01496440924357148,0.03260869565220048,1
0.7944403459893723,0.6006339673483436,0.6493952015944546,0.6138203812714426,0.016568081942286303,0.03260869565217561,1
0.7549975403836395,0.602968476564277,0.689199175456279,0.515187136160707,0.016033385132086866,0.032608695652173836,1
0.7848041862384014,0.6105690169117213,0.6737367781408756,0.5170230387211755,0.016033385132087005,0.032608695652184494,1
0.7071622406242528,0.6032564559003221,0.7508478560290908,0.5796898439612681,0.01496440924357137,0.04347826086958406,1
0.5530414912064624,0.5916019228369915,0.8743418794541311,0.4970516839083392,0.015499106053770764,0.04347826086957696,1
0.5769689876540606,0.5924216454904295,0.8622228678640933,0.47320031735573653,0.017102361020602794,0.04347826086958939,1
0.5985833658715909,0.5915576826331491,0.8518218289109023,0.5282034579405426,0.01656808194228647,0.04347826086957163,1
0.6270833652549164,0.5923925933876373,0.8313757750067196,0.6859442254832773,0.016033385132087227,0.03260869565217028,1
0.6363592972243508,0.5941608192015095,0.8267375829281818,0.7307184511254559,0.01656808194228672,0.03260869565217561,1
0.6354727330772079,0.5947947452677252,0.8260459364687139,0.4563785133863652,0.016568081942286247,0.032608695652179165,1
0.6338981614579349,0.5953110521822299,0.8266262214428366,0.47840916143612633,0.01656808194228672,0.03260869565218094,1
0.6324550366061372,0.5913909841114967,0.8272127927097037,0.578987221889853,0.016033385132087477,0.03260869565218094,1
0.6394765664713224,0.5942053515175251,0.8232822930633104,0.5592883679940238,0.01603338513208745,0.03260869565219515,1
0.6348559824573743,0.5924364767747089,0.8231896485979486,0.5334895562508817,0.01603338513208709,0.03260869565220581,1
0.6382128105344793,0.5924384809813311,0.8232898394956538,0.6019227237094453,0.01549910605377107,0.03260869565218627,1
0.6341221595636073,0.5915075984294818,0.825502909881767,0.6119641208132751,0.01656808194228647,0.010869565217378252,1
0.6386860706720607,0.5915502584577073,0.8246834987390246,0.5573081630016097,0.016568081942286386,0.01086956521739424,1
0.6337028652009489,0.5906385653984303,0.8248654089196751,0.5019445094965341,0.016568081942286608,0.010869565217404897,1
0.6390899296176905,0.591200674862848,0.8229715017593515,0.5910088776655357,0.016568081942286664,0.010869565217417332,1
0.6332992613807162,0.5916046715537511,0.8271373967789595,0.6057590639503426,0.016568081942286747,0.021739130434795584,1
0.6395020898350395,0.5902244236167298,0.8260017809470719,0.5720135072884905,0.016568081942286497,0.021739130434790255,1
0.6328726309472631,0.5912478672335961,0.8297734867115336,0.5011861717157647,0.016568081942286608,0.021739130434800913,1
0.6399450566228941,0.5901496265595975,0.8263171050691469,0.5653498266272073,0.017102361020603016,0.021739130434790255,1
0.6324305001257657,0.5914922277188599,0.8298361146328708,0.611671956951006,0.017102361020602516,0.03260869565217028,1
0.6401335812321871,0.5891183917499938,0.8271407257804902,0.5811638132830478,0.017102361020602905,0.032608695652184494,1
0.6259761718244108,0.5838067357388382,0.8308154073678548,0.5198734130439965,0.01496440924357112,0.03260869565218094,1
0.6301529787908329,0.5819274484212454,0.8314447885859627,0.530829587095799,0.017102361020602794,0.03260869565218094,1
0.6202533052116257,0.5832487427254355,0.8354131489083372,0.6137789635317336,0.014430130165255073,0.032608695652179165,1
0.6308764754379848,0.5806875351076507,0.8293255174996638,0.5868309787597464,0.01656808194228608,0.03260869565217561,1
0.6199750019521747,0.5846763381922235,0.8378674831445464,0.5287638986356487,0.01496440924357148,0.03260869565218627,1
0.6352437142496855,0.5802974294694198,0.8232062650160656,0.5247859424392883,0.016568081942286553,0.03260869565218094,1
0.6167068180743349,0.5866985024763551,0.8520095020504749,0.6016477190110999,0.016568081942286247,0.04347826086957163,1
0.5938096046019439,0.5746551919464089,0.8568243952735937,0.571513674161424,0.01656808194228636,0.043478260869573404,1
0.5562493365961649,0.5948323997694493,0.919273877215264,0.5222524666355293,0.015499106053770653,0.04347826086955209,1
0.5550358224654726,0.6358589149744387,0.8685940875588897,0.537074820520901,0.01549910605377082,0.043478260869553864,1
0.6140895282884477,0.6080115708166942,0.7909133985315442,0.6168900586843199,0.014964409243571064,0.043478260869573404,1
0.6589767603469119,0.5242419452242321,0.8326412113607887,0.543010238401645,0.015499106053770847,0.04347826086957696,1
0.6418996797329506,0.46014100865164287,0.8037179200529934,0.5368422413855455,0.01603338513208709,0.04347826086959472,1
0.641144233574173,0.4240637127063962,0.8319811053951516,0.5671471191262731,0.016033385132086922,0.04347826086957873,1
0.57418639071441,0.3861177051368335,0.8530852328491968,0.656433614983738,0.01710236102060296,0.032608695652193376,1
0.5981104890440698,0.3954715790271816,0.8924716857741335,0.6338873702864607,0.01763664009891945,0.032608695652198705,1
0.4954574898397662,0.44273383831898044,0.8585049769426072,0.5163605981172136,0.01763664009891934,0.032608695652193376,1
0.4966255635597425,0.429490719862909,0.9334315425757826,0.49276179833250405,0.017636640098919285,0.03260869565217028,1
0.46290078443960514,0.42322426478531017,0.8820273026993393,0.548401231321956,0.01763664009891934,0.04347826086957163,1
0.6694663447861517,0.3603122342130006,0.9488136775848597,0.6698616883385167,0.018705615987434906,0.043478260869568075,1
0.677803787072112,0.5475866383900386,0.6447940128270471,0.6668091376408843,0.01496440924357137,0.0434782608695663,1
0.4476756790154445,0.7674820268077202,0.6932171237890452,0.45471550977425096,0.016033385132087033,0.04347826086956452,1
0.6355104192813892,0.7049232549233884,0.9364672359503301,0.4228402276808163,0.013895851086938527,0.054347826086951656,1
0.48186482920269447,0.6068095837471389,0.8918871757510172,0.4736815241778577,0.016033385132086977,0.054347826086951656,1
0.5853871117358258,0.5867606049897189,0.8930345165994005,0.5541023405569965,0.01710236102060271,0.054347826086962314,1
0.5348132547731119,0.589499613219587,0.8711495830813949,0.5854570546449435,0.016033385132087033,0.05434782608696942,1
0.6352465060510312,0.594319297000919,0.8467175186242589,0.6282465529138457,0.01549910605377057,0.032608695652173836,1
0.5948916676826248,0.603686697754797,0.8344068563381424,0.5085683391014354,0.014964409243571411,0.03260869565217028,1
0.6284916288458319,0.6054319516231147,0.8418121601848785,0.5522897578848377,0.014964409243571508,0.032608695652193376,1
0.601492073043657,0.6134510318740994,0.829932149607413,0.6084182840415813,0.016033385132086866,0.03260869565216851,1
0.6261865561990715,0.6066282704637692,0.838322161817417,0.5060353375185053,0.016568081942286303,0.0434782608695663,1
0.6037552700624518,0.6116452119318406,0.8350182769873057,0.521317955637928,0.01603338513208709,0.04347826086956452,1
0.6242158185333426,0.60317498541582,0.8370889094985053,0.5408898555382042,0.01603338513208706,0.043478260869568075,1
0.6057141839886744,0.6025403827411214,0.8374594717620134,0.5823404428923614,0.014964409243571578,0.04347826086957163,1
0.6245678052456347,0.589533332854127,0.8403084210021118,0.5454715847978124,0.016568081942286497,0.054347826086956985,1
0.6007877022935704,0.5805941585253428,0.8428308913619083,0.5560430276863463,0.016033385132086977,0.05434782608696409,1
0.6052642189686894,0.5685580293602089,0.8550157158251812,0.6263333784344971,0.016033385132087227,0.05434782608696942,1
0.586693703478941,0.5605780938249065,0.8570136819112116,0.5866219760377164,0.01656808194228644,0.05434782608696409,1
0.596382745668663,0.5492111263967407,0.8618946662557398,0.5103778050130895,0.013361154276739215,0.0434782608695663,1
0.5817924200355715,0.5530426974301828,0.8644075979653796,0.5306085775427041,0.014964409243571439,0.04347826086957696,1
0.5968150721724148,0.5540418991949939,0.8611373701514013,0.6342579653590763,0.014964409243571675,0.04347826086958406,1
0.5804973404943959,0.5612659351992634,0.8613289887833513,0.579310235859742,0.0149644092435713,0.043478260869573404,1
0.5974691279581406,0.5564593555770319,0.8598664433806612,0.5408818186933735,0.01496440924357148,0.04347826086957163,1
0.5861634717640849,0.56489706771533,0.8591875542418602,0.5519615938741728,0.01443013016525535,0.04347826086958406,1
0.5973326929053341,0.5622540777629892,0.8569123127499898,0.6159995285579659,0.01229217838822362,0.043478260869568075,1
0.5792067557792777,0.5663386542892492,0.8622324223765627,0.5496110340181841,0.012826875198423238,0.04347826086958584,1
0.5695977887834516,0.563460321377452,0.8799055744208544,0.5374363548866636,0.011757899309907047,0.054347826086937445,1
0.54185262333685,0.5677726790890903,0.886729133656464,0.5538042694958312,0.012292178388223648,0.05434782608695876,1
0.5486601319224862,0.5646845709637001,0.8880752872134838,0.6041418902214538,0.01229217838822351,0.05434782608695876,1
0.4898601104710157,0.5602725514936118,0.910147586013506,0.5467162167206011,0.01229217838822369,0.05434782608696409,1
0.4516181717872105,0.5531278873030016,0.9318960180078422,0.5459271379192103,0.012292178388223204,0.05434782608696409,1
0.4496233313911447,0.5589020685970015,0.9310647062153674,0.6129471506976377,0.012292178388223857,0.054347826086937445,1
0.45409218351176206,0.5570016945180101,0.9294458731743862,0.5878673096415172,0.012826875198422918,0.05434782608697475,1
0.4554657570693314,0.5547131382146434,0.9260180735654273,0.5396223546206188,0.01282687519842303,0.05434782608696942,1
0.459597236630364,0.5513511361402423,0.9251335028343872,0.5858677585934203,0.012292178388223274,0.04347826086956452,1
0.4568569585474724,0.5542485706341469,0.9256994227345132,0.5644643123798262,0.011757899309907241,0.043478260869553864,1
0.4573280866042283,0.555417421654678,0.9249143692559743,0.5367992832079899,0.012292178388223829,0.04347826086958939,1
0.4548220960780942,0.549865885622651,0.9259001700778455,0.529378359266502,0.01229217838822344,0.043478260869573404,1
0.4605334741412071,0.5551749250767796,0.9272333063720197,0.5571555596472295,0.012292178388223524,0.04347826086958584,1
0.4561536400063211,0.5578606367162283,0.9259632853631949,0.570281771968715,0.011757899309907394,0.04347826086959827,1
0.46292918613934797,0.5627414166782594,0.9253324389455064,0.5243396467093807,0.01229217838822376,0.04347826086958939,1
0.458442105691783,0.563101652822464,0.9260535313471396,0.5455200246288762,0.011757899309906963,0.04347826086957163,1
0.4584595600312653,0.5632995597440058,0.923681186365769,0.5824106271922128,0.0112236202315905,0.04347826086958939,1
0.46155575730009574,0.5614796449196372,0.9255139861353776,0.5361288534924711,0.012292178388223732,0.0434782608695663,1
0.47092016379564455,0.557894867166979,0.9236335987012818,0.5538196630303217,0.009085668454559395,0.04347826086957873,1
0.4714362295411355,0.5596054297147106,0.9256420979272861,0.5698659791893961,0.011223620231590473,0.043478260869553864,1
0.472785055168436,0.5592862155192356,0.9234582675838885,0.5455592405997722,0.01015464434307528,0.03260869565218627,1
0.4723175202405751,0.5581536170755735,0.9258910453135474,0.53448943737595,0.010688923421391897,0.03260869565218094,1
0.472745884417533,0.5615845896318843,0.9228440372913562,0.5841027927521807,0.010688923421391758,0.032608695652184494,1
0.47843174267410804,0.564473700083871,0.9222615885317831,0.5534921494827586,0.011223620231590362,0.032608695652173836,1
0.47978366012309287,0.5672421350213923,0.9185590048623935,0.5223209189824238,0.010688923421391688,0.03260869565218094,1
0.4849226257394883,0.5648423723887375,0.9195278937364004,0.572716485283646,0.011223620231590944,0.03260869565218094,1
0.48090451796400147,0.5588074497172156,0.9158240617571036,0.5884549552659288,0.01068892342139123,0.03260869565218805,1
0.4900712840988022,0.5582579819548293,0.9190612948002224,0.5303284009642704,0.010688923421391619,0.032608695652184494,1
0.49313750186024363,0.5599358559185991,0.9105105177976329,0.5734560223112563,0.011757899309907185,0.032608695652179165,1
0.49851776600273234,0.5649989526413325,0.9164508233491258,0.5895354356294906,0.01015464434307535,0.03260869565218627,1
0.4891924608585874,0.5661029761635347,0.9126121960839444,0.526792110130191,0.0106889234213913,0.03260869565218094,1
0.5010639391045312,0.5614859416941325,0.9176487221864222,0.5142551034551694,0.008016692566043856,0.03260869565218094,1
0.4848177966989344,0.5667749079763188,0.91245082582292,0.6290891559059777,0.010688923421391827,0.03260869565217561,1
0.5087276577446187,0.5634780990370272,0.9159491978147392,0.5982037229533932,0.010688923421391258,0.03260869565218627,1
0.4727842946479537,0.5673356817082863,0.9157814617561206,0.5047211648576004,0.0106889234213913,0.03260869565218627,1
0.7557774528015349,0.5294710265033961,0.7345308088985785,0.5461861625676393,0.011223620231590833,0.032608695652193376,1
0.831559073368761,0.5846817874042674,0.23589797967323994,0.6123687184841722,0.009085668454559853,0.04347826086956452,1
0.9352160243636307,0.6449547167143748,0.32045124711572737,0.5496553540247557,0.006947716677527818,0.04347826086957163,1
0.7836617096141674,0.5901168470293103,0.6334658544561061,0.4944573038636857,0.0042754858221803055,0.04347826086957696,1
0.5426322248532571,0.5276858025762009,0.8394686579519527,0.4950273938618978,0.009619947532875872,0.04347826086956097,1
0.599855796390958,0.5635533518725401,0.8948042603376332,0.5307805388538105,0.01229217838822376,0.043478260869553864,1
0.5994448217369613,0.6061417571670221,0.8307632263010298,0.6177039481127238,0.012292178388223551,0.04347826086957873,1
0.7241854462197614,0.6093693405432253,0.7624375329568001,0.7434059662410727,0.010688923421391508,0.04347826086957163,1
0.7640652465786903,0.6278061220743902,0.6584561457891087,0.7925562585701178,0.01015464434307535,0.0434782608695663,1
0.7801399460877017,0.6288517645213114,0.6755689890130204,0.5037732193447743,0.010154644343075406,0.03260869565218627,1
0.7449266352784694,0.6394277300420814,0.6791923835051736,0.45756505539116377,0.010688923421391064,0.03260869565218627,1
0.7458163596323855,0.6352804486766389,0.7107595376783347,0.614001715112352,0.010688923421391883,0.03260869565220936,1
0.7270956346987307,0.6422995625183889,0.7002900738254388,0.5309819205361925,0.01015464434307542,0.03260869565217561,1
0.7419297014076753,0.631928915851424,0.7190278899417468,0.42822835802805126,0.010154644343074865,0.043478260869573404,1
0.7192490144923862,0.627547728855887,0.7177314045473323,0.40152113811320267,0.010154644343075309,0.0434782608695663,1
0.7293873174408558,0.6151523594255034,0.7397603974725551,0.5112192591676267,0.010154644343075198,0.043478260869568075,1
0.7113393062069937,0.6173190930353691,0.7370774998860246,0.5754774097516177,0.009619947532875664,0.04347826086955742,1
0.7288821722054359,0.6126037631326419,0.746137922757258,0.5778211338809686,0.009085668454559145,0.04347826086955742,1
0.7167905700715609,0.615005371045749,0.7364913111917262,0.5182411990410173,0.009085668454559354,0.04347826086956097,1
0.7291555899139672,0.6084710089274886,0.7460397964432905,0.624941789442809,0.00961994753287615,0.04347826086957696,1
0.7116141105685907,0.6123695955630819,0.7386726760898158,0.6166310245716444,0.009619947532876011,0.04347826086958939,1
0.7241799438023404,0.608475062383923,0.7457253122642993,0.5927702945293705,0.009619947532875484,0.04347826086956452,1
0.7118143054582693,0.6100509964979475,0.7393716666687897,0.5073395759083807,0.0096199475328759,0.04347826086959827,1
0.71851586050354,0.6072768036697923,0.7513398428216574,0.5811833742252365,0.009619947532875428,0.04347826086955742,1
0.7057420152144356,0.608152677666333,0.7470403895906084,0.6126079447993763,0.009085668454559437,0.04347826086957873,1
0.7177840568822424,0.6179232757778169,0.7473466876540528,0.5641065469702454,0.009619947532875706,0.03260869565218805,1
0.7155785080065185,0.6341303480116951,0.7282981890353335,0.5225017953381672,0.01015464434307517,0.03260869565217561,1
0.7208204970808678,0.637025171386545,0.7371206380717827,0.5866972235903986,0.008550971644359986,0.03260869565218627,1
0.699503334074373,0.6467492226540797,0.7379150456833289,0.590588005255605,0.009619947532875775,0.03260869565218094,1
0.7080774803726133,0.6450489461496299,0.7435170839062941,0.5492479206241764,0.00801669256604387,0.04347826086957873,1
0.6952954187789917,0.6484145554337167,0.7429341552028497,0.5209081699545013,0.009085668454559576,0.04347826086955209,1
0.7055078391654115,0.645213955912808,0.7499413866005694,0.6008692766932399,0.00855097164435989,0.043478260869568075,1
0.6878694071513463,0.648570862478881,0.7509613158158722,0.593109119245518,0.008550971644359792,0.043478260869573404,1
0.698665673387828,0.6409002569009157,0.7545257015976252,0.536364618599774,0.008550971644360125,0.032608695652204034,1
0.6855948918028071,0.6398359657896528,0.7499611360376985,0.5323958787220331,0.009085668454559673,0.032608695652193376,1
0.6995064970778613,0.6377122103964619,0.7542685662127848,0.6149209694447947,0.008550971644359931,0.032608695652198705,1
0.6873701730192315,0.6398081489564003,0.7510687705939569,0.5793643446024707,0.008550971644360514,0.032608695652198705,1
0.699164412899774,0.6340079037079733,0.7533929110649908,0.5366297328121281,0.009085668454559145,0.04347826086956097,1
0.6886722522378286,0.636075578733528,0.7549380563439365,0.512262323588049,0.009085668454559437,0.043478260869553864,1
0.6980110952645369,0.6310079374931657,0.7608966387909039,0.5956046555570538,0.008550971644359986,0.04347826086956097,1
0.6834849572132166,0.6272085026412082,0.7690468854234682,0.5720722782158467,0.0074824134877271575,0.043478260869568075,1
0.6834918250679785,0.6141751027030798,0.7832149166003972,0.5290392913235507,0.008550971644360347,0.04347826086958939,1
0.6574686711229787,0.6056282828384016,0.794873087445783,0.5534561861717603,0.006413437599211577,0.04347826086958406,1
0.6523678183491544,0.593383605185408,0.8163501847163984,0.6043736952116006,0.008016692566043135,0.04347826086955742,1
0.6336511786783265,0.584860622684432,0.822039756812536,0.5540954853260402,0.008550971644360236,0.043478260869573404,1
0.6275240966353496,0.5833405425424556,0.8378578598113708,0.5163338757293213,0.008016692566043787,0.043478260869573404,1
0.6071522162480614,0.5776448468891413,0.8418485213358726,0.547322417367104,0.008550971644360236,0.043478260869573404,1
0.6019713813178627,0.5688985503336347,0.8565091415175318,0.6232453019442314,0.009085668454559437,0.04347826086958406,1
0.5803771019873647,0.5679711831557136,0.8625147984612219,0.551197807185273,0.009619947532875775,0.04347826086957696,1
0.5875166486402212,0.5694627352549294,0.8610216944786294,0.5180810526831977,0.009619947532875803,0.054347826086951656,1
0.587833666084967,0.5765605714402968,0.8560166518252954,0.5459991162312718,0.009619947532875636,0.0543478260869481,1
0.5880623851018909,0.581470849552155,0.8625029119475822,0.6010406394371118,0.008016692566044106,0.05434782608696409,1
0.5861438960435414,0.5838973791296427,0.8554512076838887,0.5692759998664935,0.009085668454559326,0.05434782608695343,1
0.5956556032590102,0.5813020441991501,0.85902449339778,0.5581532857008435,0.009085668454559506,0.04347826086957163,1
0.5914800723744233,0.5867736794227031,0.8514236839492548,0.5471047760637193,0.009619947532875636,0.04347826086957873,1
0.6026729107264781,0.585971165374059,0.8546008582763996,0.5636530034534806,0.009085668454559326,0.04347826086957163,1
0.5916400747838926,0.5878199608508792,0.8519088472499707,0.5127228195640043,0.009619947532875567,0.043478260869573404,1
0.5981554533505195,0.5842245477897936,0.8547278021040965,0.5705431559318535,0.009085668454559326,0.054347826086962314,1
0.588889174679704,0.5838632183403962,0.852104116805175,0.5976080261576475,0.0096199475328759,0.054347826086962314,1
0.5995041519735599,0.5854358254254671,0.8548054671314884,0.5709324366008246,0.010154644343075059,0.054347826086956985,1
0.5896435111697358,0.5872741623967284,0.8518756956006643,0.5040588661061631,0.009085668454559298,0.054347826086962314,1
0.5969551712950834,0.5872070854124641,0.8579808744227952,0.5518418923123901,0.009085668454559354,0.05434782608698008,1
0.5878578238180968,0.5832211663408502,0.851690675393268,0.5849572952421871,0.008016692566043926,0.054347826086962314,1
0.5982318297425737,0.5834683223506789,0.857889606384902,0.5817394278509211,0.009085668454559423,0.054347826086981854,1
0.5903092475885721,0.5824370295761777,0.8550783462873386,0.5253953597127293,0.009085668454559256,0.05434782608696409,1
0.5963925760861144,0.5829343524652095,0.8595718230843299,0.5293898994089833,0.008550971644360028,0.04347826086957696,1
0.5904717730259166,0.5824756789749004,0.8549641621730102,0.5891558640798831,0.009619947532876039,0.04347826086957163,1
0.5979226144258023,0.5833118028301906,0.8574671853278049,0.5918130252840617,0.006413437599211785,0.043478260869568075,1
0.5888923522561673,0.5845257891677823,0.8555436622244229,0.5410372239333804,0.008550971644359862,0.04347826086957163,1
0.599257961808724,0.5844249628098585,0.8581418057123447,0.5257527253724161,0.009085668454559714,0.05434782608698008,1
0.5889064739830198,0.5863882259072161,0.8518770690097688,0.5782997307455979,0.00908566845455891,0.05434782608694455,1
0.5974219054851675,0.5853641552685314,0.8590823873430022,0.5961909416184206,0.009085668454559284,0.05434782608695876,1
0.5888567830383471,0.585022764705953,0.8538245054248397,0.5242867958090159,0.00855097164436007,0.05434782608697475,1
0.5978040693194564,0.5849926612719538,0.8572392592141065,0.5532090734399612,0.007482413487727491,0.04347826086957696,1
0.5906477343615693,0.5889136900529386,0.8505397867247706,0.5842023750096491,0.008550971644360417,0.04347826086957696,1
0.6063281755774146,0.5899469247712538,0.8514439814921171,0.5808757841665393,0.00801669256604401,0.04347826086958406,1
0.5968178970015482,0.5913897183232212,0.8474162818642346,0.5026755348021272,0.00855097164435957,0.043478260869573404,1
0.6052608111552407,0.58967711377833,0.8510816535404258,0.5523242391281732,0.008550971644360306,0.03260869565218627,1
0.5956636814312424,0.5883393950558791,0.8462521470463458,0.5888238242247688,0.009085668454559645,0.03260869565218627,1
0.6141546870172654,0.5908942881401912,0.8479151562472871,0.589599959694637,0.00855097164435982,0.03260869565218627,1
0.5968539920533649,0.5906609896984127,0.8442659061973559,0.5734472255905371,0.00801669256604387,0.03260869565218094,1
0.6136160410842726,0.5908136824097294,0.8479738680169667,0.5616098996371708,0.008550971644360417,0.043478260869573404,1
0.5988518345944158,0.5906244693016297,0.842923265047651,0.5441489579235391,0.008550971644360403,0.0434782608695965,1
0.6117896265455283,0.590908179499314,0.8494112379029184,0.5578531872347251,0.0069477166775276655,0.043478260869568075,1
0.5983098171638211,0.5904714779712307,0.842654160576431,0.5222500320764282,0.007482413487727768,0.04347826086958406,1
0.6103292406218663,0.5911656985771963,0.8497240811069919,0.5639520640799318,0.00801669256604401,0.05434782608695876,1
0.5984649388692982,0.5897603803584509,0.8426031419632831,0.6056146486638803,0.008550971644360167,0.05434782608696764,1
0.6175756383062572,0.5907975948155089,0.8444826311521509,0.5560441709847316,0.008016692566043856,0.05434782608695876,1
0.602072791148039,0.5920932661903106,0.8423385062843662,0.5001352881542109,0.008016692566044037,0.05434782608698008,1
0.6038720436900986,0.5928885109147082,0.8583936404591996,0.5898363734293506,0.008550971644360333,0.05434782608696942,1
0.5507763419293407,0.5878084964833503,0.8666363805167769,0.5864743151114671,0.009085668454559326,0.054347826086962314,1
0.5621865326749758,0.5862881602014773,0.8810448135061446,0.5502455039327031,0.011223620231591333,0.054347826086976525,1
0.5519420332724886,0.5911915534323443,0.8733069363197394,0.5490793874791334,0.011757899309907213,0.05434782608696764,1
0.5735750079800361,0.5913063431760746,0.8763221226297527,0.8432359293029899,0.010688923421391328,0.054347826086956985,1
0.5593993166808735,0.5876375674942884,0.8631204321245993,0.5416795147416057,0.010688923421391466,0.05434782608696409,1
0.5756412986069115,0.5900475168967271,0.8826872825147118,0.45573619793079084,0.009619947532875622,0.0543478260869481,1
0.48126258602130856,0.581390482464841,0.8935748607993006,0.3801972307114605,0.010688923421391716,0.054347826086962314,1
0.4265712282362285,0.565292705756816,0.944151955832967,0.4872669197468893,0.009619947532875983,0.06521739130434412,1
0.46332361661620564,0.5595132313859719,0.9270449317224434,0.5718352032882323,0.010688923421391341,0.06521739130435478,1
0.5386104220077041,0.5668956404171482,0.899993086611939,0.7485993248094946,0.009619947532875942,0.06521739130436188,1
0.49288232643654223,0.5649837911356321,0.905098538781149,0.5192471301846862,0.008550971644359862,0.06521739130434057,1
0.5490625041049662,0.5643946428474751,0.904140755809945,0.3875639326436603,0.008550971644360236,0.07608695652175257,1
0.464031226631158,0.5599707743600603,0.9106400556810081,0.6106618757640272,0.008016692566043343,0.07608695652173125,1
0.6787294518833885,0.5661127023088823,0.8920615415950766,0.5359206236000552,0.008550971644360167,0.07608695652173125,1
0.7975889884386915,0.7043228545163852,0.6012883153739969,0.5174159447464862,0.00801669256604394,0.07608695652175257,1
0.5658756332145504,0.8146663821546384,0.5135937154496648,0.5832358642920206,0.005878740789012307,0.05434782608695343,1
0.7060752451553587,0.8450469823273288,0.5303692721512471,0.5999876757195473,0.004275485822180264,0.05434782608697475,1
0.670613470913364,0.8337945539955984,0.5237908552322279,0.4332727629140276,0.0064134375992115356,0.05434782608696764,1
0.6842526861222085,0.8418609765240391,0.5109350772108867,0.35825287314805554,0.005878740789012377,0.05434782608696764,1
0.6762938275700521,0.8373830533839252,0.5509442344057454,0.6235712873266186,0.006413437599211466,0.054347826086962314,1
0.6309376336993424,0.8078544856185259,0.5836980025228282,0.7183691252305344,0.004275485822180555,0.05434782608698363,1
0.6282455540731777,0.7098454890423352,0.7654218110811781,0.6816362189415666,0.006413437599211827,0.05434782608696409,1
0.644003526390645,0.6022604682937837,0.9010025173514151,0.5479829620176933,0.009085668454559354,0.05434782608696764,1
0.6015091984847833,0.5999910777720704,0.836998537253378,0.6427196283283427,0.009085668454559562,0.06521739130436188,1
0.6254890696112887,0.5900471973266056,0.8532819096352533,0.6692424755120124,0.009619947532875706,0.06521739130435833,1
0.5958749053884891,0.5905583396272684,0.8398127295476936,0.7181306192280201,0.005878740789012557,0.06521739130434767,1
0.6115099101623476,0.5848990919478361,0.8513613020548731,0.5474404733964932,0.008016692566043926,0.06521739130434767,1
0.5946929008870094,0.5816952059787165,0.8475134417321057,0.3252025156208347,0.008016692566043787,0.06521739130435833,1
0.6037753207843508,0.5836252860332212,0.8564561247885791,0.4648535336562041,0.008550971644360125,0.06521739130436188,1
0.5889511276244466,0.5816591413919074,0.8496617657061785,0.5455047707739286,0.009085668454559631,0.06521739130434767,1
0.5974255229549272,0.5821702438986667,0.8575877864231541,0.6243433391979064,0.00855097164435989,0.06521739130435833,1
0.5794940595305134,0.5796175800478918,0.8594899725119275,0.5947483823442254,0.009085668454559812,0.05434782608698896,1
0.587379741227713,0.5781137304380245,0.8635196284582398,0.5418689305444038,0.0090856684545597,0.05434782608695876,1
0.5680276759770513,0.5734546321665792,0.8701759462088094,0.5081699385375464,0.00908566845455916,0.05434782608698008,1
0.566524210406831,0.5751152680523627,0.8813801652341089,0.6170274406467661,0.009619947532876039,0.054347826086956985,1
0.5234384514477954,0.5675989138586754,0.8949127941935333,0.5797964632935347,0.01068892342139137,0.05434782608696764,1
0.5022353516453932,0.5679456422906677,0.9099922839946555,0.5617405348324505,0.011223620231590709,0.05434782608695876,1
0.49405214140093157,0.5658773490383824,0.9103060146735729,0.49625335091216527,0.011757899309906825,0.054347826086942774,1
0.49981396498836256,0.5652696287250973,0.9119298397467268,0.6069884106371485,0.010688923421391439,0.05434782608696942,1
0.4981178117626466,0.5669881867109668,0.90806497456893,0.6883575202782345,0.012292178388223524,0.04347826086956452,1
0.5012860935629366,0.5677020836663798,0.9147301165577058,0.5405047938925843,0.01282687519842296,0.04347826086959117,1
0.5060788554265642,0.5656792914848894,0.903530858516399,0.5361622823852695,0.01175789930990731,0.04347826086959472,1
0.5175145117402986,0.5707465841895645,0.9051198607511386,0.5071030967528569,0.012292178388223551,0.04347826086958939,1
0.5146086745874083,0.5715086960275984,0.9012245807577663,0.5477299564590944,0.009619947532875733,0.04347826086957163,1
0.5175160130212942,0.5724502232764888,0.9063373120706106,0.5722644489446899,0.01175789930990738,0.04347826086959117,1
0.5147940865284724,0.5741156124967163,0.9017988539110322,0.5520519978085584,0.011757899309907421,0.043478260869573404,1
0.5178858992435533,0.5732882497330396,0.9019075950860176,0.5673673169571056,0.01175789930990745,0.04347826086957873,1
0.5217089807303199,0.5747456930226946,0.8991450341624352,0.5584925539142204,0.011757899309907241,0.04347826086957696,1
0.5284819774112877,0.5755224321506363,0.8967765388110311,0.5299968581223765,0.011757899309906977,0.043478260869573404,1
0.5258891663393499,0.5740595286930686,0.8948662949583166,0.5454399083500401,0.010688923421391605,0.04347826086957696,1
0.5280124788150663,0.5752987383337739,0.8967478028416294,0.5678175753335061,0.011757899309907213,0.043478260869553864,1
0.5270739137452705,0.5741606581506176,0.8948990940001813,0.5531375489865943,0.011223620231590778,0.05434782608696409,1
0.5287180163190142,0.5752431726887439,0.8967234312643124,0.5191257018559557,0.011223620231590986,0.05434782608696764,1
0.525449949471227,0.5741855092479212,0.8949108248831845,0.5616866469499896,0.011223620231590847,0.054347826086976525,1
0.5345055992675738,0.5752542487420049,0.8967267084337427,0.5841937276773151,0.011223620231590917,0.05434782608695343,1
0.5312582873942708,0.5741000540982509,0.8948904194851535,0.5333435131208213,0.011223620231590875,0.043478260869568075,1
0.530733127619409,0.5757321720405508,0.896764822762093,0.5348383302025389,0.008550971644359986,0.04347826086958406,1
0.5297575666536944,0.5750851472263263,0.8948491643171006,0.6082471004530654,0.010688923421391675,0.0434782608695663,1
0.5352480084955842,0.5778255360597172,0.8965785317541917,0.5502660106131843,0.011223620231590695,0.043478260869548535,1
0.5375732563819011,0.5767609957073648,0.8904175127907226,0.5302301820094611,0.010688923421391189,0.04347826086957696,1
0.5398944433198892,0.5768747222829631,0.8889657877915185,0.5803711130835945,0.010688923421391716,0.04347826086957873,1
0.5557467789395207,0.5773451410692005,0.8806826589691856,0.5801475275894694,0.008550971644360056,0.04347826086957873,1
0.5592717709028838,0.574501950619165,0.8808018929223773,0.5220662653524853,0.011223620231590625,0.04347826086958939,1
0.560171323421213,0.5757049901417969,0.8804128695664586,0.5653292934201118,0.011223620231590972,0.05434782608696942,1
0.5595006012876916,0.5760586582119567,0.8775338800670576,0.5882572589681273,0.010688923421391605,0.05434782608698363,1
0.5584992520706693,0.5745615914502444,0.8832845296568324,0.5308136323497118,0.011223620231591042,0.05434782608696409,1
0.5513720210840332,0.5746818276818635,0.8851022519448326,0.5004024961188871,0.011223620231590986,0.054347826086976525,1
0.5484285345065433,0.5748973311934841,0.886294586845739,0.6013415566777909,0.010688923421391397,0.043478260869568075,1
0.5491409796432254,0.5741630205458097,0.8863551646404411,0.6115906910609277,0.01229217838822376,0.043478260869568075,1
0.5468711959743924,0.5740769900200807,0.8859658072098318,0.5642171636527631,0.012826875198422738,0.043478260869568075,1
0.5482837038235311,0.5746958383951094,0.8865637956836285,0.5176870791501367,0.012826875198422988,0.04347826086957873,1
0.547645860299582,0.5749073878775037,0.8858216094917903,0.6155440645632551,0.011223620231590667,0.04347826086956097,1
0.5459459183142421,0.5743804701090157,0.8866188515847293,0.6067347889567659,0.011757899309907796,0.04347826086957696,1
0.5435544912384809,0.5751380795454214,0.8860356370452722,0.5775540622256508,0.010154644343075198,0.04347826086956097,1
0.5582300037656454,0.575523220369232,0.8802650626265236,0.5128419388938826,0.011223620231590944,0.04347826086958406,1
0.5621914910466785,0.5773777025348587,0.8719208713751577,0.5327859099614164,0.010688923421391744,0.03260869565218627,1
0.5608530361751976,0.5763063107447883,0.8811797184690415,0.6021312468575098,0.01122362023159118,0.03260869565218627,1
0.5550619349640009,0.5808022293917874,0.8761384892832831,0.5510328832917208,0.010688923421391508,0.03260869565218094,1
0.5719112918454825,0.5578815428534666,0.8994158642442784,0.486127072445405,0.01015464434307542,0.03260869565218094,1
0.7340858196591438,0.547255258857511,0.7271783665529188,0.5697972456881498,0.010688923421391577,0.043478260869573404,1
0.8418920685538622,0.5969167651358979,0.37443351707093075,0.6390892175236701,0.008016692566044079,0.04347826086958406,1
0.949752421646799,0.5860370062418223,0.30963004691857077,0.5431288533564279,0.003741206743863662,0.04347826086957873,1
0.7903701276744619,0.5845214263464795,0.647985572644795,0.5449005820201164,0.0016032549668323903,0.04347826086955742,1
0.5628501741499117,0.601776000153149,0.8270491276612115,0.6539474789201243,0.004810182632379978,0.04347826086957873,1
0.5613890604868689,0.5991708297546302,0.8629018824790005,0.550332564678925,0.006413437599211647,0.043478260869573404,1
0.5990260367423259,0.611436988490225,0.8613249057113497,0.3329316407360382,0.0096199475328759,0.04347826086956097,1
0.6325793082590673,0.6267751392326278,0.8351647735243091,0.6611471405315482,0.00961994753287615,0.04347826086957873,1
0.5815127700988384,0.6220878220527415,0.8441127422661557,0.8097217798797556,0.009619947532875983,0.03260869565218627,1
0.7072898620230783,0.6392349012400184,0.7459724606382414,0.6171633777660525,0.01068892342139141,0.032608695652193376,1
0.7480884752475765,0.6328665638963099,0.6906517465047652,0.4093079992979481,0.008550971644359959,0.03260869565218627,1
0.7324681130290076,0.6532086417295551,0.7113380227588477,0.47333077472045315,0.008550971644359917,0.032608695652173836,1
0.7153989773905196,0.6477231056168054,0.7173267356591162,0.6282508153131318,0.00908566845455977,0.03260869565218094,1
0.7162769893391405,0.6608832612602912,0.7204187648035977,0.5841630250515085,0.008550971644359986,0.03260869565217561,1
0.7056645898984484,0.6595731318417568,0.7332185023006469,0.5478092060372832,0.008016692566043926,0.03260869565218094,1
0.6928455096631998,0.6687187139529547,0.7467459112711161,0.4318129700626827,0.008550971644359986,0.03260869565218094,1
0.6788379279653508,0.6654167101028747,0.7554591498562178,0.4269092209900597,0.008550971644360056,0.021739130434790255,1
0.6775102046947559,0.6731101874714036,0.7564621645933416,0.5198571907963849,0.009085668454559562,0.02173913043480269,1
0.6789818677446975,0.668676017866338,0.7541505883544948,0.5101624882888931,0.008550971644360097,0.021739130434795584,1
0.681621311584967,0.671165524337294,0.7496494561159418,0.6055490696188193,0.009085668454559853,0.021739130434800913,1
0.6811184635741023,0.6679718132744855,0.7504362455089536,0.6452282306873695,0.008016692566043579,0.03260869565218094,1
0.6797115749026663,0.6709328420437328,0.7495762562638009,0.5623279590108451,0.008016692566043787,0.03260869565217028,1
0.6816781086204617,0.6686174022228569,0.7517218741254729,0.488614897982951,0.008550971644359709,0.03260869565216851,1
0.6795639154879736,0.6712435505953479,0.750150616145072,0.5989506327158042,0.008016692566044065,0.03260869565219515,1
0.6802887659135499,0.6698222215907152,0.752596922814502,0.6266301557794335,0.00855097164436007,0.03260869565218094,1
0.6798711869675408,0.6719584021813911,0.7501543033319575,0.5816666107452408,0.0069477166775282345,0.03260869565219515,1
0.6792765629906032,0.6696889553758208,0.7502972749437959,0.5005812402740734,0.008016692566043898,0.03260869565219515,1
0.6801585188738738,0.6717326668478746,0.7518597991668774,0.5911447797205545,0.008016692566043454,0.03260869565217028,1
0.6810526847424944,0.670207069279339,0.7509394470979629,0.6239429779990764,0.008016692566043926,0.02173913043480269,1
0.6777338790747695,0.671663695097014,0.7528773541464164,0.5723166348976385,0.008016692566043523,0.021739130434800913,1
0.6759319865226058,0.6700283158585421,0.7559305370780074,0.5052178527174337,0.008016692566043968,0.021739130434795584,1
0.6770565793667109,0.6716938339907805,0.7572772809180119,0.6007779330669423,0.008016692566043968,0.021739130434795584,1
0.6796851409277527,0.6700306599173,0.7537833484617982,0.6134182296477285,0.008016692566043829,0.03260869565218094,1
0.6732361165097125,0.6716797090438477,0.7575747217744369,0.5714286696240714,0.009085668454559492,0.03260869565218627,1
0.6722083863870539,0.6700498231195793,0.7612965254248261,0.4891878485085712,0.008016692566043801,0.03260869565216318,1
0.6685443766983881,0.6716583321857958,0.761247159173575,0.564209762498852,0.00801669256604376,0.03260869565218805,1
0.6695830885937302,0.6700720580032271,0.7617644022089906,0.6227927324105187,0.006413437599211758,0.03260869565218627,1
0.6686012961780237,0.671635942873183,0.7612072665259084,0.586591254332739,0.008550971644360417,0.032608695652173836,1
0.6694336490636015,0.6700942211529333,0.7617828648607818,0.5143596847556478,0.007482413487727518,0.032608695652173836,1
0.6692796128707035,0.6716142139536874,0.7611920808552134,0.534016370566901,0.007482413487727491,0.03260869565218627,1
0.6706106394716023,0.670115404906623,0.7617970258444633,0.611958728854832,0.00748241348772738,0.010869565217410226,1
0.6681022137699537,0.6715936295978165,0.7611785023738936,0.5788694838533416,0.008016692566043829,0.01086956521738891,1
0.6699336526055066,0.6701353695058747,0.7618102382497414,0.5275103239672295,0.006947716677528054,0.010869565217410226,1
0.6682490429620778,0.6715742846574804,0.7611654113030502,0.5238645458410415,0.006947716677527804,0.010869565217383581,1
0.6698753530611765,0.670154107211865,0.7618235476152069,0.6054817186283215,0.007482413487727352,0.032608695652179165,1
0.6682750314605899,0.6715561344752055,0.7611513877540846,0.5743571499363415,0.007482413487727282,0.032608695652179165,1
0.6698650006451817,0.6701716936898336,0.7618390511123649,0.5308270303337982,0.006947716677527735,0.03260869565217028,1
0.6682765256696983,0.6715390857964446,0.7611331311202666,0.5064057821440677,0.006413437599212299,0.03260869565220936,1
0.669869089524415,0.6701882312673604,0.7618623813440468,0.6133086844695426,0.0069477166775284704,0.032608695652193376,1
0.6682686140360845,0.6715230326521104,0.7610999664468989,0.5756828952777314,0.006947716677527957,0.03260869565218627,1
0.6698798150875249,0.6702038261003261,0.7619169565606538,0.5602603382802476,0.0069477166775276655,0.03260869565218094,1
0.6682556683250767,0.6715078708693722,0.7609863910176842,0.4838532317929376,0.0074824134877273935,0.03260869565220936,1
0.6698946396472731,0.6702185790524772,0.7623372334556751,0.5952620308659126,0.007482413487727324,0.02173913043480269,1
0.6682391361584463,0.6714935036618117,0.7621585504704225,0.587597082301019,0.008550971644360278,0.021739130434795584,1
0.6699128373438835,0.6702325824343127,0.7614944966506197,0.579897187389983,0.00748241348772731,0.021739130434790255,1
0.6682192017808958,0.671479843349007,0.7614003601938292,0.4921526816605776,0.00801669256604401,0.021739130434795584,1
0.669934695568563,0.6702459193023365,0.7615904673871075,0.5596632977435272,0.007482413487726977,0.03260869565218094,1
0.668195094755955,0.6714668113887711,0.7614472891073973,0.5985381520585666,0.00748241348772756,0.03260869565218627,1
0.6699615618617898,0.6702586638588427,0.763531148893915,0.5869218036234773,0.006413437599211647,0.032608695652184494,1
0.6681646810250179,0.6714543377057138,0.7637497012279373,0.5112861152746954,0.007482413487727532,0.032608695652179165,1
0.6699967712472916,0.6702708822860548,0.764775218347955,0.541666315142221,0.007482413487727116,0.021739130434795584,1
0.6681225698192863,0.6714423597683036,0.7617313682102604,0.5916873684486397,0.007482413487727255,0.021739130434813347,1
0.670049781467511,0.6702826337080298,0.7649164982524735,0.5768060723719296,0.0069477166775281235,0.021739130434809795,1
0.6680491837617354,0.6714308216212109,0.7627082575133091,0.507023604557861,0.007482413487727907,0.02173913043480802,1
0.6701799404065314,0.6702939711423632,0.763076722485671,0.5601104099400313,0.007482413487727671,0.02173913043482223,1
0.6667818317652574,0.6714196729632764,0.7657517326400887,0.5949330623601018,0.006947716677528373,0.021739130434804466,1
0.6696158264109244,0.6703049423843668,0.7670299172926818,0.5731335509066987,0.007482413487727324,0.02173913043478848,1
0.6661748283956055,0.6714088683055275,0.7703405591184898,0.49316439482002644,0.006947716677528082,0.021739130434790255,1
0.6684842360097869,0.6703155908051642,0.7676459448193773,0.5585753517207642,0.0074824134877271575,0.03260869565218094,1
0.6622791841840491,0.6713983662168672,0.7695017355054043,0.6059856542234108,0.006413437599211688,0.03260869565217561,1
0.6580992480991782,0.6703259560635257,0.7719617913166599,0.569622368336441,0.006947716677527915,0.03260869565217561,1
0.657788866896816,0.6713881286526105,0.7703954549327716,0.4873596199474253,0.0053444617106958026,0.0326086956521614,1
0.6586650210148366,0.6703360747395739,0.7717011493607218,0.5411703413889617,0.006947716677527985,0.02173913043480269,1
0.6575395303782754,0.6713781203556133,0.7705094038028693,0.6016879275495327,0.007482413487727449,0.02173913043480802,1
0.6588090356723768,0.6703459809019148,0.7716387767816899,0.5880176749781478,0.005878740789012668,0.021739130434804466,1
0.6574435666823155,0.6713683083177089,0.7705477193102603,0.5570881888251521,0.007482413487727449,0.021739130434800913,1
0.6588790443246612,0.6703557066208292,0.7716133939406387,0.5757021994306581,0.0069477166775280125,0.03260869565216851,1
0.657389156968146,0.6713586612887,0.7705657599541793,0.607329414038381,0.004810182632379548,0.032608695652173836,1
0.6589233643961352,0.6703652824402663,0.7715991902022343,0.5706239815082648,0.006947716677528429,0.03260869565220048,1
0.6573517182288898,0.671349149320242,0.7717784933819929,0.4943197565432762,0.006947716677528193,0.032608695652184494,1
0.6589559235853654,0.6703747378211982,0.7715824417824001,0.5650771658756428,0.005878740789012377,0.021739130434784926,1
0.6573227179984367,0.6713397433321335,0.7706084293961164,0.5955116901699973,0.007482413487727449,0.021739130434795584,1
0.6589822787716424,0.6703841015688183,0.7715052265023381,0.5696478649078687,0.006947716677527804,0.02173913043477782,1
0.6572983468953549,0.6713304146884513,0.771701755863837,0.4976940205313476,0.006413437599211341,0.02173913043478848,1
0.6590051652379227,0.6703934022563305,0.7718074341633872,0.55264929920596,0.006947716677528221,0.02173913043480269,1
0.6572765494952828,0.671321134770468,0.77045591057605,0.6112904650175789,0.006947716677528096,0.021739130434784926,1
0.6590262039409696,0.6704026686588551,0.7716696156698302,0.5850377571157668,0.006947716677527915,0.021739130434790255,1
0.6572559764301609,0.6713118745321793,0.7706068139277279,0.5233396229203048,0.006947716677527985,0.02173913043480802,1
0.6590465888216752,0.6704119302124714,0.772835803391776,0.520261036762928,0.00748241348772774,0.021739130434795584,1
0.6572355003716215,0.6713026040223566,0.7710280873281403,0.6055314193764134,0.007482413487727491,0.021739130434795584,1
0.6590674488218384,0.6704212175158186,0.774170670710183,0.5866643258141737,0.006413437599211466,0.02173913043480269,1
0.6572139572828251,0.6712932918540475,0.7704229379416845,0.5334189398675607,0.005344461710696219,0.021739130434804466,1
0.6590899038047457,0.6704305628953402,0.776066112608969,0.5284694072720099,0.006413437599211813,0.03260869565218805,1
0.6571907955581426,0.6712839045980152,0.7742138163520824,0.5965221352263902,0.005878740789012182,0.032608695652184494,1
0.6591113782867644,0.6704400010606061,0.7719580974734594,0.5768867055980633,0.006413437599211688,0.032608695652184494,1
0.657186745465671,0.6712744060701572,0.7758144818452049,0.5228139833549066,0.0064134375992119935,0.03260869565220048,1
0.6575476771144688,0.6704495698839096,0.7768394001003398,0.5231223736077942,0.005878740789012141,0.03260869565218805,1
0.6538779715540788,0.6712647564736172,0.7806892975583964,0.6056927127581275,0.0069477166775280125,0.032608695652173836,1
0.6584169459971028,0.6704593113495527,0.7807707285658257,0.5818809320521,0.006413437599211785,0.03260869565216318,1
0.6572352163084555,0.6712549113427899,0.7802951325488003,0.5409856910577235,0.006947716677527735,0.03260869565216318,1
0.6593861903499567,0.6704692727345467,0.7796867440106869,0.5080498668953378,0.0064134375992115356,0.04347826086957163,1
0.6543557686450593,0.6712448202166561,0.7807684420782762,0.6018978424475032,0.0064134375992115356,0.043478260869568075,1
0.6528362997444451,0.6704795081064843,0.7807171176958325,0.5859858192873306,0.005344461710695844,0.043478260869568075,1
0.656636712705478,0.671234424939571,0.7805879734063585,0.5472623742883187,0.006413437599211577,0.043478260869573404,1
0.652621058838613,0.670490080260252,0.7807991867869343,0.5076165895094877,0.006413437599211508,0.04347826086957696,1
0.6507198650028082,0.671223657443407,0.7805750277300674,0.5942511898281008,0.0069477166775281235,0.043478260869573404,1
0.6599909096056626,0.6705010632700088,0.7798267331564324,0.5880811889819462,0.004275485822180375,0.04347826086959117,1
0.6554424641546808,0.6712124367967693,0.7791449142703146,0.5430655175268925,0.006413437599211827,0.04347826086957696,1
0.6582983827493718,0.6705125459182614,0.7808030175740918,0.5195595495888511,0.006413437599211758,0.032608695652179165,1
0.6561762977980701,0.6712006651992978,0.7804844688727708,0.5940922335571686,0.006413437599211785,0.032608695652179165,1
0.6588549355381847,0.6705246364006989,0.7809039765643432,0.5738218279642753,0.006947716677528401,0.03260869565218094,1
0.6538274808390241,0.6711882224238841,0.7804275528696185,0.5299839571947912,0.006413437599211716,0.03260869565218094,1
0.6562698243297145,0.6705374689316173,0.780997412297383,0.5095494497746017,0.00641343759921148,0.04347826086955742,1
0.6565444790124662,0.6711749579149735,0.7800472408435014,0.6135509555063399,0.005344461710696011,0.04347826086958406,1
0.6581806805446005,0.6705512132624885,0.7797567234518539,0.5863617544422621,0.006413437599211716,0.043478260869568075,1
0.6576517135199442,0.6711606792353721,0.7810182121913747,0.5560171913915862,0.005878740789012349,0.043478260869568075,1
0.6587579791042548,0.670566088820399,0.7801232453021224,0.4888671809202113,0.006413437599211549,0.032608695652184494,1
0.6574986375628011,0.671145134607573,0.778320562132787,0.602559055724049,0.006413437599212091,0.032608695652198705,1
0.6587749482054857,0.6705823864818794,0.7773188852489088,0.5934851623515558,0.006413437599211827,0.032608695652198705,1
0.6576261685250666,0.6711279854569252,0.77671563004712,0.577282492942875,0.006413437599212063,0.032608695652193376,1
0.6580638588049321,0.6706005036261788,0.7792413066592163,0.49506934143212017,0.006413437599211758,0.032608695652193376,1
0.6565882408006298,0.671108761032595,0.7770809505079053,0.5649893626572562,0.0069477166775280125,0.03260869565217028,1
0.6581427350860358,0.6706210038197001,0.780526854915897,0.6017291491820295,0.006413437599211827,0.032608695652193376,1
0.6566368484661854,0.6710867784683098,0.7800765642134277,0.5803437584176441,0.006413437599211383,0.03260869565217561,1
0.6593393179560738,0.6706447261618462,0.7812211090610853,0.5137731336456013,0.005344461710695733,0.04347826086956452,1
0.6571275619260846,0.6710609894817706,0.7801929354636752,0.5526756120973758,0.005878740789012488,0.04347826086955742,1
0.6588259962895824,0.6706730065660165,0.7811245191724875,0.596948748553376,0.006413437599211647,0.0434782608695663,1
0.6560395658109837,0.6710296496218052,0.7802748602560667,0.563525159098806,0.006413437599211619,0.04347826086957873,1
0.6573788308556388,0.6707081935419341,0.7810463190855108,0.5005524352402321,0.006413437599211605,0.04347826086957163,1
0.6534042821983752,0.670989470774464,0.7803650024473895,0.5698625366486159,0.006413437599211966,0.04347826086956097,1
0.6556296798660719,0.670755135528159,0.7808854984262817,0.6015651633983942,0.0058787407890121685,0.04347826086958406,1
0.6531033330085184,0.6709327783337049,0.7791578394613603,0.5598259402756205,0.006413437599211855,0.0434782608695663,1
0.6574518825518012,0.6708272804548986,0.7811515897473881,0.4950717209178655,0.006413437599211577,0.03260869565217561,1
0.6560757123233768,0.6708320172309548,0.7802652881777528,0.5765898956268574,0.006413437599211855,0.03260869565219515,1
0.6584125299515176,0.6709991084078029,0.7811548869567032,0.6088198564807703,0.0069477166775277766,0.032608695652184494,1
0.651056587917247,0.6692620687494113,0.7784510491063825,0.5710151367713825,0.005344461710695983,0.032608695652184494,1
0.6542040696410031,0.6702175088967504,0.7795706530968061,0.5002534993025094,0.006413437599211896,0.04347826086957163,1
0.6530534174324942,0.6710318746753994,0.7778573758801948,0.5534832045579139,0.006413437599211383,0.0434782608695663,1
0.6576094439486078,0.6708271470000712,0.7783866375086663,0.6188817455161708,0.006413437599211411,0.04347826086958406,1
0.6552534024057275,0.6707872834352903,0.7797645277795322,0.5684943431146082,0.00694771667752829,0.04347826086958939,1
0.650773074072942,0.6710371905587227,0.7799351127482588,0.5276929360980744,0.006413437599212035,0.05434782608697475,1
0.6472894994441751,0.6705723072774297,0.7809710704883893,0.5609853961133435,0.006413437599211952,0.054347826086976525,1
0.6683607648081485,0.6711742274779671,0.7685623488167875,0.6052031306523333,0.006413437599211896,0.05434782608698008,1
0.6930688130243043,0.674593871035095,0.7457473948390263,0.5303612380045206,0.00587874078901246,0.054347826086962314,1
0.6903839709852353,0.7007765389186911,0.6789471637524356,0.5416786364550233,0.005878740789012349,0.043478260869573404,1
0.7292487044501805,0.6881647771961967,0.7134027909341482,0.5760864740102941,0.005878740789012252,0.04347826086959117,1
0.664998153045111,0.6706255248554517,0.7654427540191359,0.5211886394569236,0.004275485822179986,0.04347826086956097,1
0.6111999671904087,0.6695509429890784,0.8125173355602209,0.4825557995060322,0.0064134375992115356,0.04347826086956452,1
0.5686916449376018,0.6603318237083479,0.8457527114947686,0.5656182813783299,0.006947716677527943,0.04347826086956452,1
0.554470159854392,0.6600372547922463,0.8498569953198616,0.5993809164628353,0.007482413487727227,0.04347826086957696,1
0.5515666473405028,0.6552070591352565,0.8633607009190114,0.6074457257979623,0.007482413487726949,0.04347826086957163,1
0.5671662129301249,0.6569016983816491,0.8467457759886597,0.7006868092520806,0.0042754858221803055,0.04347826086957163,1
0.587228116017463,0.6626150432280471,0.8379513583469358,0.621973304031083,0.006947716677527874,0.043478260869573404,1
0.5830314021336835,0.66311794901382,0.8319597331871886,0.48183000160888145,0.006947716677528332,0.043478260869568075,1
0.5941098651084604,0.6626014666596378,0.8316708370763128,0.5243116772543892,0.005344461710695775,0.04347826086955742,1
0.5891178345428465,0.6629522859083575,0.8279881879414266,0.5601258765091466,0.00694771667752829,0.04347826086957696,1
0.5988363368670881,0.6607933204979258,0.8310000874764698,0.5251144425086729,0.0064134375992115356,0.0434782608695663,1
0.6181839908406902,0.6385114287051237,0.818353833389809,0.48156677814627946,0.0053444617106958026,0.04347826086957163,1
0.6395013512431611,0.6064648364040762,0.8144038373972842,0.5395394873105023,0.0032065099336646696,0.04347826086957163,1
0.6287176208954801,0.5856655010991627,0.8281664175640688,0.605297181243604,0.005344461710695844,0.0434782608695663,1
0.627243539734315,0.573226587142144,0.8357204691550622,0.5624877034244575,0.004810182632379534,0.05434782608698718,1
0.6143137354928019,0.5659749776339233,0.8417874032755152,0.4993483526020626,0.004810182632379673,0.05434782608698718,1
0.5951866085107453,0.561443011001826,0.8620862315290051,0.47559996395260135,0.0037412067438638424,0.05434782608698008,1
0.5882896547588986,0.560323015115166,0.8585519890366786,0.6226882202886734,0.0026722308553481233,0.05434782608699251,1
0.5891060290333182,0.5641944694201575,0.8600167956331157,0.6165416574791664,0.0032065099336641145,0.05434782608696409,1
0.5783819843837481,0.5690149266456312,0.8650273248264915,0.5882268603024545,0.0042754858221804165,0.05434782608696764,1
0.6208444133822963,0.5670189801519098,0.8415196678679424,0.5286164654445731,0.003741206743863801,0.05434782608695343,1
0.630185646502021,0.5752315090978937,0.8330952136598331,0.5970939830002299,0.0037412067438638424,0.054347826086962314,1
0.6363633574511656,0.5736461855557424,0.8304501519357834,0.5964364335305599,0.0021379517770315215,0.04347826086957163,1
0.6364268332996887,0.5781824659349653,0.8284573943770794,0.5337887052989326,0.0026722308553485674,0.043478260869568075,1
0.6320540163007631,0.5767107174491776,0.8337621615223797,0.5453578815352322,0.003206509933664281,0.04347826086956097,1
0.6259732134161899,0.5748060105543658,0.8329195401841241,0.6032353862937663,0.0032065099336642117,0.043478260869568075,1
0.6262901311606212,0.5746775406480804,0.8405027104513529,0.5961381164361134,0.0032065099336646696,0.04347826086959472,1
0.6202538299283225,0.5791291386802356,0.8364011891609429,0.5385434387089005,0.0037412067438640784,0.04347826086957696,1
0.6180805670857351,0.5761210840597238,0.8398460876456715,0.5440882011109567,0.002137951777031785,0.04347826086958584,1
0.6144740777907716,0.5753437240285166,0.8378428541562015,0.5841268121401935,0.0032065099336643504,0.04347826086957163,1
0.6147886756788312,0.5772113407250015,0.8397923631367173,0.5461810474120592,0.003206509933664392,0.054347826086956985,1
0.6139599228358862,0.576386154056948,0.8427184889901139,0.5362801018088263,0.003206509933664531,0.05434782608696409,1
0.6148792086951937,0.5750292209121972,0.849105568754832,0.5731490349294923,0.0032065099336643504,0.05434782608695343,1
0.6058876265343038,0.5793605863662329,0.8458457622811735,0.5695226755537927,0.002137951777031896,0.05434782608698008,1
0.6049794571703461,0.5786862929906736,0.8497899776570408,0.5314324003106689,0.0032065099336645586,0.04347826086958584,1
0.6042239157255944,0.5759335259691101,0.8459221974007515,0.5592780874698013,0.0032065099336643227,0.04347826086955742,1
0.6037688645432764,0.5788379038442419,0.8497561712039361,0.5786405992403414,0.003206509933664628,0.04347826086956452,1
0.60317961635871,0.5807326147168458,0.845922362310136,0.5460961758249548,0.003206509933664642,0.04347826086960538,1
0.6038816721617268,0.5809739853407189,0.8497819678330651,0.5402035245095894,0.003206509933664531,0.043478260869548535,1
0.6031727958082027,0.5831686958327152,0.8458736446070685,0.5777692887600713,0.0037412067438638286,0.0434782608695965,1
0.6038335215833837,0.5824502126387022,0.8498542635274628,0.5544470260615217,0.003206509933664392,0.0434782608695663,1
0.6032663644915877,0.5828938379871578,0.8457725690078999,0.5395644008597387,0.0032065099336646974,0.04347826086957163,1
0.6036958758637321,0.5826663378846296,0.8499985843282165,0.5706679291346364,0.003206509933664281,0.05434782608696764,1
0.6034341884922148,0.5825556425724506,0.8455428331436734,0.5650101154062446,0.0026722308553479984,0.054347826086976525,1
0.6037165093363777,0.5846506265535695,0.8504770890485904,0.5308821370387653,0.0021379517770316603,0.054347826086951656,1
0.6069331742995454,0.5995751779805409,0.8391022562875843,0.5683669653716721,0.002672230855348151,0.054347826086962314,1
0.6028957212282601,0.6172181522024578,0.8378355471515935,0.5705120395687142,0.0010689758885157746,0.043478260869553864,1
0.6101001666632462,0.6354995894019403,0.8393758378318354,0.5334343521910098,0.003741206743863662,0.04347826086957163,1
0.6165765027717833,0.6547549522919862,0.820384576072251,0.5651405822301997,0.0037412067438638286,0.043478260869573404,1
0.6607493087783046,0.6672087313678937,0.7477253752042805,0.5990997125470193,0.008550971644360306,0.04347826086957873,1
0.6679057483302622,0.6684002800108801,0.7776299498043682,0.5524654697167145,0.008550971644360139,0.04347826086958939,1
0.6313956177610827,0.6326211379634477,0.7996596617778491,0.5770294905614733,0.007482413487727491,0.043478260869568075,1
0.6400710646606919,0.6397041037372871,0.823258427062646,0.5667747049203228,0.007482413487727074,0.043478260869553864,1
0.6745839737671622,0.649226648481165,0.7695901039347564,0.5100605304990808,0.006413437599211619,0.043478260869548535,1
0.6711865475011343,0.6161302863400105,0.7752081787721451,0.5693868792701063,0.00748241348772738,0.0434782608695663,1
0.6438411003786457,0.6199840854917573,0.8010177331744952,0.5643069205831194,0.005878740789012002,0.043478260869568075,1
0.6421626753047428,0.6227651883931044,0.8159613548627396,0.5849890392795688,0.006413437599211758,0.04347826086958584,1
0.6264681086317867,0.6267149732397256,0.8218222614727134,0.6101924020798523,0.006413437599211716,0.04347826086956097,1
0.6196657110663348,0.6288019306227578,0.8351307723547206,0.5052671080012613,0.003206509933664392,0.043478260869568075,1
0.6032099576341539,0.6300695968585961,0.8341335625045045,0.459697217686211,0.006413437599211896,0.04347826086959472,1
0.6026133593517569,0.6143337234947492,0.8427460737227248,0.5371846243360652,0.005878740789012696,0.04347826086959472,1
0.6010812732516264,0.600625828460904,0.840485160164407,0.6204432771579946,0.005344461710695664,0.043478260869568075,1
0.6073645711022454,0.5931015102995698,0.8495801515784211,0.5563946169326105,0.00587874078901246,0.043478260869573404,1
0.5951639210264122,0.5885228454851589,0.8456171411629507,0.5785135402083379,0.003741206743863773,0.0434782608695663,1
0.6062108830427604,0.5818646771072661,0.8506681591075337,0.5556964906808406,0.005344461710695983,0.043478260869568075,1
0.602774080873925,0.5903446905501968,0.8425935920716412,0.5156958876504056,0.00587874078901196,0.04347826086957163,1
0.6171412435315102,0.6065975694943633,0.8418593550074863,0.6030746953224129,0.004810182632379395,0.05434782608696409,1
0.6181260194052666,0.6222477775022072,0.8202859234913022,0.5772934781839969,0.006947716677528082,0.054347826086956985,1
0.6268987986975387,0.6391229858291775,0.8183632970129129,0.5005035067790129,0.004275485822180264,0.054347826086976525,1
0.6354906175058561,0.649442812407336,0.8026611677446478,0.6115043691524744,0.0064134375992113135,0.05434782608695876,1
0.6412380748899409,0.6534307979798962,0.8021475501009098,0.6112439750817634,0.0069477166775282345,0.04347826086959827,1
0.6323081214509281,0.6532698465857717,0.7979018528181095,0.5517302859655139,0.0064134375992118825,0.043478260869573404,1
0.6375519040393149,0.6425327529717093,0.8131520294672543,0.5961121367629798,0.0069477166775277766,0.04347826086957163,1
0.629458144045444,0.6364253991503348,0.8101621528792462,0.6049550279723864,0.006947716677528304,0.04347826086957873,1
0.6293314999256492,0.6237369410137453,0.8270413135287171,0.5069771291162827,0.006947716677527985,0.04347826086956452,1
0.6334705975151362,0.6102139538348876,0.8167420906986345,0.5302073822803391,0.006413437599211383,0.04347826086956097,1
0.7799704230598152,0.5739854528940261,0.7015613096982323,0.5940355012016193,0.005878740789012252,0.043478260869573404,1
0.8172028910741773,0.5774256069192124,0.40058212354679873,0.5618536863060041,0.0042754858221799585,0.043478260869573404,1
0.9735145605023188,0.6184140397158475,0.42373111821573745,0.49405522878475006,0.0021379517770321044,0.05434782608696764,1
0.6406997268544377,0.5356073280049773,0.8028444332633169,0.5177451749293412,2.3592239273284576e-16,0.05434782608697475,1
0.5270392246592157,0.5499661128470764,0.8542458379216173,0.589409220727174,0.004275485822180097,0.054347826086962314,1
0.5831208751169785,0.5979276567295475,0.8789108866895206,0.5788704533558173,0.007482413487727449,0.054347826086981854,1
0.5890102308552039,0.5863904925861712,0.8471608901144025,0.4328880851490353,0.008016692566043593,0.054347826086962314,1
0.5775504561533104,0.6098815683938434,0.8683564110566065,0.7568932092378688,0.008016692566043385,0.054347826086956985,1
0.535250077935312,0.6163670887220547,0.875100064711329,0.7801655166360815,0.008550971644360347,0.054347826086962314,1
0.537326327792573,0.6309002211849102,0.8823272242779376,0.4529984013007591,0.010154644343075614,0.05434782608696764,1
0.5254387358077278,0.6405957489961462,0.8706365121489881,0.3680198100180906,0.009619947532875553,0.05434782608695876,1
0.547733756964329,0.6632642411320182,0.8663001358250885,0.5899672259241905,0.009619947532875595,0.054347826086962314,1
0.5603668307120551,0.6658600792089004,0.844732260871502,0.6393413869359676,0.0069477166775284704,0.05434782608696942,1
0.575516792512818,0.6704644221630054,0.8394462454417186,0.498279171918428,0.008550971644360209,0.05434782608695343,1
0.5657106246449276,0.6646465611012301,0.8402977788968897,0.5599402889304679,0.009085668454559298,0.03260869565218094,1
0.5705406773389328,0.6644972783538652,0.837970492199052,0.5739262082405621,0.00855097164436,0.03260869565217028,1
0.5791738348884001,0.6662640018588921,0.8345705327831894,0.5458806691398785,0.00801669256604369,0.03260869565218627,1
0.5910620084669099,0.6686467470941576,0.8267743554150899,0.5712978516791888,0.008016692566043593,0.032608695652198705,1
0.5984727905178637,0.669807188882578,0.82116865970068,0.6267329072124377,0.006947716677528165,0.05434782608696942,1
0.597516510502007,0.6705730499063394,0.8247332934203127,0.5244096426145366,0.00748241348772731,0.05434782608696942,1
0.5976517419619688,0.6673503784541768,0.8221378218862998,0.4688380910925586,0.008016692566044134,0.05434782608696942,1
0.6030794642443063,0.6706658023943721,0.8212653467900715,0.45498819146310393,0.006947716677527679,0.054347826086962314,1
0.6034394924647954,0.6704533935929251,0.8177020723300188,0.6212239094055693,0.006947716677528026,0.06521739130434767,1
0.6035620438499738,0.6713596030585426,0.8201783086942451,0.5434068873477141,0.0058787407890127374,0.06521739130435833,1
0.6035640286329089,0.6703253061944447,0.8180933633953964,0.566017810057857,0.006947716677528193,0.06521739130436188,1
0.6033726515195739,0.6714084792707222,0.8199015029230747,0.6543159271873268,0.006413437599211577,0.06521739130434057,1
0.6038141418144052,0.6703050127118221,0.8183274270163132,0.5491356757910817,0.005878740789012377,0.03260869565218094,1
0.6029533153357554,0.6714151085978974,0.8196726318883438,0.5157532973913626,0.007482413487727657,0.032608695652204034,1
0.605696525860514,0.6703058468578987,0.8186251696033807,0.595509354338044,0.004275485822180486,0.03260869565219515,1
0.6046978074531355,0.6714098804025724,0.8180255247785148,0.5912890637676154,0.0064134375992118825,0.03260869565219515,1
0.6056327550194793,0.6703137887022268,0.8148611872715485,0.5052915375820703,0.006947716677528054,0.04347826086958939,1
0.6051977426030262,0.671400199604565,0.8155791720565575,0.5502820437175354,0.006413437599211827,0.043478260869568075,1
0.6036436036393313,0.6703246299525006,0.8169224542062211,0.6229943087888169,0.006947716677528054,0.04347826086957873,1
0.603384251509037,0.671388533438357,0.8194792515090306,0.566971711352983,0.004275485822180208,0.043478260869573404,1
0.6037023151291575,0.6703369500634047,0.8186638923309273,0.5087361840084277,0.005344461710695941,0.03260869565217561,1
0.6032975608334448,0.6713756027959532,0.8194095607680119,0.5645696736135329,0.006947716677528165,0.03260869565218627,1
0.6037821217747701,0.6703505667271064,0.8187509258889418,0.6124656830116714,0.005878740789012377,0.03260869565217561,1
0.6032263455026348,0.671361087399744,0.8193267379751557,0.531749886631521,0.006947716677528054,0.03260869565216851,1
0.6038457660678678,0.6703663861425058,0.8188288415997684,0.5266000257294378,0.003741206743863801,0.032608695652193376,1
0.6031691862949091,0.671343243844182,0.8192530581506029,0.6014319890877416,0.006413437599211716,0.03260869565219515,1
0.6038972766335486,0.6703875554376243,0.8188989761113236,0.5986426818702331,0.006413437599211605,0.03260869565220048,1
0.6031227342414904,0.6713162384333838,0.8191858848161444,0.5131827916367571,0.006413437599211855,0.032608695652184494,1
0.603939051682989,0.6704258097930593,0.8189636804972398,0.519400507803337,0.0069477166775281235,0.04347826086957163,1
0.6030854383370237,0.671252702510538,0.8191232205392469,0.6149795189157035,0.006413437599211855,0.04347826086958406,1
0.6039718867947095,0.6705664561950729,0.8190246967815005,0.5932999003248562,0.0069477166775277766,0.0434782608695663,1
0.60305724597955,0.6703622487965517,0.8190634707737829,0.5386711683846828,0.005878740789012377,0.043478260869573404,1
0.6039949991346831,0.6690300867485798,0.8190835818227924,0.4959955915203845,0.006413437599211758,0.04347826086958406,1
0.6030400167725598,0.6716657612831529,0.8190049825736316,0.607460716368225,0.006947716677528096,0.04347826086958406,1
0.6040049623757351,0.670121142682802,0.8191422881413317,0.6055539118511265,0.006413437599211619,0.0434782608695663,1
0.6030397100680522,0.6716271142959308,0.8189451316105281,0.5705177391049803,0.006947716677527888,0.04347826086958939,1
0.6039912917247965,0.6698223218842919,0.8192048991035833,0.5015709342641167,0.006413437599211952,0.05434782608696764,1
0.6030758298702368,0.6706305375631542,0.8188764691200449,0.562955990259544,0.006947716677528054,0.054347826086962314,1
0.6039138331068286,0.670518247113125,0.8192876395976068,0.586191669428038,0.006413437599211758,0.05434782608696409,1
0.6032464617195048,0.6713021611743469,0.8187547792293773,0.5395385869279707,0.0069477166775282345,0.054347826086962314,1
0.6034408890496525,0.6703424940718705,0.8195632628105197,0.5024811450540653,0.00587874078901221,0.05434782608696942,1
0.6071952622210046,0.6715605235118897,0.8151341816988787,0.5968713693047256,0.006947716677528096,0.05434782608695876,1
0.6203678803291577,0.6713553663546182,0.8027306033664944,0.6002360241854382,0.00481018263237927,0.05434782608696409,1
0.6234932862315017,0.6710874591783673,0.7991076356115088,0.5473618524306795,0.006413437599211383,0.054347826086956985,1
0.6266863416204346,0.6705510836115152,0.8004321848573182,0.49445324464126417,0.006413437599211758,0.043478260869573404,1
0.6225376660083273,0.671198312987465,0.7993437014453391,0.6089717366731175,0.006413437599211369,0.04347826086957163,1
0.6227828038434728,0.6705058229567558,0.8004033549341015,0.6039471877655143,0.006947716677528165,0.04347826086956452,1
0.6224936245551487,0.6712217255989712,0.7993079638733853,0.5567468370950426,0.006413437599212021,0.04347826086956452,1
0.6198492549440979,0.6704926013881698,0.80047306310758,0.5019852758800012,0.006413437599211549,0.04347826086957163,1
0.6158565384718211,0.6712293189789762,0.7992107633731366,0.5580996177913644,0.006413437599211716,0.04347826086957163,1
0.6191937994614252,0.6704884522270708,0.8018002197387712,0.6036062231056656,0.0069477166775280125,0.04347826086957163,1
0.6161318546427669,0.671231209609219,0.7990519478990976,0.5399745392474494,0.0064134375992115356,0.04347826086957873,1
0.6188003856352156,0.6704881181836633,0.8027750855728994,0.5225266616307147,0.006413437599211577,0.05434782608695876,1
0.6140766539179008,0.6712304296626221,0.7997352432910647,0.5882711687696189,0.005344461710696122,0.05434782608696942,1
0.6157162479764324,0.6704897194389505,0.8059068562812353,0.596784421640744,0.006413437599211647,0.054347826086956985,1
0.6132138611455471,0.671228207899458,0.8026547727138634,0.5219133886458878,0.005878740789012446,0.0543478260869481,1
0.6156519519708958,0.6704924199355163,0.8023760993487169,0.5050106895924998,0.005878740789012377,0.05434782608698008,1
0.6132509198998681,0.6712251310118038,0.8053882367124083,0.6061306544225294,0.006413437599211341,0.05434782608696764,1
0.6156449966013423,0.670495798113586,0.8061020540007044,0.6024370370972205,0.006413437599211438,0.054347826086976525,1
0.6132215830487168,0.6712215072525181,0.8018993845922567,0.5426293524342125,0.006947716677528082,0.054347826086976525,1
0.6157707626514215,0.6704996259389947,0.8010373258751833,0.4996969788150378,0.006413437599211411,0.054347826086951656,1
0.614640171045679,0.6712175061972261,0.8019735891670697,0.6069017894921946,0.006413437599211577,0.054347826086956985,1
0.6154396279698795,0.6705037776549365,0.8045523938092849,0.6025721269253456,0.006413437599211674,0.054347826086951656,1
0.6133757312592604,0.6712132197864104,0.8059917968570621,0.5504623159507432,0.0064134375992115356,0.054347826086951656,1
0.615550897889473,0.6705081882605542,0.8087660496095979,0.48911722382773004,0.005344461710695608,0.054347826086976525,1
0.6133163956852784,0.6712086907730987,0.8056448187270215,0.5803843280496239,0.006413437599211758,0.054347826086962314,1
0.6155982317123829,0.6705128341514566,0.8069975745232889,0.6200182165422667,0.005878740789012488,0.05434782608697475,1
0.6132705562383161,0.6712039254894746,0.8061876880067183,0.5362307144666166,0.005878740789012071,0.05434782608694455,1
0.6156477796910187,0.6705177253940828,0.8038464395803423,0.5193997648992751,0.005878740789012377,0.054347826086976525,1
0.6132128102828796,0.6711988974521139,0.8089337555917858,0.6040787998387346,0.005878740789012793,0.05434782608698008,1
0.6157197016976692,0.6705229057765499,0.8059438279322455,0.5891586970545053,0.005878740789012141,0.05434782608696764,1
0.6131162226077604,0.6711935437516012,0.8029651630440485,0.5232797814280239,0.005878740789012141,0.05434782608695876,1
0.6158639745703738,0.6705284602232817,0.8083855198491704,0.5083337630369862,0.006413437599211647,0.05434782608695876,1
0.612855080763868,0.6711877532206159,0.8049372425996764,0.6161709871661212,0.006413437599211383,0.054347826086981854,1
0.6167164934048068,0.6705345321107083,0.8050466407662259,0.592302277799666,0.005878740789012252,0.05434782608696764,1
0.6136746093213812,0.671181341953031,0.8040494197830563,0.5557937002056987,0.005344461710695914,0.054347826086956985,1
0.6175656671118397,0.6705413574851022,0.806242884397746,0.48580148681640717,0.005344461710696011,0.054347826086956985,1
0.6145633014415854,0.6711740054277573,0.8053649256372106,0.5910964196938019,0.006947716677528082,0.054347826086962314,1
0.6149748548141694,0.6705493326396784,0.8068715621411635,0.5965020332598998,0.004810182632379506,0.054347826086962314,1
0.6148539101618151,0.6711652217436357,0.8038587087084796,0.5788206139816502,0.005878740789012252,0.05434782608696942,1
0.6157802012805108,0.670559155335213,0.8045531283392523,0.49133548572573477,0.005878740789012252,0.0652173913043761,1
0.6125530822321157,0.6711540406217329,0.8089363308000947,0.5240751266651048,0.005878740789012182,0.06521739130436544,1
0.6146761627649373,0.6705721491066609,0.8048524007766864,0.6064033273566322,0.005878740789012377,0.06521739130436544,1
0.6124420489362641,0.6711385676804874,0.8065791980835213,0.6414865137217529,0.006413437599211647,0.06521739130435478,1
0.6150551746445061,0.6705911179814629,0.8105778378682964,0.5091594636625932,0.005878740789012377,0.06521739130435478,1
0.613678458950997,0.6711144735830663,0.8052601155605916,0.4738201763007977,0.005878740789012182,0.06521739130435833,1
0.6152759664624028,0.6706231222673393,0.8054648811423764,0.6081235864769663,0.004810182632379395,0.06521739130435833,1
0.6135846050053553,0.671069354670131,0.8065867597881737,0.6435460857023816,0.006413437599211508,0.06521739130432991,1
0.615319678541233,0.670692470877346,0.8097379499080108,0.5527591066022819,0.005878740789012377,0.054347826086956985,1
0.6135823428073103,0.6709458796193865,0.8048655124559061,0.48642029208289694,0.005878740789012307,0.054347826086956985,1
0.6152585660498822,0.6710098757297969,0.8041301542214023,0.5827305970546297,0.005878740789012099,0.054347826086956985,1
0.6163440844976998,0.6717447736931839,0.8048040161190332,0.586175796846502,0.005878740789012585,0.05434782608696942,1
0.6214847093989813,0.6721818749445239,0.8001479679621617,0.54033361368934,0.0064134375992115356,0.054347826086962314,1
0.6272508341621036,0.673909925431164,0.7964839404037789,0.5158978421400299,0.005878740789012252,0.05434782608696764,1
0.6258524321334615,0.6719453731563897,0.8006956485567944,0.5892273401362043,0.0058787407890121685,0.05434782608694455,1
0.6164339548977402,0.6735398573884335,0.8060459043832583,0.5748315078009018,0.006413437599211716,0.05434782608695343,1
0.6132032162183879,0.6695385624087974,0.8105326799206168,0.5226338080619274,0.0037412067438635926,0.054347826086951656,1
0.6080314593178733,0.6712181658924075,0.8111610536242887,0.5791278848989388,0.00534446171069608,0.05434782608696409,1
0.6108673552910494,0.6704027019962073,0.81277613921792,0.6216308745252823,0.0058787407890123905,0.054347826086962314,1
0.603863444893874,0.6713776697755266,0.8158285282302243,0.5238034149967415,0.005878740789012252,0.054347826086951656,1
0.6062231626004244,0.6701672624378732,0.8183591138195816,0.4922380141717615,0.005878740789012488,0.05434782608696764,1
0.606963087991059,0.6703488697722957,0.8124701568309196,0.5763506323272771,0.0058787407890120436,0.05434782608698008,1
0.6077407814210529,0.6706506247262507,0.8171431879504367,0.5931336864520954,0.005878740789012626,0.05434782608696409,1
0.6082977396209097,0.6711468469866686,0.8115195908620391,0.50644053180608,0.006413437599211549,0.05434782608698008,1
0.611857672642034,0.6705433134412981,0.8119466102371993,0.5543008296379848,0.005878740789012349,0.0760869565217277,1
0.6131229895389483,0.6711903626474548,0.8070636333180441,0.5949765225779904,0.006413437599211647,0.0760869565217348,1
0.605460832116507,0.6705207471043045,0.8157334491588601,0.48714791465266283,0.00587874078901221,0.07608695652174546,1
0.606466016148288,0.6712025615579852,0.8130089486840864,0.49956108091929186,0.005878740789012238,0.07608695652174546,1
0.6062429608170102,0.6705160464168262,0.8185326203042067,0.6157661139254618,0.004810182632379673,0.05434782608695343,1
0.6009925373289463,0.6711984669476959,0.8161307913285053,0.6371642856193711,0.005344461710696358,0.054347826086962314,1
0.6045216469211722,0.6705374714510146,0.818810528972965,0.5575140200782852,0.005878740789012182,0.054347826086962314,1
0.6024984378452317,0.6711128696449191,0.8142504162235493,0.5563004500080808,0.005878740789012071,0.054347826086956985,1
0.6065044137240738,0.6694857967095871,0.8188973579141366,0.6365115642074072,0.00587874078901221,0.05434782608696764,1
0.6096128884278248,0.671370074646598,0.809063919356589,0.578324309693297,0.00587874078901221,0.054347826086942774,1
0.6088914818310747,0.670397583480579,0.8129426852835036,0.5218146409850022,0.005878740789012377,0.05434782608698363,1
0.6051573975425619,0.6713021277063322,0.8069311422338713,0.5431354456205426,0.005878740789012141,0.054347826086962314,1
0.6114609139651852,0.6704359492824652,0.8136211024212943,0.6011440915664964,0.006413437599211716,0.054347826086951656,1
0.6101501197331386,0.6712456435187687,0.8045736293547074,0.5316018583320039,0.005344461710696108,0.05434782608696942,1
0.6083417077092106,0.6705922195856389,0.817222474411514,0.5191163002322216,0.0058787407890121685,0.054347826086962314,1
0.6031282172145889,0.6702118643901722,0.8120349262124558,0.5715133193881795,0.004810182632379256,0.054347826086951656,1
0.6039611077568664,0.6667034895139994,0.8308965190455302,0.6127337843432514,0.0053444617106961495,0.05434782608696942,1
0.6060770830257487,0.6866338859461144,0.8096751521987621,0.5266862420801428,0.006413437599211411,0.05434782608695343,1
0.5615933222078258,0.6868188311668563,0.8352051052162367,0.5121591137431682,0.005878740789012113,0.054347826086951656,1
0.5610618967182672,0.691970205612336,0.8151041382341995,0.609393802533287,0.006413437599211605,0.05434782608697475,1
0.5767489424079862,0.7013618804757874,0.865814330950812,0.6454733950332985,0.0069477166775282345,0.054347826086951656,1
0.5211069385663258,0.6755449431125878,0.8419665096258191,0.5251663200491432,0.00801669256604401,0.05434782608698008,1
0.5446503301546076,0.6173372756033834,0.8711799431395881,0.5633450775612403,0.007482413487727324,0.054347826086956985,1
0.5562355784988409,0.6213928381865671,0.8752955481298788,0.6750398456696369,0.007482413487727491,0.05434782608696942,1
0.5159384412350965,0.5821325768499224,0.888317612519657,0.5758011231005289,0.00801669256604362,0.06521739130434767,1
0.5345241654704327,0.5927627636287349,0.8868866942213616,0.5185976524753995,0.008016692566043274,0.06521739130433346,1
0.47481108863632243,0.5734078656643383,0.9153820583680887,0.5293827173461586,0.007482413487727449,0.06521739130435478,1
0.7523787667335413,0.5951216012107674,0.6835805307595404,0.5221825146160685,0.008550971644360056,0.06521739130434767,1
0.867117058279903,0.5987728703912936,0.5135843705943766,0.5475703069526612,0.004275485822180375,0.054347826086956985,1
0.8159563882621192,0.5872857370806757,0.5743216118311825,0.43531662913367863,0.0032065099336646002,0.05434782608697475,1
0.8537446868999676,0.5982269843870497,0.5443747163471193,0.5403227303821683,0.0010689758885159412,0.05434782608696409,1
0.8090048340234177,0.5922552588138126,0.5984112641816292,0.5504358846177687,0.001068975888516302,0.05434782608698008,1
0.824151326786883,0.5989037218128509,0.5975464726010926,0.703881030723744,0.0010689758885160244,0.05434782608697475,1
0.8043086736995706,0.5867058739647952,0.6295980097304725,0.6038676886041846,0.0005342790783165047,0.054347826086951656,1
0.7922957635605701,0.5987764748852498,0.6537683336928803,0.4957995019651973,0.0010689758885159828,0.05434782608695876,1
0.7742435622930475,0.5980043606996379,0.6680762609053871,0.4828078217549634,0.0010689758885158718,0.054347826086956985,1
0.7890045026064039,0.6002580689042523,0.6619456355173974,0.5015764222901722,0.0016032549668320156,0.05434782608697475,1
0.7677311738254766,0.5977857813195812,0.67901590500825,0.6407954218639599,0.00106897588851608,0.05434782608695876,1
0.7713454671446056,0.603503279732147,0.6840707059069244,0.4573483319963973,0.002137951777031896,0.054347826086962314,1
0.7632741660814137,0.6048366318242656,0.6851940050991029,0.395343935497937,0.0021379517770319656,0.054347826086956985,1
0.7684653815271514,0.6058799848585847,0.6902741006354669,0.5426822701358629,0.002137951777031341,0.054347826086951656,1
0.7540922747664203,0.6021266933541267,0.6959202469975316,0.6436550545916911,0.002672230855347721,0.05434782608696764,1
0.76162946986576,0.6064566175581965,0.693202846592731,0.5632542346809477,0.0026722308553481927,0.05434782608696764,1
0.753129386491111,0.6058735658272943,0.6952406096415171,0.5901963315913403,0.0026722308553483037,0.054347826086976525,1
0.7609187490999645,0.6055706234264818,0.6933943391346412,0.6065156805446075,0.0032065099336646974,0.043478260869568075,1
0.7520058683737385,0.6065265078614779,0.7009065025865555,0.5378271414561323,0.0032065099336647668,0.04347826086957873,1
0.7609152031892135,0.606427141970208,0.7048148032829062,0.6132584269144452,0.0032065099336643504,0.04347826086956452,1
0.7520625638442615,0.6036792359269598,0.7037180291820911,0.5848017769957656,0.0005342790783166712,0.0434782608695663,1
0.7608635021712231,0.6044233946528693,0.7058936547139367,0.5411487441197513,0.001603254966832321,0.04347826086958406,1
0.751336988239949,0.6009049382967753,0.7030066733562146,0.6075940009313806,0.002672230855348165,0.043478260869553864,1
0.7589394210486591,0.6072738252175852,0.7077359311276936,0.588613684060213,0.0021379517770319934,0.04347826086957163,1
0.7469693511425832,0.6039249496565537,0.707867692558933,0.526704866733325,0.003206509933664503,0.04347826086958406,1
0.7517513787277306,0.6086959513551055,0.7134648786076092,0.5966220146013624,0.0026722308553481927,0.03260869565218805,1
0.7453206739886888,0.6048782899549312,0.7108857877749647,0.6000116231166691,0.003206509933664878,0.032608695652204034,1
0.7492375099243713,0.6077769744463902,0.71698734588963,0.5427321596732256,0.0021379517770315215,0.032608695652193376,1
0.7461557832539871,0.5951525423451786,0.7089611272107679,0.5472518301516688,0.0026722308553480956,0.032608695652173836,1
0.7326773358882794,0.6039193469348959,0.7212947438709716,0.6099033771456543,0.003206509933664392,0.04347826086955742,1
0.7976161667134307,0.5745174743705791,0.6819496882163903,0.5564970515749063,0.003741206743863662,0.04347826086957163,1
0.827606891391262,0.5692430707371786,0.576078177221903,0.5264279343605289,0.002672230855347818,0.04347826086956097,1
0.9415034208110129,0.6884867608696766,0.38859962428308537,0.566139634260132,0.001603254966832321,0.043478260869568075,1
0.8153271339199339,0.7611559671831439,0.4398459879078663,0.6023657653660586,0.0005342790783164769,0.0434782608695663,1
0.5653625831104023,0.8076071931317548,0.539757354522918,0.5537941452103181,0.0005342790783167545,0.04347826086957163,1
0.7094032170096547,0.8688465547331212,0.47659920696171026,0.6262740840606275,0.0,0.043478260869568075,1
0.5521090457726863,0.8638679843317659,0.41419700693035655,0.446538877544971,0.0005342790783169626,0.04347826086958939,1
0.7128262509715813,0.7494471564256766,0.6056790355308429,0.5475592898643211,2.0816681711721685e-16,0.04347826086957163,1
0.48224979672104534,0.564587877358739,1.0,0.519700380896418,0.0010689758885158857,0.04347826086957163,1
0.5611815932532609,0.6030659411078416,0.8216842272145554,0.5044394742623982,0.005344461710695608,0.04347826086957163,1
0.8394531101446423,0.6054051373462103,0.6025486994563579,0.6676504299713225,0.004810182632379811,0.04347826086958406,1
0.8796974797450716,0.566410942539521,0.4135475357631083,0.8302866274406915,0.0026722308553478596,0.043478260869543206,1
0.8421167986893892,0.6483545289762935,0.29764977919818186,0.8675052325401111,0.0016032549668323903,0.04347826086957163,1
0.8924954803147691,0.6262389910918194,0.25353665191536734,0.1709296115516616,5.273559366969494e-16,0.04347826086957873,1
0.7969571470342218,0.6706108416735637,0.47290414700918537,0.31754347719403453,0.001603254966832765,0.04347826086958406,1
0.5233777561438296,0.6039763594210797,0.8745539489125715,0.49236892769028384,0.002672230855348026,0.032608695652193376,1
0.57936320108243,0.5432877772331839,0.9152848712936572,0.5649154343793076,0.004810182632379478,0.03260869565218805,1
0.5598493866827439,0.5812217155570175,0.865293263637932,0.5889559942970244,0.004810182632379201,0.03260869565218805,1
0.5910865883404397,0.5738552424736068,0.8708957993143758,0.7166697652037424,0.004810182632379742,0.03260869565217561,1
0.5999834277195826,0.5857196150307669,0.8434055757259766,0.6710286850810645,0.0048101826323795754,0.03260869565218805,1
0.6672802983513773,0.5865500194656574,0.8129979581708832,0.530245432796955,0.0032065099336644337,0.032608695652173836,1
0.6538058525068823,0.5875508704623205,0.8000045067121255,0.4923975544168062,0.0032065099336642533,0.03260869565217028,1
0.6732425365078156,0.5960660886429635,0.8003454959234901,0.5425188915953739,0.0032065099336645586,0.032608695652179165,1
0.6855172277808117,0.6033747718348424,0.7754004533330334,0.5917452831933966,0.0026722308553478458,0.02173913043477249,1
0.6843374330616125,0.6014735378278913,0.7867314201950888,0.6083509788362123,0.002137951777031716,0.021739130434795584,1
0.6442333570374625,0.6018586685067169,0.8070819413750407,0.47424801386555154,0.0037412067438637314,0.021739130434795584,1
0.6569952309717875,0.601877320769998,0.8108924566385874,0.5022414832775581,0.0037412067438634955,0.021739130434800913,1
0.6306214030029673,0.6018894307246379,0.8140785084633069,0.47484285760596084,0.003741206743863565,0.03260869565218627,1
0.6391018163991589,0.5977038261717863,0.817052992992408,0.5681503121145832,0.004275485822180444,0.032608695652198705,1
0.6901289618092059,0.6053450886820564,0.775747415756826,0.5440717237883484,0.003741206743863801,0.032608695652184494,1
0.6879916855269956,0.6024314026446275,0.7760978602939319,0.5050642574469556,0.0026722308553478596,0.032608695652184494,1
0.6948183629623994,0.6058040281122655,0.7676529763559428,0.5191164406265891,0.0032065099336642117,0.03260869565218094,1
0.6866604946218766,0.5957131827032542,0.7812700102830953,0.6260001235163369,0.001603254966832321,0.032608695652179165,1
0.6952033850995294,0.6025422616192085,0.7733960252561498,0.5344448029465355,0.0026722308553479984,0.03260869565217028,1
0.6787398050276053,0.5933634298482316,0.7892145546878457,0.47542417367412043,0.0037412067438634955,0.03260869565217028,1
0.6850186575843484,0.6040134651484262,0.77451723455953,0.6111207099151192,0.0010689758885162326,0.021739130434793807,1
0.6774586148646062,0.5776703517494353,0.8631321114392863,0.6520104526835052,0.0026722308553484425,0.021739130434813347,1
0.6778484548428387,0.6937324619750833,0.8865520033363579,0.5671697342376055,0.0016032549668322238,0.021739130434795584,1
0.3878911530040997,0.8932010172022486,0.5922519179886125,0.5086512558510092,0.0037412067438640784,0.02173913043480269,1
0.21344712480466904,0.9192612354438394,0.6140013368976982,0.5984987310797031,0.00320650993366442,0.02173913043478315,1
0.23460847809810007,0.954474459127061,0.654552347207437,0.5975347785079039,0.004810182632379742,0.021739130434800913,1
0.24403276844142405,0.9644780210423458,0.6509895758080404,0.44880873292884094,0.0074824134877271575,0.021739130434793807,1
0.22327078721548455,0.9625592360260585,0.6347178170138132,0.5458638196934524,0.006947716677528096,0.021739130434795584,1
0.2508771858436327,0.9636233271374359,0.6567819266052612,0.6956691308580057,0.009619947532875942,0.021739130434765386,1
0.16700209977327501,0.8933677712476992,0.581168143858125,0.6895775543603448,0.008016692566043856,0.021739130434795584,1
0.6624910965970845,0.7745051584372293,0.6848076518210431,0.593129643940806,0.0058787407890121685,0.02173913043480269,1
0.6083849678854171,0.635649198841926,0.9442047188944529,0.5055874532181661,0.002137951777031577,0.02173913043478848,1
0.5555526903228891,0.5872156422361758,0.8800055394576782,0.6265503518495081,0.005344461710696108,0.032608695652179165,1
0.6233030002292699,0.6014118762941018,0.8493165157038038,0.6218503778327896,0.0042754858221800696,0.03260869565219515,1
0.5937151890186134,0.5876206467998948,0.842552222005561,0.5363362123618468,0.00641343759921148,0.03260869565218094,1
0.5846582594937905,0.5939804536440751,0.8675975228851052,0.7102777135013966,0.006413437599211827,0.032608695652193376,1
0.5493297744758103,0.5847035159357046,0.8685711343623584,0.4757370862841522,0.006947716677528082,0.021739130434795584,1
0.5991674909573508,0.6076720285798105,0.8608904027812219,0.40782514391814617,0.00748241348772738,0.02173913043478315,1
0.5825020485528372,0.602253430236776,0.8478391485557137,0.5672343222770283,0.00694771667752829,0.02173913043480269,1
0.6032765351147207,0.609481073376929,0.8511071259295255,0.5738635775400597,0.006413437599211716,0.021739130434770715,1
0.5812503161019906,0.6008437493920603,0.8494520455701114,0.5354321980294893,0.006413437599211577,0.021739130434795584,1
0.5867367881779966,0.599684482371891,0.8627103114715016,0.47736829441059064,0.006947716677528054,0.02173913043478848,1
0.5579335470941074,0.5931656883270489,0.8670424509786094,0.5749324144801656,0.006413437599211272,0.021739130434770715,1
0.5909047675591353,0.6012470061865652,0.8605712501749909,0.5614216269194876,0.007482413487727255,0.021739130434790255,1
0.5892898611446659,0.5998221501836809,0.8488324389150873,0.5363560810309681,0.007482413487727421,0.02173913043478315,1
0.6127821576306558,0.6060283611122276,0.8432574350492215,0.5801200310544338,0.006947716677527874,0.02173913043480802,1
0.6066180276932964,0.6023586680606977,0.8358527974310084,0.6346366646652493,0.007482413487727491,0.02173913043480802,1
0.6181682397367232,0.6057095797993095,0.840425052352293,0.6199512373477591,0.004275485822180541,0.021739130434793807,1
0.6074515296262446,0.6033465195181529,0.8360335609039582,0.4656890511973175,0.005878740789011697,0.010869565217387134,1
0.6182731185019781,0.6079830031915922,0.8387473863014797,0.5058206152346633,0.006413437599211577,0.010869565217404897,1
0.6078562652877517,0.6052679823865557,0.835497414685547,0.5153974104632593,0.006947716677527804,0.010869565217378252,1
0.6180228990901194,0.6082614336469563,0.8401876232580348,0.567175738615619,0.0069477166775281235,0.01086956521738891,1
0.6104429476922573,0.6052693644842438,0.8364079298856166,0.5336013377815967,0.003741206743863898,0.02173913043478848,1
0.6117781659473647,0.6082555756903156,0.8400286245825591,0.5524921006556192,0.006413437599211619,0.021739130434784926,1
0.6050578714093533,0.605228763348615,0.8365304703972603,0.5702838695251723,0.007482413487727116,0.021739130434793807,1
0.6087164321198162,0.6084413585922006,0.8398516870705045,0.5755658893506089,0.006947716677528054,0.02173913043478315,1
0.6048623816043985,0.6037949617656706,0.837520493316866,0.5094528392638562,0.00694771667752829,0.03260869565217561,1
0.6131236988927646,0.6073003728295259,0.840410004079647,0.5615106774203696,0.007482413487727074,0.03260869565218094,1
0.6042667407458351,0.6034605066997314,0.8362880905136305,0.615196959322479,0.006413437599211827,0.03260869565218805,1
0.6119200298292902,0.6058447602715372,0.8401742638232605,0.5865437575125498,0.006947716677527818,0.032608695652184494,1
0.6056145608729676,0.6044562437403938,0.8362700884007409,0.5168312333812505,0.006947716677527804,0.03260869565217561,1
0.6073323940450182,0.6034444477530685,0.8408383879741808,0.5485477096589374,0.008016692566043787,0.03260869565217028,1
0.6018656557599553,0.5982698868698767,0.8395935527616509,0.6211090351381054,0.005878740789012113,0.03260869565217561,1
0.6067603250684173,0.6005957379452164,0.8475078756695137,0.584628897640662,0.006947716677528193,0.03260869565219515,1
0.6005059652063183,0.5977487963208471,0.8457883462363764,0.5492492425592612,0.00587874078901196,0.043478260869543206,1
0.6065826167821908,0.5997022597555994,0.848382443851486,0.5050267322021927,0.006947716677527957,0.04347826086955742,1
0.5999389203784049,0.5977996124743479,0.846966498251992,0.6023368842144119,0.006947716677527943,0.0434782608695663,1
0.6066438033913828,0.5997617597025985,0.8476309589762416,0.5889220510124509,0.006413437599211716,0.04347826086957163,1
0.603176062400504,0.5969711162625344,0.8413690741525249,0.5755456336476227,0.006413437599211577,0.04347826086957696,1
0.6048526131246503,0.5963774110495283,0.8487787945808265,0.5037350638254968,0.006947716677528096,0.04347826086957873,1
0.6020418745726505,0.5968242354720896,0.8454800928707399,0.5602437116575699,0.007482413487727532,0.04347826086957696,1
0.6056578133192939,0.5978719861066277,0.8469737039181349,0.5824664700022311,0.006947716677528165,0.04347826086958939,1
0.6054173457237125,0.5976548679088511,0.8403428652672105,0.5924059528900223,0.006947716677527915,0.043478260869568075,1
0.6106198255558749,0.5997049410170321,0.8407755597187099,0.5420761215021745,0.006413437599211674,0.04347826086958406,1
0.6062995352443826,0.5978563975018861,0.8368654238864621,0.54027632880014,0.007482413487727088,0.0434782608695663,1
0.6092786011037239,0.5995948119197417,0.8397759216608667,0.5898049092614718,0.005878740789012141,0.0434782608695663,1
0.604352693198043,0.5979468550410865,0.8369109177417487,0.5791477723991566,0.006947716677528026,0.04347826086956097,1
0.6051055785686179,0.5994939349361379,0.8463664948108647,0.5488775797465628,0.00748241348772738,0.04347826086957163,1
0.6018108281963013,0.5981216265861556,0.8438102598632221,0.5474705377781643,0.006947716677527735,0.04347826086956097,1
0.6052342614473176,0.6004120311916268,0.8496178203173027,0.583520502880016,0.008016692566044079,0.04347826086958584,1
0.6018326290063197,0.5982508565120079,0.842993561362667,0.5623910655396568,0.008016692566043343,0.043478260869568075,1
0.6051751972523675,0.6004463800202741,0.8414083197000576,0.5173971930284629,0.008016692566044106,0.04347826086958406,1
0.6019052723350298,0.5976443073604507,0.8437585362001024,0.5527627928202586,0.0053444617106961495,0.04347826086958939,1
0.6050953343174561,0.5997522523397796,0.8468136749332035,0.5961227253736805,0.00801669256604344,0.043478260869568075,1
0.6019916869321602,0.5977857811241306,0.8426962526520421,0.5618209294716133,0.007482413487727449,0.0434782608695663,1
0.6049993300808552,0.5996940641372357,0.8458449889576352,0.5155000208644597,0.007482413487727282,0.04347826086957163,1
0.6021063385207428,0.5978056583790828,0.8461214454656829,0.5554101162737873,0.006413437599211674,0.04347826086957163,1
0.6048377123175973,0.5997061714956105,0.843754786980732,0.5982350258601099,0.00801669256604394,0.043478260869573404,1
0.6024732230944434,0.5977477097125755,0.8437343745279555,0.5600877161500962,0.0053444617106960385,0.04347826086956097,1
0.6061724917550451,0.5998779585604829,0.8468548084256748,0.5198148767352236,0.008016692566043454,0.043478260869553864,1
0.6018895444673058,0.596331001766619,0.8433986456522442,0.5577222259926252,0.007482413487727491,0.04347826086957873,1
0.6050098310188592,0.5987765208276576,0.8492327277497016,0.5978785607762432,0.006947716677528443,0.04347826086957873,1
0.6020710108158956,0.5982122653213734,0.845060610876009,0.5543374371292953,0.008016692566043829,0.06521739130436544,1
0.6072148629218315,0.5994221577857117,0.8450871251547251,0.523786559510892,0.007482413487727518,0.06521739130435833,1
0.609792503593579,0.5979232081452599,0.8368774839946405,0.5630002578904809,0.00748241348772731,0.06521739130434412,1
0.6162034538195915,0.601944238221403,0.839701043971896,0.5823907241816869,0.00748241348772738,0.06521739130434057,1
0.6131507285761842,0.6050304386454256,0.8368076560035498,0.5280510996290114,0.007482413487727227,0.043478260869568075,1
0.6123402247191188,0.605764588840146,0.8396777590577136,0.5649885764787645,0.006413437599211827,0.04347826086956097,1
0.6075143823695462,0.6015837867870776,0.8368265985263843,0.6133575171822264,0.006947716677528151,0.04347826086956097,1
0.6087188064293303,0.6053847787722575,0.8396616008441903,0.5519773579312218,0.006947716677528054,0.0434782608695663,1
0.6047573797766341,0.6008410716841279,0.8368512208164898,0.5270227503492215,0.0069477166775280125,0.06521739130434767,1
0.6061173278396883,0.5995748361457979,0.8395721653296959,0.5879029414245008,0.007482413487727657,0.06521739130437965,1
0.6044276405301972,0.5979151132131536,0.8386161094923172,0.5700669541383624,0.0074824134877277265,0.06521739130436188,1
0.6043194143406045,0.6002266822672611,0.8418615546449487,0.5032894497123706,0.006947716677527638,0.06521739130434412,1
0.6025323791984885,0.6006426917466707,0.8378992292663905,0.5590010517075926,0.006947716677528165,0.06521739130436544,1
0.6045657340903084,0.5990136465906304,0.8401821755322489,0.6148071654783829,0.008550971644359986,0.06521739130435833,1
0.6024600215058108,0.5983658317376843,0.8401040619520987,0.5741309102876508,0.004275485822180347,0.06521739130435478,1
0.6045808235412986,0.5991769625375771,0.843416342086623,0.5173262110735899,0.006947716677527749,0.06521739130433701,1
0.6024725103091553,0.5982993077991732,0.8423388666207412,0.518758471090583,0.005878740789012182,0.05434782608696409,1
0.6045503261522536,0.5992069287920931,0.8429828546961028,0.6261311387906977,0.007482413487727518,0.05434782608695343,1
0.6025195433407208,0.5982905446797477,0.8401609100451042,0.5816558279196351,0.0069477166775282345,0.05434782608697475,1
0.6044815269654875,0.5991973882896586,0.8418418741540827,0.5791680402778155,0.0069477166775277766,0.054347826086956985,1
0.602628555838024,0.5983254287331786,0.8394030445400673,0.48795218614201175,0.0069477166775277766,0.054347826086962314,1
0.6042612719068343,0.5991001672641848,0.8429163361809778,0.569110267042495,0.006947716677528151,0.05434782608696409,1
0.6038787486655752,0.5989184605539634,0.8386909204721598,0.5972753466361359,0.00694771667752761,0.054347826086962314,1
0.6063094674731899,0.600183395438302,0.8420997090056068,0.5876537646762517,0.006947716677528026,0.05434782608696764,1
0.6021651190016744,0.5991469047074275,0.837712644656877,0.5215687033343746,0.007482413487727255,0.06521739130434767,1
0.6047260931721765,0.6009511682643185,0.8443094913694924,0.5419198013043919,0.006947716677528026,0.06521739130435833,1
0.6023911041709419,0.6001333164779973,0.8392694113386989,0.5889179797329759,0.006947716677527735,0.06521739130434412,1
0.6045955777740224,0.6016781413514712,0.8444108366237968,0.5819355218901121,0.005344461710695761,0.06521739130435833,1
0.6038656566052033,0.5988035164747461,0.8376349373919103,0.5175458875798225,0.00694771667752829,0.054347826086951656,1
0.6044709620005199,0.6016318861740211,0.8421397989714772,0.5479786639363602,0.007482413487727255,0.05434782608696409,1
0.6027700543061576,0.6015437741759897,0.8364437880623627,0.5916512263710465,0.006413437599211383,0.05434782608696764,1
0.6089684579152889,0.6041887531513054,0.8400850630495441,0.5790392865063723,0.00748241348772738,0.054347826086951656,1
0.6079909100804508,0.6032236942037253,0.8364012129824314,0.5153395759114139,0.006947716677528443,0.06521739130436544,1
0.6093121648737632,0.6052278324629957,0.8400996895226853,0.5402388142599153,0.006947716677528151,0.06521739130436544,1
0.6048760816057248,0.6058774649767895,0.836400748709041,0.604503322329041,0.006413437599211758,0.06521739130434767,1
0.6054664151888127,0.6048243887781816,0.8400525951773425,0.5812366633132164,0.007482413487727532,0.06521739130434767,1
0.6057867418368081,0.6033936138833831,0.8368944819897406,0.5324436597701151,0.007482413487727463,0.07608695652173836,1
0.605036957335479,0.5994024045094329,0.8451475728099198,0.5224830638936845,0.007482413487727282,0.07608695652174546,1
0.602282085366447,0.5982949787121097,0.8404903418821207,0.5950818984366258,0.005878740789012252,0.07608695652173836,1
0.6046848067805928,0.5996272971624423,0.8433672862643207,0.5791478328240328,0.006947716677527888,0.07608695652175257,1
0.6024115307829239,0.6006329627517512,0.8406939314874543,0.5319928658567196,0.00694771667752829,0.0652173913043761,1
0.6045710949227174,0.6002326379734261,0.8452209361763805,0.5334239837749211,0.007482413487727185,0.06521739130435478,1
0.6025567061723298,0.6003758438849562,0.8429041035487189,0.5991084901822118,0.006947716677527943,0.06521739130437254,1
0.6043251342321316,0.6045490802982914,0.84375010855317,0.5618213037837723,0.006947716677528359,0.06521739130434767,1
0.6031465301635341,0.6000908438163793,0.8436615530791085,0.5329136799465006,0.006947716677527957,0.06521739130435478,1
0.5987112001624278,0.5991722252703906,0.8503575214439936,0.5654789207801486,0.007482413487727282,0.06521739130434412,1
0.5926700838244832,0.5987363667958078,0.846114568617315,0.5925705084477653,0.007482413487727352,0.06521739130435833,1
0.5984852932949389,0.6000359528508614,0.8524511585172891,0.5221463871604568,0.006947716677528193,0.06521739130436544,1
0.5915563464826412,0.5978733730644827,0.8447890761904998,0.5293542089559024,0.006947716677527804,0.07608695652174546,1
0.5936240599172407,0.5996157096006246,0.8507170318034418,0.5674627001592321,0.006413437599211619,0.07608695652175257,1
0.5946559119242888,0.5966792215634895,0.8447921823945033,0.5906935751273243,0.005878740789012321,0.07608695652173836,1
0.6039574586516407,0.5961677504935683,0.8510929004312167,0.5479753593115301,0.00748241348772756,0.0760869565217277,1
0.6006929539337595,0.5918581640268503,0.8443647583970382,0.5393435516017095,0.006413437599211688,0.06521739130436188,1
0.6154122334465317,0.59534534422536,0.8406357785630515,0.6003050184163202,0.006413437599211855,0.06521739130436188,1
0.6057273882072516,0.5967127717045922,0.8411587545116336,0.59225686848318,0.00748241348772774,0.06521739130435833,1
0.6041416880626704,0.5996706844792223,0.8475732371525608,0.5576268462291717,0.006947716677527735,0.06521739130436544,1
0.6023750998592841,0.5979307326657344,0.8410168043939339,0.5304674428079686,0.0069477166775282345,0.06521739130434767,1
0.6055268977003361,0.5995376048390274,0.8463232835196636,0.6089609664724639,0.0069477166775280125,0.06521739130436188,1
0.603874557123959,0.5979657354572815,0.8350445342219059,0.5304834143596019,0.006947716677528151,0.06521739130436899,1
0.6053837234260977,0.5995418317087077,0.843328855675638,0.49785260327906883,0.006947716677527888,0.06521739130435478,1
0.6018604030700919,0.5979103994959091,0.8365183169219003,0.5515968315720237,0.006413437599211577,0.06521739130435478,1
0.6052296471075477,0.6000373678969578,0.84531434735642,0.6097461751003863,0.006947716677528026,0.06521739130433701,1
0.6017240732140423,0.5999892824516465,0.8389229728873404,0.5469625785922476,0.006947716677528193,0.06521739130436188,1
0.6054274026165412,0.6002135845967466,0.8506051862315731,0.5143223773203592,0.006947716677527679,0.06521739130435478,1
0.6014851701984925,0.5976848842371008,0.84385989289646,0.58172442456267,0.007482413487727255,0.06521739130436188,1
0.6057095603130771,0.5997685861626174,0.8522388912148255,0.6137021328340684,0.00748241348772781,0.06521739130436544,1
0.6011517212329425,0.5977271011451792,0.8430648793907073,0.5389546328316115,0.006413437599211577,0.06521739130436188,1
0.6061016473361656,0.5997655274105996,0.853049502006917,0.5266217455109573,0.006947716677528429,0.06521739130436544,1
0.6007333264557508,0.5978890022441554,0.8421187008116312,0.5963243886780244,0.007482413487727255,0.06521739130435478,1
0.6082386785651908,0.6020268551709798,0.8542209958476841,0.5996177150204374,0.006947716677527541,0.06521739130434767,1
0.5994071341213651,0.5971368316589292,0.8405985707091488,0.5325248161883405,0.006947716677527818,0.06521739130434767,1
0.6085086643807204,0.6055016372618155,0.8540431425237462,0.5282895634204527,0.005344461710695844,0.06521739130434767,1
0.5949297984829867,0.5985689760454783,0.8320278921238375,0.5857755204377891,0.006947716677528193,0.06521739130433701,1
0.6093225478697051,0.6030324951570155,0.8687490508011075,0.5836736574638499,0.006947716677528165,0.06521739130436188,1
0.650420737907257,0.5663882835027678,0.8184950207801664,0.5145392448550169,0.006413437599211369,0.06521739130436544,1
0.7874822877193492,0.5997742547936211,0.5457310764210122,0.5659016105626518,0.006413437599211813,0.06521739130437965,1
0.8887528231596689,0.6447433344701796,0.4927188347258843,0.5931112522798749,0.004810182632379714,0.07608695652176323,1
0.9070534123180378,0.6194974636972324,0.7107999326245711,0.5650379801677304,0.00267223085534829,0.07608695652175257,1
0.5970984773371977,0.6957411423807328,0.5587084043412298,0.48251188906646175,0.002137951777031924,0.07608695652176323,1
0.6585292884115546,0.6972181804257943,0.7837778327961428,0.5396015156054059,0.0026722308553484286,0.07608695652174546,1
0.6750064285110575,0.6377057564999458,0.8663928059811292,0.5542667870873499,0.004275485822179834,0.07608695652173836,1
0.4786509194001831,0.678026856458462,0.8545756779280669,0.49326148260804087,0.003741206743863898,0.07608695652175257,1
0.41009664021669767,0.6452584368239848,0.9277513554027152,0.5380421213228428,0.005344461710695844,0.07608695652175967,1
0.44906234776978987,0.6204647746777611,0.9036328343870395,0.7636484984828888,0.008016692566043718,0.07608695652174546,1
0.5023266789706596,0.6177453084186396,0.9150289914692742,0.8305825471902191,0.00801669256604344,0.0760869565217277,1
0.5319281917863975,0.6131027696610236,0.8793036221020953,0.5224050777587831,0.008550971644359917,0.07608695652177389,1
0.5305815144096532,0.6260350311040062,0.8888646184683264,0.5668609754841689,0.007482413487727227,0.07608695652176323,1
0.5265825090396161,0.6149782366715442,0.8826778409285858,0.5431348731435689,0.007482413487727796,0.07608695652175257,1
0.5342657170195112,0.6052279799839216,0.8933537848292137,0.376678235029283,0.00801669256604369,0.07608695652175257,1
0.544242716539475,0.5990054004689347,0.8780802526092013,0.47212634692489386,0.008016692566043718,0.07608695652174546,1
0.5442933595483639,0.5947236693349383,0.885839387202654,0.5331154533312008,0.008016692566043648,0.07608695652173836,1
0.5359196447857051,0.5952346895336542,0.8818857011217727,0.54713211409236,0.008016692566043787,0.07608695652174546,1
0.5278113405478297,0.594706419782724,0.8929650789535271,0.581800477517635,0.007482413487727116,0.07608695652173836,1
0.5132017525657071,0.5916649695254474,0.8993458701417314,0.5615676122644792,0.0069477166775281235,0.07608695652175257,1
0.5636564535997437,0.6047836858765435,0.8708364332605425,0.6131820798744265,0.006947716677527527,0.07608695652171704,1
0.634235826067514,0.6156894731348961,0.8131599988775953,0.5386539696104293,0.00748241348772738,0.07608695652174902,1
0.5460404038642366,0.5988389953895792,0.8795855911181709,0.5223913791989919,0.006413437599211716,0.07608695652175967,1
0.5793812573548294,0.6025174282295098,0.8585583794226994,0.5447795323743857,0.006947716677527804,0.07608695652175612,1
0.5944136646444028,0.6079267706537447,0.8557226672089637,0.5875732348997823,0.006947716677528193,0.07608695652175257,1
0.593299913418725,0.6145378275067426,0.8460635659447329,0.5256747230669119,0.004810182632379367,0.07608695652173836,1
0.6013977079498773,0.6234811546309088,0.8435448940779976,0.5674020814989054,0.003741206743863773,0.07608695652175612,1
0.6055527558519089,0.626367589774361,0.8341799611295111,0.5637215175513421,0.004810182632379506,0.07608695652173836,1
0.6066067415310783,0.6262840986988202,0.8322602974812505,0.5762615551649511,0.003741206743863662,0.07608695652175257,1
0.60740050217969,0.6227507040230978,0.8348256328786239,0.5095908681586884,0.0037412067438637314,0.07608695652175257,1
0.6012774086843695,0.6179772818934942,0.8428375559086239,0.5504087973852285,0.0032065099336644615,0.06521739130435478,1
0.5796369031423594,0.6031114832116744,0.859283654431604,0.6062070808764679,0.0037412067438636204,0.06521739130433346,1
0.5524816525503908,0.5838011328415328,0.879905923881374,0.5592001853149221,0.004275485822180514,0.06521739130436899,1
0.5628238560449323,0.5817615885337049,0.8716856189071424,0.5224423227384009,0.004275485822180097,0.06521739130434767,1
0.5727011517476304,0.58670924091204,0.8708829272715086,0.6075478608105989,0.004275485822180347,0.07608695652175967,1
0.5824748196179881,0.5932207534709008,0.8581313945420482,0.6159180800768813,0.004810182632379881,0.07608695652175257,1
0.5809409613778471,0.5977657326296977,0.8604501878747461,0.5692913478949009,0.004810182632379548,0.07608695652176678,1
0.574862807328859,0.5966479852375537,0.8642064236900178,0.5027558916638285,0.004810182632379714,0.07608695652173836,1
0.571059397913808,0.5974443960338726,0.866984345976948,0.5021362749253497,0.005344461710695941,0.07608695652174546,1
0.5784785642085377,0.597881577670169,0.8635521893633422,0.587097750870616,0.005344461710695844,0.07608695652174546,1
0.5734568422093964,0.5987026173867168,0.865647256892482,0.5367828678584174,0.005344461710695733,0.07608695652175257,1
