wrist_ACC_1,wrist_ACC_2,wrist_ACC_3,wrist_BVP_1,wrist_EDA_1,wrist_TEMP_1,label
0.8661556512280799,0.5859123969484866,0.5029306262851868,0.5135087459702535,0.29065499594966065,0.15339233038348787,1
0.7951933914084957,0.6597212153321959,0.3661361384407153,0.5176623651795217,0.28893448136409244,0.15339233038349498,1
0.8146509614274444,0.5751168016724885,0.515012543328903,0.6364420901092135,0.2917138378382405,0.15339233038349853,1
0.8585885803009115,0.5368850477691415,0.5722915328123352,0.5585102706216296,0.29078735118573373,0.1592920353982663,1
0.8420217484229033,0.4802690147462392,0.5674314827362836,0.5203322637333307,0.29171383783824045,0.15929203539824854,1
0.8171822862222042,0.49826098044072475,0.6332951978285009,0.5870924946423606,0.2913167721300231,0.15929203539824144,1
0.4773348958591085,0.5458478023928138,0.8836471260878489,0.5383991679803323,0.2898608645332255,0.15929203539824144,1
0.3482662580834187,0.505820539604495,0.9692955436623755,0.4377389499851385,0.2882727051837307,0.1533923303834932,1
0.3267174342172907,0.46271265473543804,0.9507212293612141,0.5321312969516505,0.2831110579436524,0.1533923303834932,1
0.2845304025386346,0.47325954009423815,0.9647288215507975,0.4395922119133576,0.28218467477452,0.1533923303834932,1
0.3150489615808373,0.4589866829498739,0.9533745150138512,0.4521898528611089,0.2805964119416501,0.15339233038348787,1
0.29194184792044175,0.48207182123628983,0.9634116086972118,0.6519015153880063,0.2796700287725173,0.15339233038350386,1
0.30527744664454615,0.44785146324639835,0.9529163918525013,0.6081097476093282,0.27794941070357493,0.15339233038349676,1
0.2188816154071218,0.5117351283212569,1.0,0.5565671182426943,0.277817055467503,0.15339233038349853,1
0.6179633257329524,0.470732663878748,0.7353621931551102,0.5391785533922775,0.2772877380065869,0.15339233038349853,1
0.8676464204823386,0.4029466476724195,0.6090539781661997,0.5046415408197461,0.27821412117571975,0.15929203539823078,1
0.7084769085491833,0.4704462052729334,0.7099101426243515,0.5310947852340183,0.2735818948799322,0.1592920353982361,1
0.6902634599732484,0.3519525931352593,0.7782570728804706,0.5087685538107126,0.28946390230838204,0.1592920353982361,1
0.8204550918154587,0.4764970418040741,0.5581591389620633,0.4775988845021842,0.29039028547751566,0.15929203539825032,1
0.8053133697857493,0.5205361197797698,0.5856012535395221,0.7113313181894121,0.2858904144178003,0.15339233038348077,1
0.7923324424484379,0.5634116126762336,0.6179433732035731,0.611592082017995,0.28218467477452036,0.15339233038349853,1
0.804008930624541,0.5274837751662951,0.6349761879074236,0.34676934186801134,0.27967002877251756,0.15339233038349498,1
0.7754016209815837,0.5206517927313811,0.653152666377662,0.6096358388827162,0.27768480371480425,0.15339233038348432,1
0.7868584418946465,0.51808476079073,0.6522301955721976,0.6050159334904783,0.2766259618262238,0.15929203539823433,1
0.774977647243421,0.5180919361905784,0.6581530125676791,0.48422480556599906,0.2766259618262244,0.15929203539823966,1
0.7891966016866017,0.5165318250284278,0.6474708890530552,0.49127709948231074,0.2750378024767297,0.15929203539824854,1
0.7776760997608818,0.5209694579046665,0.6541710195571688,0.5316351444277088,0.27517015771280223,0.159292035398229,1
0.7928299034539352,0.5160426340925551,0.6429721840453766,0.4989518913799379,0.27477309200458455,0.16519174041298434,1
0.7676405929728103,0.534833024253802,0.6630552781065332,0.5417827030641652,0.2739789605881489,0.16519174041299323,1
0.7520109613169776,0.5193190058502395,0.7018606644877812,0.5455198279126985,0.27305257741901656,0.1651917404130021,1
0.758102102102371,0.5241521997111409,0.6981877640236359,0.5090542721991825,0.27093499712523156,0.16519174041298434,1
0.7552214816905899,0.5182699631362565,0.6999281217204985,0.5306500564679623,0.26881731334807174,0.16519174041299145,1
0.756303521298705,0.5218494188612087,0.698928532594243,0.5292702761695279,0.26775857494286615,0.16519174041297902,1
0.7544026462084543,0.5168379600088026,0.6973266116047534,0.5189801547877777,0.26736150923464913,0.16519174041299145,1
0.7584625457041687,0.5218770443824543,0.6951462349329863,0.5419576507514268,0.26603795687392406,0.16519174041298434,1
0.7634917503621552,0.517346403336944,0.6886063709721802,0.543719311317322,0.2659057051212261,0.16519174041298612,1
0.7549108850848327,0.5214347917729529,0.6944187961470055,0.5276620270508161,0.2648468632326467,0.16519174041299145,1
0.7571684492532287,0.5162949685283094,0.6934941782151285,0.5412950806049209,0.2647145079965736,0.16519174041297724,1
0.7549007508971746,0.5206848647157363,0.6986862735227111,0.5662330236510748,0.2640527318162116,0.1651917404129879,1
0.7570803805725315,0.5164838722424793,0.6930777756370874,0.5072434159388203,0.2631263486470786,0.17699115044248082,1
0.7549721651212025,0.5205874047471969,0.7017515197530118,0.5217428339800744,0.26312634864707807,0.17699115044248437,1
0.757018793933339,0.5165240644144758,0.7006752703440524,0.5741614552691486,0.2623322172306436,0.1769911504424826,1
0.7550290196080017,0.5206197956979187,0.7019562427033845,0.5302736258132869,0.26193515152242625,0.17699115044248437,1
0.7569647270481217,0.516188889364263,0.6963859189381452,0.5149167918781979,0.2608764131172211,0.1710914454277379,1
0.7550798586438895,0.5208918789288665,0.6998424348694237,0.5600677941509983,0.2608764131172212,0.1710914454277468,1
0.7569218571724002,0.5164178122734975,0.6971735737177333,0.5478821739986355,0.25875883282343554,0.1710914454277308,1
0.7550880372575468,0.5209739837419001,0.7018246868993738,0.5130198381315044,0.25942050552042395,0.17109144542774857,1
0.7578438348701968,0.5108742915966809,0.6958532803673696,0.5285323335333005,0.25849412235129066,0.17699115044248792,1
0.7555306301614172,0.5149279423585302,0.7024094925258413,0.5667486476142424,0.2590234398122062,0.1769911504424826,1
0.7532961238239821,0.5084582106218916,0.7016976333333833,0.5415907896175598,0.2583617671152184,0.17699115044247726,1
0.7511332503381998,0.512734049281252,0.7063168758590326,0.5115484677041461,0.2575676356987835,0.17699115044248437,1
0.753783470672173,0.5061917557749367,0.7038992173019845,0.5450034873506504,0.25756763569878344,0.1769911504424897,1
0.7543986744112782,0.5132507275791993,0.7031691404957987,0.5523164129558914,0.25690585951842065,0.17699115044247726,1
0.7550161749023772,0.5104034854505369,0.6989082926415742,0.5212691625562206,0.2565088972935779,0.17699115044247726,1
0.7520032396336243,0.5118406102574896,0.7037277624591474,0.5329506709905683,0.25584712111321584,0.17699115044249147,1
0.7556885985740761,0.5016319207018101,0.7005831555749291,0.55091896883459,0.25558241064107073,0.17699115044248082,1
0.7514738538907219,0.5075678652623472,0.7097209336684319,0.5559209244048609,0.2550529896967807,0.17699115044248437,1
0.7611921509963306,0.5062716605243183,0.6967243162810035,0.5067028830828885,0.2547882792246354,0.1769911504424826,1
0.7485662712773938,0.5034887237895566,0.7078026955274841,0.5388722026388759,0.2539942512915759,0.17699115044249325,1
0.763876068891133,0.503952897053421,0.6966736115600135,0.5492121479633043,0.2542588582803464,0.1710914454277379,1
0.7382065018168462,0.505973138537591,0.708060619658373,0.5263908817460539,0.25386189605550324,0.17109144542773436,1
0.817358478570936,0.49959284867444786,0.7043470168317745,0.5181964005247452,0.2534648303472852,0.1710914454277379,1
0.8087898961466784,0.6135758823706523,0.775253724606459,0.5524684525288733,0.25492063446070834,0.17109144542773969,1
0.36126220201580034,0.7768956314845119,0.720411381275615,0.542535063257257,0.2541266065276479,0.18289085545724149,1
0.4029656094105536,0.8941712658549639,0.7416103104689465,0.560590892907897,0.2530677646390679,0.1828908554572326,1
0.12786102804847455,0.9502745262788481,0.6649196887165352,0.6372277931667074,0.2506854738731378,0.18289085545724326,1
0.14754034169058383,0.966956063760371,0.6324372541132528,0.5959712944397357,0.24552382663306074,0.18289085545723438,1
0.14652796652755978,0.9529258452553784,0.6721054614594246,0.47428757382374587,0.24142102128156237,0.18289085545723793,1
0.1625310783760806,0.943015272051372,0.6899517580526688,0.43946934684372635,0.24261211492284032,0.18289085545723793,1
0.1453091055589358,0.9401492457517372,0.695921851732417,0.3523137681444169,0.24287682539498598,0.18289085545724149,1
0.1445847480971039,0.9296369913684263,0.6990864838547468,0.5408236979182227,0.2443327329917829,0.18289085545723616,1
0.24624632019183038,0.9356815828029534,0.716634996793694,0.6618324455675989,0.24539147139698805,0.18879056047198972,1
0.40348216344184196,0.9407548521220672,0.6978993314004873,0.5703369254943317,0.2453914713969879,0.18879056047198084,1
0.35175173871917986,0.9060928095168046,0.7620058638030689,0.6038174285687445,0.24459744346392762,0.18879056047199505,1
0.1947080798535641,0.8899936114394063,0.7851886369788539,0.3988708423070767,0.2453914713969884,0.18879056047199505,1
0.13570281584725155,0.9132423233819683,0.7086708266133428,0.572350776003069,0.24486215393607305,0.18879056047199327,1
0.03144300326299937,0.9169095753082771,0.6696914487454122,0.6645910254811269,0.24393566728356494,0.18879056047198084,1
0.08353849868577967,0.9163837447328522,0.6882396309516918,0.4970190423319243,0.24459744346392756,0.18879056047198972,1
0.04675497521838662,0.9249938367721816,0.6706499859642223,0.4724520415890118,0.24433273299178251,0.18879056047198972,1
0.08625400847951714,0.9277170119427807,0.6798091493970713,0.5852385986706092,0.2440680225196377,0.1887905604719844,1
0.08069119657675122,0.9361955823047627,0.6608162323797415,0.45657456975167215,0.23890637527956018,0.18879056047198794,1
0.10837055698381387,0.9397189500417182,0.6751827676525677,0.5029678297231351,0.23625937404148536,0.18879056047198084,1
0.08882320051321779,0.9420703624774108,0.657890465885867,0.5418683314641233,0.2354336801958067,0.18879056047198262,1
0.0974724606379026,0.9358521192188625,0.6687499905016667,0.5752552824725472,0.23437494179060145,0.18289085545723793,1
0.08105601952539215,0.9390525233718459,0.6570980707405668,0.6069996406115387,0.23424258655452893,0.18289085545723083,1
0.09561095207495571,0.934756660760023,0.6734860253376314,0.5200135067185739,0.23305138942987672,0.18289085545723793,1
0.08727758877690048,0.9335805038834597,0.6696699149264977,0.4902915704658661,0.23305138942987672,0.18289085545723438,1
0.09689499956079792,0.9280305507914903,0.68396640828779,0.5434526514770219,0.23252207196896066,0.1887905604719844,1
0.10405093231348803,0.9253007916333162,0.6943704532233719,0.521099270959258,0.23291913767717895,0.1887905604719915,1
0.15997757464092013,0.918646582581264,0.7270379122514741,0.5023623326464084,0.2327867824411062,0.18879056047198972,1
0.26061159010996693,0.906934531754781,0.7620378096916856,0.5577765286498044,0.23238971673288875,0.1887905604719844,1
0.3759300078908141,0.9154551593573943,0.7450876589417033,0.5613518600110607,0.23397787608238416,0.18879056047198794,1
0.42658345057904673,0.9179199788798427,0.7235846548874033,0.4992362015834533,0.23688958779260386,0.18879056047198084,1
0.4499785498680433,0.91530559828837,0.7263465166146339,0.5741474928684424,0.2382130366699544,0.18879056047198794,1
0.4176008409418698,0.917329772422848,0.7129908594765633,0.6316532364426862,0.23305138942987677,0.18879056047198972,1
0.5063470637982319,0.916721906702088,0.7169479233987153,0.6184522116104962,0.233051389429877,0.18879056047200216,1
0.31617732386270797,0.8982121200366213,0.7686961485311814,0.49386185785305287,0.23649252208438656,0.1887905604719844,1
0.23710389315922833,0.9773717738434544,0.6312049639995082,0.4447137199676411,0.2371542982647488,0.1887905604719755,1
0.23428153727253354,0.9569342599468158,0.6836122356007762,0.5315368297703411,0.2366248773204587,0.18879056047197906,1
0.19161773266081017,0.9021506818917799,0.7691977533630348,0.546954343186242,0.23794832619780956,0.19469026548672197,1
0.2296413856551576,0.9213465918284993,0.7414376085196638,0.49146397429669875,0.2359631011400967,0.19469026548673618,1
0.2564003643222536,0.9139808938739163,0.7603458656291001,0.5449141333520153,0.2368895877926042,0.19469026548672375,1
0.28385648574469097,0.9213743372729482,0.7467129575566656,0.6372610682649861,0.23688958779260424,0.19469026548673263,1
0.30202617325251574,0.9151248834783348,0.7574342807568842,0.49146880550639965,0.236492522084387,0.20058997050148797,1
0.29239069937939494,0.913619668881996,0.7541642096967838,0.5469265798153348,0.2358307459040241,0.2005899705014702,1
0.2986966472800134,0.9098329028154475,0.7604211376598452,0.5654901669269679,0.23556603543187868,0.20058997050148086,1
0.2794176310425228,0.9133023952968004,0.7570873781671359,0.5374292983403646,0.23477200749881869,0.20058997050148086,1
0.2805827828602426,0.909145047543338,0.7548586004983133,0.4729748899499362,0.23424258655452898,0.1946902654867273,1
0.3051554326723821,0.910852577267292,0.7568378166401601,0.4732873144936914,0.2338455208463124,0.19469026548673618,1
0.3322856817014842,0.9001495947340041,0.7818032917717896,0.5936596892265793,0.23358081037416575,0.1946902654867131,1
0.32444132650392304,0.9039548468032511,0.7615492504266486,0.5433222580750865,0.23225736149681633,0.19469026548673085,1
0.3159928158848343,0.900663396625018,0.7695064006779473,0.4221228154850173,0.2326544272050343,0.19469026548674861,1
0.3182082556124876,0.9044402997848837,0.7679695646911868,0.4762534618458548,0.23278678244110643,0.19469026548673796,1
0.32219694534425974,0.9009128451480543,0.7666175769732428,0.4808505092372055,0.23252207196896138,0.19469026548673618,1
0.3175195625743726,0.9077413614005424,0.7643975349826164,0.4783262749149259,0.23252207196896188,0.1946902654867415,1
0.3184720408843205,0.9045207828676108,0.7653282427503699,0.4534130226366381,0.2329191376771789,0.1946902654867415,1
0.3195906435375248,0.908673169796709,0.7623044327797095,0.656034988228055,0.23503671797096395,0.19469026548671842,1
0.3162769669315749,0.9048776244965244,0.764248584739837,0.6483646045217959,0.2351690732070362,0.1946902654867344,1
0.3109906330694006,0.9043085056985898,0.7632723628258251,0.5116577567288861,0.23344845513809412,0.19469026548672907,1
0.30356177653519745,0.9008404237209254,0.7727531437097508,0.5207686010477145,0.2325220719689612,0.1946902654867273,1
0.3037347101372467,0.9027192956909655,0.768157782033593,0.65478038404662,0.23212500626074375,0.19469026548672552,1
0.309054189149389,0.9001020392581707,0.7756972824717241,0.547428782268519,0.23133087484430873,0.19469026548673263,1
0.3088320281839373,0.9037422548927823,0.7695239173639694,0.4676437713977323,0.23053684691124846,0.19469026548674329,1
0.32265955840294397,0.9006069514114097,0.7714587365605562,0.6044714554103738,0.23000742596695897,0.19469026548674329,1
0.3156260916750132,0.9029298309185994,0.7697636897601845,0.6172119271171098,0.22947800502266877,0.19469026548673263,1
0.3163672208477278,0.8999021025360743,0.7706637674672507,0.5294815408402976,0.22762513520102828,0.1946902654867273,1
0.31556559463568234,0.9039699746787353,0.769742493381741,0.5323836127610969,0.22802220090924605,0.1946902654867202,1
0.3133116272598717,0.9002295396859092,0.7717518999956657,0.5981618481738296,0.2276251352010282,0.20058997050148264,1
0.3191430028361004,0.9045772300458044,0.7682858228985279,0.5504725968272788,0.22709571425673908,0.20058997050149863,1
0.3051342963673902,0.8996140971117735,0.7738349607061705,0.4938031647453302,0.22683100378459398,0.2005899705014933,1
0.2937413737378465,0.8892186002229837,0.8002304843452659,0.522822852178721,0.22656629331244887,0.20058997050148086,1
0.32856504423188077,0.9398109371153315,0.7000283661332202,0.5793365121700348,0.2263015828403033,0.20058997050147376,1
0.3232649693044478,0.9564478193484102,0.6709766739618266,0.5230151178855855,0.22683100378459356,0.2005899705014862,1
0.32133931672836535,0.86707742072835,0.8274508191477148,0.49891865907309485,0.22616922760423117,0.20058997050148974,1
0.31770062461364484,0.8851657243404281,0.7955909256706861,0.578778406764465,0.2252428444350986,0.20058997050147553,1
0.3238281467791499,0.8817084792105307,0.7865633134820578,0.5764897387151445,0.22471342349080833,0.20058997050148264,1
0.32243461193390593,0.8888133064187118,0.7848145967622527,0.44987988580347077,0.22418400254651846,0.20058997050147376,1
0.3113560142490464,0.8804657912040452,0.7919585467377124,0.471079191193421,0.22391929207437378,0.20058997050148086,1
0.29697248722534303,0.8840073637924932,0.7935321162340935,0.5856221370914816,0.22338997461345855,0.20058997050149507,1
0.2900427736105905,0.879218343641003,0.7925426864270615,0.5493130049339896,0.22272819843309583,0.20648967551623976,1
0.2873836011003036,0.8821008969267378,0.7928600490992901,0.48064896901105214,0.22246348796095042,0.20648967551622732,1
0.2957610104845691,0.8808459785285356,0.7939509345258119,0.5512089748171825,0.2220664222527334,0.20648967551622555,1
0.27211956415625876,0.8857108270713298,0.7865634298371271,0.5975226504130763,0.22180171178058775,0.20648967551621844,1
0.284317782461957,0.8821852028239691,0.7930187831914632,0.536768083224437,0.22127239431967344,0.2064896755162362,1
0.2670217961635995,0.8768201027975151,0.8013665813197315,0.5090062550231375,0.22100768384752825,0.20648967551623976,1
0.288155526353174,0.8789620106366847,0.7979273949662568,0.5700412812727769,0.21981648672287574,0.20648967551623088,1
0.2646558629468311,0.9095152752983426,0.7625728708561441,0.5362872465138331,0.2215370013084435,0.20648967551623976,1
0.26743341117147873,0.9204558306577562,0.7380784941388927,0.4984684071212516,0.22166935654451597,0.21238938053098622,1
0.2545627119691012,0.9259604569432224,0.7454069688899649,0.5732653181218231,0.22180171178058844,0.21238938053097556,1
0.2702103086463937,0.9133010894527337,0.7484427572058698,0.6848395561438217,0.22113993560022593,0.21238938053097556,1
0.2270084932356371,0.9313196904161414,0.73789902937709,0.46880902062326535,0.22087532861145545,0.21238938053099155,1
0.2640445865511781,0.8218760931016263,0.70311931327107,0.40031363224542815,0.2204782629032383,0.20648967551623976,1
0.5920845134162458,0.5492130027668456,0.9312597196242209,0.5473567126538115,0.22047826290323838,0.20648967551623088,1
0.498949524815904,0.500426854889766,0.9938734774770297,0.5760935285483965,0.22180171178058802,0.20648967551623088,1
0.5540972858519717,0.4932154786827925,0.8868644449340959,0.4934094210247496,0.22233113272487884,0.20648967551625041,1
0.49984732881562033,0.5232752586924583,0.9076291984586254,0.488844684445676,0.22299290890524084,0.20648967551623265,1
0.37787859206974994,0.5152712690468452,0.93655296510629,0.40376442129240075,0.2224634879609509,0.2064896755162291,1
0.3676099024497673,0.47366155598051896,0.9584995529615852,0.5773846769128357,0.22365468508560357,0.2064896755162362,1
0.38372106701587644,0.48182441987084457,0.9452909974333837,0.7708209948063606,0.2236546850856028,0.20648967551621666,1
0.3672961634168217,0.4858088305758826,0.9538399401632651,0.452128813953218,0.22484577872688105,0.21238938053097378,1
0.36268569688068136,0.4619670307749066,0.9459528416639167,0.3760569123839156,0.22749277996495657,0.21238938053098977,1
0.3637995238378263,0.47529477748842086,0.9596225949814426,0.5122486447349189,0.2306690986639465,0.21238938053097733,1
0.35483953073053165,0.4778793504776447,0.9542397124799401,0.6074126287204851,0.23053684691124857,0.21238938053098622,1
0.32641241681229677,0.5009171806817128,0.9653326842013057,0.5620028283469406,0.22934564978659633,0.21238938053098622,1
0.27388670216893896,0.43887513182817045,0.9539844485275686,0.5840737104609551,0.22815455614531782,0.21238938053097378,1
0.5358787597621142,0.4498479153004249,0.858838333567607,0.5651085555833251,0.22643393807637632,0.21238938053098622,1
0.8304498206470274,0.5502063036789083,0.6060508739742319,0.5792651409904584,0.22471342349080842,0.21238938053099155,1
0.9453112618303352,0.6352335623217027,0.6971769075643595,0.6222747665290554,0.22577226537938808,0.2064896755162291,1
0.461348189029874,0.7512880369806941,0.6821167254500444,0.5457655766243692,0.2263015828403038,0.20648967551623798,1
0.24713323435397175,0.859493030561723,0.7462836476195749,0.40068057958129627,0.2270957142567388,0.20648967551623798,1
0.4606931267966331,0.9680153285745736,0.6864205776415846,0.6443382329747579,0.22815455614531874,0.20648967551623443,1
0.39200843575596317,0.9311505507947746,0.674583727617594,0.6419103190352723,0.2257722653793885,0.21238938053098622,1
0.4045520662975198,0.8840668581063309,0.6344742478497302,0.40832914150089245,0.22524284443509854,0.21238938053097556,1
0.4677860152366824,0.525095366753256,0.9264251583978668,0.5263387616469272,0.2206106181393102,0.21238938053097556,1
0.6772309998071393,0.38526995321144075,0.8238580619946689,0.7183558762941258,0.22775749043710095,0.21238938053098444,1
0.8253693245579745,0.37765749046362185,0.6263893116555852,0.33358258163230353,0.23344845513809417,0.21828908554573445,1
0.6436212931456209,0.3540761031528661,0.7704669275078475,0.49282252868655946,0.2411247483801742,0.218289085545738,1
0.669925501095358,0.3206326864280075,0.7677088349037726,0.26825611735680305,0.24509519849559938,0.21828908554572912,1
0.5807371047835856,0.3308109023585878,0.8380858579623043,0.6265887632189361,0.24575697467596194,0.21828908554573623,1
0.5667929693916605,0.33173774172550174,0.834714163987561,0.8059157781631087,0.25158039809640226,0.21828908554573445,1
0.5595979581736104,0.3464945933492733,0.855056834789516,0.17417491458247425,0.25356562315411485,0.2182890855457238,1
0.5261959329150652,0.32307348789515067,0.8366007314186201,0.46924496289731626,0.254095044098405,0.21828908554573445,1
0.5924471930126145,0.2517927694746868,0.8671868521772972,0.6747321361370334,0.24774219973367442,0.2182890855457238,1
0.7655780551560164,0.4396751424514453,0.5979235656557851,0.7264026931887274,0.25435965108717545,0.2123893805309791,1
0.8278848584744485,0.5257219795875515,0.5219672705049818,0.6267351399974308,0.2526391365016074,0.2123893805309791,1
0.7380332108801724,0.47109716135031143,0.7369314900308812,0.5971603971927447,0.24985978002746043,0.21238938053097733,1
0.6802137841202169,0.4673717103812434,0.7808467578305278,0.5575329979442962,0.23847774714209954,0.2123893805309791,1
0.67617001349575,0.4726070996084772,0.8016763443531678,0.5449256256973046,0.23702194302867655,0.21238938053098266,1
0.6681481716402389,0.46218166794021326,0.797182886295125,0.43912921823415085,0.2362278116122419,0.21238938053099155,1
0.6710956290288772,0.4693527554804911,0.802417817576139,0.5379644618136603,0.23609545637616927,0.21238938053097556,1
0.671235175822384,0.4656622046250667,0.7968919542727266,0.5231750165922713,0.23530132495973446,0.212389380530988,1
0.6702642707130424,0.4687696361139133,0.8009591468348893,0.4781371564717632,0.23463965226274677,0.21828908554571846,1
0.6720865497801851,0.465338471000775,0.794286262405953,0.5063648902475854,0.23424258655452876,0.21828908554572557,1
0.664818765829458,0.46924518216835426,0.8079287558850627,0.5829283190489277,0.23358081037416642,0.21828908554572735,1
0.7136458722777654,0.4800152038237598,0.7469808927232905,0.5266126132806423,0.23344845513809406,0.218289085545738,1
0.7988648320018517,0.5189316498039,0.6310192267837783,0.5267724822120267,0.2334484551380944,0.2241887905604738,1
0.791505784674926,0.5129685536073776,0.6245971342962924,0.5634394025318149,0.23397787608238454,0.22418879056047913,1
0.8000310913257107,0.5113866045173746,0.6305330637564948,0.58854583012443,0.23199265102467145,0.22418879056048802,1
0.7899095189720235,0.5110761195614557,0.6297891408663753,0.5300395873392144,0.23225736149681644,0.22418879056048624,1
0.7919012167347526,0.5106971839442462,0.6400362467589495,0.5329097116807302,0.23119851960823665,0.2182890855457309,1
0.8002093527732319,0.5167692846642026,0.6188350687994861,0.5359210594473295,0.2311985196082363,0.21828908554572912,1
0.7926003989014316,0.5292766213825445,0.6365085667734152,0.47856106041187146,0.23053684691124834,0.21828908554571846,1
0.779662916354928,0.5336494095914286,0.6444789544895123,0.4888285168590716,0.229478005022669,0.21828908554572735,1
0.7900048563600448,0.526838361634792,0.6518489641412226,0.570576694630719,0.2289485840783787,0.22418879056047203,1
0.7801446453160599,0.5260177091351212,0.6457613842850544,0.5531269568349382,0.22855151837016105,0.22418879056047203,1
0.7847489772043688,0.5189337900351524,0.656665099813474,0.50842288851762,0.2269633590206666,0.22418879056047913,1
0.787509392956588,0.5244359864463312,0.6403891855756487,0.555076782136855,0.22736042472888332,0.22418879056047913,1
0.7883006786015931,0.5257608890701181,0.6467840892512158,0.5708422163268227,0.22736042472888332,0.22418879056046315,1
0.793993885749223,0.5311435886143279,0.6302067784335086,0.5245166265332801,0.22656629331244785,0.2241887905604738,1
0.7941046291905312,0.524514778768582,0.6440151259514195,0.5237803167984622,0.2263015828403038,0.22418879056048624,1
0.8093679916421734,0.5421625382220854,0.6012525237216064,0.5510077920579347,0.22563991014331589,0.2241887905604809,1
0.7769662403494373,0.5394615990476956,0.6538956380733438,0.5205055857990493,0.22563991014331594,0.22418879056047203,1
0.7396703600774728,0.5357414425924185,0.6950166007039444,0.5228719887694688,0.2247134234908085,0.2241887905604969,1
0.7691103650835429,0.5102884778253696,0.7030516196943477,0.5408538345124599,0.22471342349080856,0.2241887905604827,1
0.7476303688914894,0.5130277955527734,0.7120456578595231,0.5880969438414335,0.22497813396295407,0.22418879056048802,1
0.7888486894153586,0.5454446505330006,0.6890996546602846,0.5114438843865319,0.22458106825473603,0.22418879056048802,1
0.8007389276780141,0.6361493307525283,0.510918710379677,0.5063750968914223,0.22378693683830103,0.22418879056047913,1
0.8048034348867188,0.5041239193720526,0.5461835377889067,0.6265142972093589,0.22537519967117078,0.22418879056047558,1
0.8317499477896197,0.5209034503015416,0.5610033344803849,0.5493149051376041,0.2284192666174634,0.22418879056046848,1
0.8382172402009938,0.5933972340511698,0.31529503627269373,0.4832531325885807,0.22669864854852123,0.23008849557523092,1
0.8564010401796618,0.582691865983651,0.21855185171660282,0.548126411766793,0.22630158284030372,0.23008849557523625,1
0.8248776315814521,0.6009921822043963,0.16406094839281743,0.6078702983122616,0.22550755490724272,0.2300884955752256,1
0.8153170319676062,0.5876931841486382,0.1891594784418384,0.5756411109906372,0.22497813396295374,0.23008849557523625,1
0.8296533031075037,0.5983856466824865,0.18306306067497566,0.5387443631028863,0.22352222636615615,0.23008849557523092,1
0.8182458332247706,0.5930588954751781,0.19076821973523853,0.5643808446509312,0.22365468508560324,0.23008849557523448,1
0.8273129461345121,0.5985658495012447,0.17954139606343358,0.5756661321053335,0.22299290890524087,0.2300884955752256,1
0.8156496002069931,0.5924734425548366,0.1912351180162694,0.3800302814487889,0.2223311327248785,0.2300884955752256,1
0.826166546528111,0.5974039276161974,0.18155281764785058,0.521400793002523,0.22206642225273304,0.23008849557523092,1
0.8164041850260157,0.5941269819608916,0.18590137981049376,0.5321607769174928,0.22127239431967324,0.23008849557523448,1
0.8238700095272977,0.5983329794375015,0.17317444241958377,0.49148724487068557,0.2208753286114561,0.2300884955752327,1
0.81250972557228,0.595565150478451,0.177756276529281,0.5020981135234329,0.2206106181393105,0.23008849557523448,1
0.8230556376699603,0.5983109506419619,0.16690789206931417,0.5731469328624361,0.21981648672287613,0.23598820058998093,1
0.814605223806462,0.5958748510546672,0.17605275261979625,0.561327087016117,0.21902235530644054,0.2359882005899845,1
0.8212919247758568,0.5979244069834753,0.16338537050883606,0.5793697306230698,0.2190223553064411,0.23598820058997916,1
0.8135688096613367,0.596338598898218,0.17142973325023336,0.5724468051549215,0.21849303784552557,0.23598820058997916,1
0.8239607069588302,0.5973038358672514,0.16954269066109615,0.5472675480270641,0.21875764483429608,0.23008849557522204,1
0.81263640491518,0.5976790978561916,0.1745655295575935,0.4234544444527643,0.21809597213730816,0.23008849557522382,1
0.8216177827632276,0.5994915811738055,0.16919061512515107,0.5267525125907854,0.2180959721373074,0.23008849557522382,1
0.8109800180714053,0.5974502336780876,0.1782610931969102,0.5501112251847184,0.2170371302487281,0.23008849557523448,1
0.8282322347492745,0.596431076764118,0.17172708971426665,0.4609485804004379,0.21743419595694563,0.24188790560473272,1
0.8065549339497871,0.6014080372223964,0.17900098929386127,0.4271213738955668,0.21743419595694544,0.24188790560472384,1
0.8793603853397407,0.5733002753956891,0.21036633855947637,0.6001920975859875,0.21677241977658332,0.2418879056047345,1
0.8671633092671558,0.5711370101946535,0.2653192905320297,0.5314367548539829,0.21664016802388505,0.24188790560472917,1
0.7409424284452532,0.5947881220449516,0.2242345750949594,0.5367053569894185,0.21849303784552587,0.23008849557523625,1
0.8902540122859408,0.48868727449990107,0.44399944964364596,0.4192342999507439,0.22074297337538332,0.23008849557522382,1
0.8445986183436065,0.4325707357868139,0.5218440091008554,0.5216602660936785,0.22630158284030416,0.2300884955752398,1
0.8047007177770988,0.46077354615104293,0.5906819586100934,0.52541809147598,0.23186029578859904,0.2300884955752256,1
0.8272020296771347,0.5011416758673704,0.5501062711073106,0.4739999174671765,0.2266986485485215,0.23598820058998626,1
0.825102796974148,0.5005622367113052,0.5547586163876779,0.4944348311844398,0.22365468508560324,0.23598820058998093,1
0.830516671181261,0.4998484126499348,0.546110014249893,0.7572516825569371,0.22233113272487826,0.2359882005899845,1
0.8192844190875561,0.4906971789377494,0.5659172304726692,0.7470151950964147,0.2216693565445161,0.23598820058998093,1
0.8290823685004172,0.5011062957736964,0.5503480668722818,0.4528979241069826,0.22140464607237115,0.24188790560472384,1
0.8189987127937779,0.4947867286432603,0.5638966791363123,0.4907016207605463,0.22074297337538284,0.24188790560472562,1
0.8294918204946609,0.5021861841466071,0.5478387323606562,0.48581138962279574,0.22034590766716575,0.24188790560473272,1
0.8241663610334093,0.49840100584507696,0.5606675193736891,0.5041513855910416,0.21955177625073055,0.24188790560472562,1
0.8344139638191961,0.50862740808339,0.5276240297592611,0.6394359337962162,0.21941942101465828,0.2300884955752256,1
0.8297858429146487,0.5088935316597537,0.5234566921833688,0.6016846854623433,0.2188901035537432,0.23008849557523448,1
0.8338614983568766,0.5111376397658904,0.5282668655874325,0.49796344046522406,0.219022355306441,0.23008849557522382,1
0.8261410586685396,0.508296324709892,0.5351799887240349,0.588871448996285,0.2182283273733804,0.2300884955752185,1
0.8302907393996608,0.5117039308972752,0.532054020465717,0.6199183043714802,0.2179636169012358,0.23598820058999515,1
0.8238494438782524,0.49979441777207395,0.5491123820907842,0.539740075949897,0.2169047750126559,0.23598820058998093,1
0.8306268212242156,0.49916938928797916,0.5325756392349975,0.5066151383196394,0.21690477501265576,0.2359882005899845,1
0.8350091301708886,0.5017446540641276,0.5121089084369559,0.5827013400761866,0.21650781278781306,0.2359882005899756,1
0.8323141924605664,0.5012052746122003,0.5254160448173815,0.5418236006895861,0.21597839184352266,0.24188790560472206,1
0.8351267110117169,0.5008649931558387,0.5233808166932014,0.5001726864851517,0.21571368137137792,0.24188790560472917,1
0.8331222185689657,0.501356407327784,0.527785472837794,0.5460685738431698,0.21465483948279834,0.24188790560473983,1
0.8310510485870921,0.5016688888116086,0.5287285823980179,0.5770592400787469,0.21399316678581037,0.24188790560473272,1
0.8312582060902176,0.501774908305551,0.5280471516434251,0.4883742490656575,0.21399316678581046,0.24188790560473983,1
0.8305146462617663,0.5011859341255661,0.5308117486868823,0.4911652980236491,0.21412552202188292,0.24188790560474516,1
0.8306240981241217,0.5049568432579867,0.5299434861278041,0.5624346502919891,0.21333139060544812,0.24188790560473805,1
0.8303529307018136,0.49949305443026226,0.5321850379052023,0.5460152135733011,0.21306668013330285,0.24188790560473983,1
0.8324668474629056,0.5038330793174017,0.5295730480374945,0.4987971944964279,0.2126696144250851,0.23598820058997738,1
0.8285647873219055,0.5014744875375006,0.5322578997191201,0.5238467339535756,0.2122725487168677,0.23598820058998626,1
0.8312563591006568,0.5026577431699556,0.5294691013836178,0.5679688502537796,0.21200783824472305,0.23598820058997738,1
0.8299659485320794,0.5024060425249458,0.5324422346023028,0.539881143430041,0.21134616554773505,0.23598820058997205,1
0.8311129518849365,0.5018521653197722,0.5288453029656326,0.511026215279744,0.21108145507559012,0.24188790560473272,1
0.8303026051778482,0.5016790000059315,0.5309914362323409,0.5458755510539771,0.21015496842308307,0.24188790560473272,1
0.8330181894092124,0.5038629676392359,0.5270606883137935,0.5704958881117858,0.21015496842308284,0.24188790560472384,1
0.8320897790454447,0.49930203772411225,0.5320510214197244,0.5145820222548222,0.20962554747879322,0.24188790560473272,1
0.8075739032395088,0.496733214991127,0.5915910463095854,0.4933778402532939,0.2093609404900224,0.24778761061947918,1
0.8045283097505123,0.4904396865851447,0.603778708811161,0.5419913928152815,0.20869916430965987,0.24778761061946142,1
0.8095966769186855,0.4871909375422447,0.6011224824330214,0.5629436366431507,0.2080373881292974,0.24778761061946675,1
0.8067288454845909,0.48485974494770256,0.6024160736898085,0.4903015855202268,0.2077726776571529,0.2477876106194845,1
0.8092352494483201,0.48632955966394115,0.6031806851471714,0.45512954497792474,0.20750796718500775,0.24188790560473095,1
0.8015776790961302,0.4854207106371478,0.6179821036180282,0.5531952418920072,0.20724325671286267,0.2418879056047185,1
0.8012513314376455,0.48468616269236203,0.6187592800572977,0.5921063908983117,0.20578745259943979,0.24188790560472206,1
0.7989801028503332,0.48814239497527145,0.6181273045212186,0.5149093687535116,0.20618451830765724,0.2418879056047274,1
0.803944691964011,0.4874868289002954,0.6132552217294498,0.4997603399749538,0.20578745259944006,0.24188790560472917,1
0.7996900635354807,0.48841428646352175,0.6163662557316885,0.5559864419216972,0.20618451830765727,0.24188790560472384,1
0.8062132156308273,0.4900215302158086,0.6103692714635418,0.5803646933638563,0.20525803165515003,0.24188790560472917,1
0.7984553243186121,0.4882118743661716,0.6153972944516486,0.5252783133053146,0.20539038689122222,0.2418879056047274,1
0.8132416696791589,0.4920324713917675,0.6015033319965915,0.5416106629783288,0.20419929324994496,0.24188790560472917,1
0.7816272457243442,0.48815975074838036,0.650169415644936,0.5674185019222109,0.20459625547478758,0.2418879056047274,1
0.7473853233276746,0.48349493094807316,0.7069649581436646,0.5343785558266497,0.2040669380138722,0.24188790560472206,1
0.7607570938861787,0.482820240125495,0.6923003676997959,0.5079264935668697,0.20353751706958223,0.24188790560473272,1
0.7536981729545065,0.4825512617198608,0.6938509545166305,0.5650901936959324,0.20327280659743752,0.24778761061947563,1
0.7575529196300019,0.4802598398935654,0.6916880526115406,0.5596670240997028,0.2027433856531473,0.2477876106194703,1
0.7549156926731834,0.4789997016965817,0.6934946791606735,0.5308645113719325,0.2024786751810025,0.24778761061948273,1
0.7567911336912523,0.48057344405403163,0.6916034364866386,0.5173310026830001,0.20181700248401466,0.2477876106194774,1
0.7555426732171102,0.47810731934257683,0.699566233874675,0.5585420058331356,0.20181700248401424,0.24188790560472206,1
0.7542997999987564,0.47502894769324705,0.7016636912457568,0.5429522990253886,0.2014199367757973,0.24188790560473272,1
0.7523066846055648,0.47980101984057316,0.7006556950911429,0.5201242367973364,0.20141993677579717,0.24188790560471674,1
0.7519263703831277,0.4725678007081719,0.7072413485877243,0.536134741643846,0.20089051583150747,0.2418879056047274,1
0.7522976165311805,0.4776964789088659,0.7027683909672353,0.5655067331597738,0.20062580535936253,0.24188790560472206,1
0.7488846546246544,0.4736318839890298,0.7082569432355331,0.5261730056984016,0.1995670669541568,0.24188790560472917,1
0.7476517759102482,0.47613344251017947,0.706621595189884,0.5319577456243313,0.20009648789844683,0.2418879056047274,1
0.7485424004285821,0.47392049144146325,0.706607548759757,0.5496084349397663,0.1999641326623747,0.24188790560472384,1
0.7489000848011462,0.47592424927303834,0.7084168910653199,0.5419541363826341,0.19956706695415732,0.24778761061947918,1
0.7505348237689003,0.47409617074442223,0.7069009423602021,0.5061306355357545,0.19917000124593964,0.2477876106194845,1
0.7503089903557312,0.47575129658660875,0.7064554138966674,0.5403502240569017,0.19877293553772227,0.2477876106194845,1
0.7503530313308568,0.4742926068412887,0.7074755230576735,0.5618813092632164,0.19877293553772188,0.24778761061947208,1
0.7506195439031087,0.47686506235066123,0.7046248118533354,0.534902554848966,0.19797890760466155,0.24778761061946675,1
0.7601943920021963,0.4895421258831482,0.6950409378373927,0.5029018940996448,0.1977141971325168,0.24778761061948273,1
0.7786567198275682,0.4991435233301191,0.6557903828552011,0.5477114190837264,0.19665535524393693,0.24778761061946675,1
0.7924438533914921,0.49869182037204846,0.6403257870962411,0.5519237868968562,0.19612593429964661,0.2477876106194703,1
0.7990397112334182,0.49811646199319365,0.6310719823426247,0.5337949994636969,0.19572886859142968,0.24188790560473805,1
0.7998691885239735,0.500666579385113,0.6146618672679194,0.5242958886294342,0.19546415811928475,0.24188790560473095,1
0.8162231079672699,0.4914502520452646,0.5899287896869209,0.5906431333553196,0.19559651335535688,0.24188790560472384,1
0.8223764807983891,0.4989943398727922,0.5383462565439279,0.5649579726350389,0.19546415811928444,0.24188790560471674,1
0.8533037618999633,0.5056064966231538,0.4590005126658058,0.4645642317776816,0.19678771048000926,0.24778761061949162,1
0.849183306787685,0.5060810171065094,0.4499578453662235,0.4960159434238939,0.19850822506557692,0.24778761061948984,1
0.8460654743034715,0.5035710363989344,0.466304694254264,0.5763588442577663,0.19864058030164983,0.2477876106194863,1
0.8466553581135143,0.4990311202827752,0.47116857902148096,0.5365348942424909,0.1993023564820123,0.2477876106194845,1
0.8508232644417615,0.4977100495983686,0.46617687717686584,0.5283529761163006,0.19969942219022946,0.24778761061947385,1
0.8490557520882067,0.4977727997416606,0.46413178711553893,0.6072572253647178,0.19969942219022932,0.2477876106194703,1
0.8487265962800792,0.5021893435525401,0.46639646382487204,0.5855245728386296,0.1995670669541567,0.2477876106194703,1
0.847493635414623,0.5039440710547098,0.4620249226116471,0.5051426866048867,0.19903764600986715,0.24778761061948273,1
0.8484223814525151,0.5046325410376322,0.46280270129101886,0.48449957028136453,0.19903764600986723,0.2536873156342292,1
0.8471076844145724,0.49287776714313014,0.4742598067511102,0.5326730762975056,0.19903764600986754,0.25368731563422564,1
0.8414560364484243,0.4947091654781761,0.47802315506491755,0.5237215331508687,0.19864058030164877,0.2536873156342221,1
0.8427691590904693,0.4933485767902067,0.4781363500507983,0.5061603747448847,0.19824351459343237,0.2536873156342345,1
0.8444571731469868,0.4907328037640096,0.47528866954818494,0.5469754651927912,0.19784644888521447,0.25368731563422564,1
0.8442943249986852,0.4917578790103601,0.47548843202215163,0.5057959538070264,0.1978464488852147,0.2536873156342363,1
0.8445391595319272,0.496042353006472,0.47388136940378595,0.5113540471091642,0.1970524209521548,0.2536873156342381,1
0.8483962532429674,0.4971733641236346,0.4677672418782889,0.5403909863901947,0.19692006571608195,0.25368731563421854,1
0.8429520815749878,0.49995708960244273,0.4705558142658189,0.5144488185143284,0.19652300000786455,0.2536873156342274,1
0.8452697848780226,0.4952061969605315,0.4770398286701599,0.5167347995869696,0.19639064477179172,0.2536873156342292,1
0.847080098307448,0.49465826923590656,0.47217845352334564,0.5721613709575265,0.19572886859142946,0.25368731563421854,1
0.8447416690943164,0.49482604473726,0.4751261646625882,0.5320074706077489,0.19559651335535694,0.2536873156342203,1
0.8453372518477253,0.4950284423684201,0.4726170207403704,0.5147507218574323,0.19546415811928483,0.2595870206489721,1
0.8462460943720294,0.49351552369359747,0.47493933597656324,0.5701927678152123,0.19519955113051476,0.2595870206489792,1
0.8448142962778196,0.4932133279787349,0.47269619694323484,0.5559576345489933,0.19480248542229614,0.25958702064897743,1
0.8436159290550349,0.49581376603494476,0.47501740469724224,0.5119740770614788,0.19440541971407893,0.25958702064897743,1
0.8459290359117584,0.4932566363168384,0.47439608932719485,0.5567352378500929,0.19427306447800644,0.2536873156342203,1
0.8464038329054779,0.4929054943481798,0.4755139529050528,0.563925499709104,0.19427306447800685,0.2536873156342221,1
0.8464825615121665,0.49407459915405494,0.473704728957055,0.5206162513482232,0.19414070924193425,0.25368731563422564,1
0.8453959733148795,0.494339886911826,0.47518313141478363,0.5308235062484961,0.19414070924193438,0.25368731563422564,1
0.8464548092028579,0.49594664536878763,0.47252175748997516,0.5645534931351818,0.1942730644780066,0.25368731563421854,1
0.8460389881334729,0.4953088362795411,0.4751322119541248,0.5263780451594006,0.19427306447800685,0.25368731563423275,1
0.8452844129334729,0.4950897685192527,0.4752388027585861,0.5128116402676305,0.19427306447800693,0.2536873156342292,1
0.8445135716011205,0.4929266313909485,0.48299377796911463,0.5607014060672313,0.19427306447800693,0.25368731563422386,1
0.8452190362692289,0.49274082125466456,0.4795900431801915,0.5591296201368401,0.19400835400586164,0.25958702064895967,1
0.8438459257086661,0.4922668473587743,0.48308430134916647,0.5084468992922198,0.19361128829764462,0.25958702064898276,1
0.8438772957093414,0.4929445437111903,0.48080441847215316,0.5234232688375,0.19334657782549988,0.2595870206489721,1
0.8396395942405275,0.4871387398997118,0.48900768751398316,0.5514193104693633,0.19308186735335423,0.259587020648981,1
0.8438893064259112,0.47872024367298044,0.4887949287766279,0.5593761368887377,0.19255254989243903,0.2536873156342292,1
0.8423467297467027,0.48520224433253817,0.48177567959376577,0.5110200976285968,0.19242019465636662,0.25368731563421854,1
0.8433735922529411,0.4799821784390404,0.48503026983246794,0.5522643184285801,0.19162606323993148,0.253687315634215,1
0.8418984180932996,0.4808501647107859,0.48634376295925985,0.5455836183824531,0.19149370800385923,0.25368731563421854,1
0.840603036552942,0.481253162402899,0.4822751729241247,0.5212035207855723,0.19096428705956947,0.25958702064897565,1
0.8441123350158892,0.4776736880406583,0.48579813003388517,0.5324724173325122,0.19083193182349678,0.25958702064898276,1
0.8451039229086978,0.48290088046511054,0.4813667050242316,0.5662791752547525,0.1904349695986538,0.259587020648965,1
0.8436126364798504,0.48057975195885266,0.48598839806239724,0.5318638758192623,0.19003790389043645,0.2595870206489739,1
0.8444101689261321,0.48315253167201405,0.4818998698070964,0.5256340153721081,0.1895084829461467,0.2595870206489739,1
0.8439945053359654,0.4795340783105661,0.48701963621808275,0.5431543083091563,0.1892437724740013,0.259587020648981,1
0.8409211687171196,0.4854931026720227,0.4846210488080461,0.5481638179725484,0.1881850340687958,0.2595870206489721,1
0.8427914095389095,0.4813474350710927,0.4907775674608743,0.5104926786604653,0.188185034068796,0.259587020648981,1
0.8386900391352661,0.48727514500827757,0.4919464053444241,0.5438896645690521,0.18805267883272317,0.25958702064896855,1
0.8403368184763518,0.48719269894545963,0.49278987068869984,0.5502877053313261,0.1880526788327234,0.2595870206489721,1
0.8413701350867051,0.4898307811542567,0.49172352605206815,0.5289534658946379,0.18765561312450618,0.25958702064896855,1
0.8378443641583775,0.4931196392884075,0.49426429798404237,0.5192849290079707,0.18739090265236122,0.25958702064896677,1
0.8451797697708265,0.4893313958230784,0.49243097649853873,0.5652258618318232,0.18699383694414393,0.26548672566372566,1
0.8315634501091107,0.49078319289414235,0.5254096783587294,0.5353953362938529,0.1868614817080711,0.2654867256637168,1
0.8306390062706717,0.49647055235658943,0.5328324225054614,0.5214511571560354,0.18659677123592638,0.265486725663715,1
0.8077291762391159,0.48767734521018147,0.5967919647345065,0.5463643736182514,0.1860673502916362,0.26548672566372566,1
0.7811877091474744,0.46447338488328416,0.6483775556363673,0.5581984573371769,0.18580274330286628,0.271386430678481,1
0.8066009702537458,0.48091646094017754,0.5844872699669452,0.4975990811186798,0.1865967712359263,0.27138643067846857,1
0.8562218383812583,0.48267745103350246,0.44649481052700707,0.5142976251620163,0.18805267883272403,0.2713864306784828,1
0.8429199733432859,0.44546283240561,0.47941397231931365,0.5260083140530318,0.18752325788843383,0.2713864306784668,1
0.8393110815656322,0.4869329321548778,0.48725301086094064,0.563753755933217,0.18765561312450632,0.2595870206489721,1
0.8515456456933037,0.49055069575923366,0.47609785768402024,0.587513361707292,0.18765561312450701,0.25958702064898986,1
0.8400580217169862,0.5499843587234123,0.46209039377289046,0.5789639423304935,0.18606735029163646,0.2595870206489721,1
0.8407308968514284,0.5689487354724561,0.462196783165855,0.5867397500754059,0.1816998344679936,0.25958702064898276,1
0.8427518376313154,0.5710081460266825,0.4623697462529307,0.6038334436595341,0.18175364582276915,0.25958702064896677,1
0.8420001588449351,0.5681209550826155,0.46592857188020215,0.5118825275043581,0.18135668359792625,0.25958702064898453,1
0.8412579942330112,0.5606321507477066,0.471053756653103,0.5533615595045247,0.1806949074175641,0.25958702064898276,1
0.8404205747503102,0.5588377874528525,0.479010540651443,0.5272653537299941,0.18016548647327374,0.259587020648981,1
0.8373338050936387,0.5546437137901762,0.48325779046808803,0.5156635781484408,0.18029784170934607,0.271386430678465,1
0.8376708837362421,0.5542735684852813,0.48506201209701316,0.5083676648418025,0.1802978417093463,0.2713864306784739,1
0.8375443052302731,0.5528222581643908,0.4862745568563913,0.454030570410733,0.17976842076505614,0.271386430678465,1
0.8375339086909883,0.5539727704138199,0.4890405344492629,0.4650733589511509,0.1795037102929113,0.2713864306784721,1
0.8364346109671814,0.5528784568910116,0.48642678784289883,0.5470877250433414,0.17923899982076646,0.27138643067847923,1
0.8387653221946532,0.5530952211380717,0.49142072779936175,0.5256887913752121,0.1791067480680684,0.2713864306784721,1
0.8367335157143931,0.5477795990962698,0.4872255525316628,0.5075024863260031,0.17870968235985105,0.271386430678481,1
0.8378363371139981,0.5469263524308504,0.49154432150520033,0.5600299958790489,0.17844497188770614,0.27138643067847745,1
0.8362248076067995,0.5458519267118549,0.49222266456556496,0.5412882184752926,0.17804790617948846,0.25958702064898453,1
0.8383131495704248,0.5450942472854228,0.4919191248353523,0.4990392317157606,0.17765084047127083,0.2595870206489863,1
0.8358633045918953,0.544130049592542,0.4949252721171771,0.5410446726689642,0.17725377476305376,0.259587020648981,1
0.8402145370209606,0.5422627097919488,0.50250275515449,0.5594620032623605,0.17712141952698113,0.2595870206489632,1
0.8236193570385666,0.5215551109869093,0.5516507304146934,0.5145219019667778,0.1769890642909088,0.26548672566373455,1
0.8043513734572458,0.5054929753089237,0.6153404730960818,0.525815924067046,0.1761950363578481,0.26548672566372034,1
0.7642051627985995,0.49083680345561775,0.6764895442692411,0.5600211956449562,0.17606268112177587,0.2654867256637168,1
0.7540439371184782,0.5000259186935976,0.7026924931188229,0.5051533875508116,0.17553326017748558,0.2654867256637239,1
0.7398234479059149,0.47485429238737425,0.7146559220489566,0.4370345216853099,0.17540090494141347,0.26548672566372744,1
0.732939313578608,0.4657341101429492,0.7323782076412906,0.508266730440055,0.1744744182889065,0.2654867256637363,1
0.7207252239077995,0.4711416632028328,0.7372985780952135,0.5804634295453335,0.175136194469269,0.26548672566373277,1
0.7113438840283639,0.4650623263274068,0.7493305202051371,0.5626898695655423,0.17500383923319585,0.2654867256637097,1
0.7241837426731699,0.45283375866497605,0.7411232264413876,0.6126783776824075,0.17460677352497858,0.2654867256637399,1
0.7126841102288878,0.4501717116022231,0.753704383632364,0.5914525225278706,0.173945100827991,0.2654867256637221,1
0.7118534959569143,0.4509933923840388,0.7527705063564164,0.5038430395094639,0.17381274559191803,0.2654867256637221,1
0.7129572191013906,0.44645043308063764,0.7530008153778378,0.5439064799387348,0.17341567988370113,0.2654867256637381,1
0.7095660973982504,0.45198919482219263,0.7574136157563559,0.5655927418441831,0.17301861417548361,0.271386430678481,1
0.7127854441641348,0.45072469159541195,0.757037636458866,0.5184485090193258,0.17288625893941117,0.2713864306784721,1
0.7068332664282287,0.45659843315936305,0.757065437735327,0.568415318448954,0.17235683799512067,0.27138643067847035,1
0.7087370265061272,0.4569791384205958,0.7612782751867038,0.562679511628749,0.17209212752297615,0.27138643067847745,1
0.7049249321068662,0.4583403610687298,0.7587757960944885,0.5351719260114188,0.17156281006206067,0.27728613569322214,1
0.7061311544857334,0.4566431842044252,0.760220691708805,0.5473450290517882,0.17169516529813378,0.27728613569321503,1
0.7063153169452523,0.45846189373980406,0.7581417983669638,0.5946867939840981,0.17037161293740818,0.27728613569321503,1
0.7080113706635036,0.4565925516805106,0.7604166884237797,0.5082936500927839,0.17090103388169794,0.2772861356932328,1
0.7076051540835264,0.4584825255708276,0.7580109097426364,0.4948282268236067,0.17010690246526328,0.2713864306784828,1
0.710195640280864,0.45658638093681814,0.760529514451316,0.5550925325583647,0.17023925770133586,0.271386430678465,1
0.7093796557289563,0.4584808705047709,0.7578982232897576,0.5343120721716929,0.16970983675704576,0.27138643067846147,1
0.7113381631934698,0.45659316555721674,0.7606606316972291,0.5061138429907639,0.16944522976827528,0.2713864306784721,1
0.7087979320579662,0.45846941261744706,0.757695371811459,0.5572668138890894,0.16931287453220364,0.27728613569322924,1
0.7069118634281462,0.456610696791912,0.7614791153057618,0.5485518552563503,0.16878345358791313,0.2772861356932115,1
0.7005819757780483,0.45844196687248834,0.7585180082154658,0.5159344333589081,0.16865109835184103,0.2772861356932257,1
0.7033561680323687,0.4566565709663876,0.760192673494569,0.5314528365507664,0.16812167740755068,0.2772861356932239,1
0.7005199686314283,0.4583572792723744,0.7592459490859638,0.5642359338022378,0.1681216774075504,0.28318584070796504,1
0.7058594175330087,0.4568425231856085,0.7640277625761442,0.518487577689785,0.16759225646326073,0.2831858407079686,1
0.7025665416938238,0.45770286070116173,0.7579309445920785,0.5131218382855982,0.16745990122718787,0.2831858407079526,1
0.7057838220232011,0.45478264381953487,0.7610139282858748,0.5675936628073545,0.1667982285302,0.2831858407079739,1
0.7016383923872442,0.4579220344243525,0.7618217207033529,0.5588151791439272,0.16706293900234517,0.27138643067847745,1
0.7062949033280455,0.45413421344855603,0.7623107033086305,0.5037350607421004,0.16653351805805588,0.27138643067847923,1
0.700471639478417,0.45742661872766877,0.7588053548797619,0.5303918229943861,0.16626880758591076,0.27138643067847745,1
0.707330853612231,0.45498789690065333,0.763570925022244,0.5578775240211077,0.16600409711376507,0.27138643067845614,1
0.700666705250371,0.4565734554309968,0.75724396054452,0.5354985197514347,0.1658717418776928,0.2772861356932186,1
0.7068307248629275,0.45502634397857894,0.7615502014508716,0.5093917929640557,0.16560703140554803,0.27728613569322036,1
0.7063677148844847,0.4579866977797423,0.7538370194823493,0.5458749650198247,0.16520996569733093,0.2772861356932239,1
0.8018256194921334,0.5164101900438378,0.6399531717496747,0.5594890504118213,0.16494535870855992,0.27728613569321503,1
0.7947391509017561,0.5595394393534653,0.6043768495492121,0.530477722794005,0.1636218063478348,0.27728613569321503,1
0.8034995235926052,0.5477299300089296,0.6260771639082585,0.5132699284392279,0.16322474063961767,0.2772861356932168,1
0.7883112977414277,0.5586088297367111,0.6089636237097854,0.5667097496616276,0.16176893652619498,0.27728613569322214,1
0.8101982563172834,0.5310032346590127,0.6288666700847867,0.625918789551157,0.16243071270655707,0.2772861356932008,1
0.7597857547022512,0.47098454500692655,0.6489309221213091,0.5809658427135848,0.16269542317870286,0.28318584070798636,1
0.8149573076938996,0.4405608217466069,0.7531691437791619,0.4970634349099053,0.16547467616947564,0.28318584070797037,1
0.7132005775503645,0.5753157428861688,0.8291630246949786,0.5127228867200511,0.16785696693540578,0.2831858407079686,1
0.3449541374028775,0.762322723216224,0.7461158237018675,0.47057057798598656,0.1652099656973309,0.2831858407079739,1
0.4300670198620144,0.9048447003274191,0.7606751617743156,0.3568612391659395,0.16348945111176297,0.28318584070796504,1
0.17158534885548693,0.9388645083497966,0.6807680768670006,0.47287394951705536,0.16256306794262995,0.2831858407079775,1
0.1539830555239556,0.9452877020571764,0.6857554815872741,0.7747279765018724,0.16057773940154257,0.28318584070796327,1
0.16448953890069098,0.950471754705128,0.6853748074093848,0.6509669854751053,0.15846015910775782,0.2831858407079739,1
0.1518601718338086,0.9373377966577157,0.6998216917871607,0.4627006747675668,0.1554161956448404,0.2831858407079757,1
0.1708066371626627,0.9342261284567313,0.7086689883784743,0.38414601214960903,0.15581315786968222,0.2831858407079686,1
0.10739703574828885,0.9202828099885756,0.7039921139826419,0.5922236752922736,0.15554844739753795,0.28318584070796504,1
0.1223733617846686,0.9135545703679786,0.7187132263371433,0.5431585793149436,0.15541619564483977,0.2831858407079739,1
0.21225383638043177,0.9189343686640147,0.7368013037901359,0.5107144792718993,0.1550191299366222,0.2831858407079597,1
0.3342264342067045,0.9164780767687526,0.7505129205993306,0.5736407528057166,0.15382793281197013,0.2831858407079686,1
0.3715310779164276,0.9063727179106903,0.7556408493247029,0.45912266384106565,0.1551514851726948,0.2831858407079757,1
0.2102151365795079,0.886376194400282,0.7894879325934104,0.5660517686842098,0.15462206422840466,0.2831858407079597,1
0.1555990255844484,0.893200611172984,0.7517217311241841,0.6405832191249212,0.15382793281196988,0.28908554572272216,1
0.07011200956223945,0.9121123580104518,0.6908268919072775,0.6003014611478705,0.15369557757589736,0.2890855457227115,1
0.05943461979073711,0.9020858869604541,0.7026374659449334,0.4749132588378937,0.15250448393461985,0.28908554572273104,1
0.15787818239425455,0.8961628702300264,0.765689559657071,0.5429120174656189,0.15250448393461968,0.28908554572272216,1
0.1814927383853897,0.8991263604963167,0.7504220940544752,0.5690771801865057,0.15144564204603958,0.2949852507374757,1
0.17260561040361397,0.9087628415028021,0.7563463816203965,0.4631480951824857,0.15197506299032953,0.2949852507374704,1
0.13301538951020936,0.9094034437228523,0.7130631115904724,0.4250528668532672,0.151180931573895,0.29498525073746684,1
0.2132573758964777,0.899299296367567,0.790050441148469,0.5706447160815986,0.1509162211017495,0.29498525073745263,1
0.15418038919462923,0.828585773648909,0.7553888602112074,0.6230724505691426,0.15038690364083446,0.29498525073747395,1
0.5343555556848719,0.5268023164836279,0.8519003585818474,0.5034578551214596,0.15369557757589752,0.29498525073747395,1
0.7492577948863557,0.4084408592260468,0.918724944245297,0.5623373049386112,0.15607786834182794,0.29498525073748283,1
0.5535922964422831,0.3766124582385653,0.8367628959008139,0.5301634830604771,0.15925429052419338,0.29498525073748283,1
0.6544233963579502,0.38339585963437367,0.8300354423154473,0.6185261866789639,0.1664011628219828,0.2890855457227115,1
0.5672646951894729,0.3354382379196652,0.8283882655034773,0.5763879220437087,0.1636218063478353,0.28908554572272394,1
0.608110070405645,0.3311316357523896,0.8423980545229022,0.49634498841170227,0.16772461169933328,0.28908554572272394,1
0.6779680321915184,0.38231821575566466,0.7576042630643174,0.4209752801127705,0.17328332464762802,0.2890855457227115,1
0.7676394224928969,0.39482503477643754,0.6872529154857219,0.6372094489772202,0.17513619446926837,0.2890855457227115,1
0.7582972384269688,0.4070777217283482,0.6536395321565299,0.11907217890367705,0.17354803511977349,0.2890855457227257,1
0.7869528587543796,0.4126851536943004,0.6501689862551783,0.5186544878118055,0.17341567988370055,0.28908554572271505,1
0.7663532881107052,0.42208671083943816,0.648506877078125,0.9033624024490172,0.1720921275229759,0.28908554572270795,1
0.7857969156433218,0.41352923614390946,0.6486221757886228,0.6265286163631049,0.17129809958991538,0.2949852507374686,1
0.7738164451475698,0.40454936872653374,0.6387088453012273,0.5858060426146493,0.17156281006206067,0.29498525073747395,1
0.7887172803194997,0.40683826641083914,0.6314673210578973,0.48840066127384935,0.172621548467266,0.2949852507374686,1
0.7837041311967847,0.4117304641483795,0.6215649717783673,0.45293122823888393,0.17248919323119355,0.29498525073745796,1
0.7919859285567339,0.41400282508221103,0.6315369217347271,0.4182661428496648,0.17222448275904872,0.29498525073746684,1
0.7828878909720431,0.4117215762878208,0.6242510142293691,0.6019798698081504,0.1715628100620608,0.29498525073747395,1
0.7918127948120148,0.4097589789950334,0.6277120458952141,0.6784583987700721,0.1712980995899159,0.2949852507374686,1
0.7827067320460349,0.41807047052118,0.6262727164885489,0.49061227453802986,0.17103338911777058,0.2949852507374615,1
0.7919992032878729,0.41160909426200454,0.6359135246439954,0.4531265138384379,0.17076867864562567,0.3008849557522133,1
0.779990414754177,0.4139868423165314,0.6341982056975216,0.5676618254028205,0.1707686786456258,0.3008849557522133,1
0.7877175589615766,0.41388389121411184,0.6366031067598819,0.5632659412332939,0.17050396817348074,0.30088495575220975,1
0.7776791882944488,0.41323947142438755,0.6363041126156341,0.518890409990206,0.1701069024652635,0.30088495575222396,1
0.7846974283017734,0.4127760931464833,0.6391542882324861,0.5452468741424752,0.16984219199311862,0.3008849557522346,1
0.7943821363149168,0.43159863231489826,0.6031397348568652,0.570094415792888,0.17037161293740868,0.3008849557522275,1
0.8404926409957871,0.462519431748393,0.5047231158043025,0.5316880899543827,0.17010690246526344,0.3008849557522133,1
0.8557886271752733,0.46639614834024773,0.45394185884748894,0.5253081566507918,0.1694452297682754,0.3008849557522204,1
0.8376623648619625,0.4526514852558013,0.5119377476223789,0.569859232885785,0.16891580882398535,0.3067846607669704,1
0.8208710946435278,0.44840335815401117,0.5350092040499459,0.5632390876185228,0.1686510983518404,0.3067846607669722,1
0.8216819702097662,0.44152804192417877,0.5557490870871769,0.49696559342924385,0.16891580882398546,0.30678466076695443,1
0.8316062859059856,0.47186715866403023,0.5291262892868653,0.4869776111221518,0.16851874311576828,0.3067846607669704,1
0.8291470261430096,0.480788155957494,0.5382836433899937,0.4899174905350853,0.1671951907550432,0.30678466076697397,1
0.827962772114279,0.48341079305776735,0.5296776415782638,0.5610321791598966,0.16666587329412777,0.3067846607669633,1
0.8325514656689827,0.47827488500940374,0.5370281828605536,0.6380305755982516,0.16626880758591056,0.3067846607669633,1
0.8237670732453517,0.4815036308390304,0.5400996294878581,0.662955365107696,0.16600409711376538,0.3067846607669793,1
0.8326783880172182,0.4778638661489496,0.5366928488347917,0.499518712952939,0.16587174187769282,0.30088495575222396,1
0.8240385906939023,0.4778426596388864,0.5361170186387808,0.43144722235800237,0.16547467616947562,0.3008849557522115,1
0.8313428801705354,0.4746553480876344,0.545212715986223,0.5007763037692092,0.16534232093340304,0.3008849557522062,1
0.8259545000702222,0.471634460523643,0.5406496527798789,0.5387417735536897,0.16494535870856056,0.30088495575221685,1
0.8301943147507278,0.47422715490957323,0.5415928275794786,0.4997241397321768,0.16441593776427074,0.3126843657817311,1
0.8251881332120892,0.4743869858060571,0.5439753553742298,0.5347768172058913,0.1645482930003425,0.31268436578170977,1
0.8310622441909619,0.47065631385646745,0.5452225143613615,0.5575941071626794,0.1642835825281976,0.312684365781724,1
0.8251604893527085,0.4723496958205136,0.5406961435108231,0.5211744439162785,0.16388651681998082,0.3126843657817151,1
0.830877540286237,0.4711943847311294,0.5418894034909228,0.5135905123957526,0.16362180634783527,0.31268436578170267,1
0.8219878797940827,0.4680273507943652,0.5427293882261148,0.5684878865030233,0.16335709587568992,0.3126843657817062,1
0.829526486054091,0.472548905346344,0.5415411539208277,0.5422989507870668,0.16296003016747324,0.312684365781724,1
0.8244973235559399,0.46842729816963125,0.5420920681639201,0.5089139500114601,0.1628276749314008,0.312684365781724,1
0.8308326460266133,0.471764123805828,0.5422002433918816,0.554275871645362,0.1625630679426301,0.31268436578172043,1
0.8235860136967368,0.46879406062808127,0.5407932039062523,0.5674888796260711,0.16243071270655718,0.3126843657817151,1
0.8321042535839946,0.47493011767799287,0.5396512132837024,0.511503732154993,0.16176893652619512,0.31268436578171865,1
0.8266312021526974,0.4728086419048871,0.5288379778443315,0.5407588537686531,0.16150422605404957,0.3126843657817062,1
0.8454928263187416,0.4768700488495348,0.5152443788618016,0.5719056260722799,0.1613718708179775,0.31858407079646156,1
0.8267905048711719,0.46794616556986723,0.5035237493326057,0.525810204510413,0.1609748051097604,0.3185840707964651,1
0.8338752251872172,0.4690639012537309,0.525589167422476,0.514785946058068,0.16415122729212492,0.31858407079646334,1
0.8356185556428637,0.5163501237513792,0.5596865789967652,0.5914982617525675,0.17315096941155567,0.3185840707964598,1
0.8021767407394711,0.5318716039234732,0.5622716533666637,0.5321188592616498,0.16970983675704598,0.3185840707964598,1
0.8170507281568147,0.5859323619383228,0.5621730153351331,0.5214862407252804,0.16626880758591006,0.3185840707964669,1
0.8189123076924527,0.571968483001187,0.5735384823172194,0.5198475869813998,0.16348945111176258,0.31858407079646156,1
0.8154987024331275,0.5567438615210334,0.5575512700871398,0.6820388950198223,0.16203364699833997,0.318584070796458,1
0.8166685208353113,0.5549304331772122,0.5731531630331199,0.4959600505302933,0.16123951558190464,0.31268436578170267,1
0.8152506175290308,0.5566126397684182,0.5678139859426373,0.42595505447241655,0.16031302892939758,0.31268436578170977,1
0.8159813264637736,0.5589099368877497,0.5730858304565426,0.4971899963792852,0.15951900099633773,0.312684365781724,1
0.8183710272936944,0.5502121432692982,0.5668061148028735,0.5300934630290373,0.15912193528811983,0.3126843657817151,1
0.819847208623588,0.5489919631467725,0.5708834548773041,0.5081120433197145,0.15885722481597475,0.318584070796474,1
0.8170663450865643,0.5485182644311928,0.5681689109376113,0.5660734690896119,0.1585925143438296,0.3185840707964438,1
0.8201822389988453,0.5474545227589591,0.5725092653633527,0.562472808026222,0.15819544863561266,0.31858407079646334,1
0.8180640534909058,0.5469432556652283,0.5665478153140582,0.5107611875983623,0.15779848641076988,0.31858407079646867,1
0.8201666137379688,0.5450011982896598,0.5710736106781662,0.5485663331424911,0.15740142070255228,0.3185840707964722,1
0.8177722603182174,0.545102166882003,0.5673297512364417,0.5591386822453326,0.1572690654664797,0.3185840707964669,1
0.8189440230525045,0.544353304538266,0.5712085250814,0.513631505063651,0.15687199975826244,0.3185840707964651,1
0.8187243225842726,0.5450161430051946,0.5659059683596699,0.5428078627608375,0.1564749340500448,0.31858407079646156,1
0.8194274729604216,0.5444121562677121,0.5717825828060273,0.5597199783531673,0.15607786834182752,0.31858407079646156,1
0.8189944681495425,0.5449819306612966,0.5662418806838163,0.5160176214973434,0.15581315786968256,0.31858407079646867,1
0.8183739526774445,0.5444403252921748,0.5781361065066313,0.5388547555680656,0.15541619564483994,0.31858407079646334,1
0.8083919661029295,0.5441096225087898,0.5934820102532845,0.56446627129655,0.15515148517269464,0.31858407079646867,1
0.785904593787792,0.5406942390987095,0.6423173233810853,0.5284333369732236,0.15488677470054976,0.32448377581121335,1
0.7716997132073626,0.5357373979527867,0.66423033687385,0.5301941162714694,0.15462206422840474,0.32448377581121157,1
0.7764487503983465,0.5361104749106957,0.6643083962886314,0.5643709898140904,0.15396028804804218,0.32448377581122223,1
0.7720065492984498,0.5358374386776307,0.6633400826819928,0.5635664121384366,0.15369557757589766,0.32448377581123466,1
0.7758229067331117,0.5348921382775234,0.6654440132238592,0.5399075409197046,0.15329851186768018,0.3303834808259758,1
0.771318771770353,0.5361585811696851,0.6661913369841355,0.5641108221158617,0.1530339048789096,0.3303834808259669,1
0.7753339943230726,0.5358400996978275,0.6658280852575833,0.531210941813117,0.1526368391706916,0.33038348082595803,1
0.7714627592694872,0.5361851440170914,0.6650722150025117,0.49376895951907507,0.1521074182264021,0.33038348082596514,1
0.7757385994786499,0.5352360202971778,0.6678333033149452,0.5373361362979587,0.1518427077542573,0.3244837758112098,1
0.7724750011137858,0.5350929809508023,0.6662885502896163,0.5479167213879551,0.15157799728211271,0.32448377581122223,1
0.7755203462784681,0.5348610743060396,0.6674762686639266,0.5027072225315237,0.15131328680996797,0.324483775811224,1
0.7726097646775096,0.5342846171797047,0.6666909901705786,0.5250531047386626,0.15078386586567707,0.3244837758112098,1
0.7754168010772269,0.531579066397053,0.6647518642088601,0.561625860100806,0.1506516141129791,0.32448377581120624,1
0.7726975820280115,0.5319341879003106,0.664481708005751,0.5336741029696966,0.15051925887690684,0.3244837758112151,1
0.7753375473975717,0.534858215049215,0.665098166867093,0.5067074767240828,0.15025454840476193,0.32448377581121157,1
0.7727726963907977,0.5323237470566649,0.6642939416705829,0.5524162076119381,0.1497251274604723,0.3244837758112151,1
0.7752630209060948,0.5309104983890984,0.6657442470992296,0.5575819838920401,0.14959277222439973,0.32448377581120447,1
0.7728503728308957,0.5329554996832572,0.6654943845212806,0.5159612135436623,0.14879864080796432,0.3244837758112187,1
0.7751770557171456,0.5320842423626803,0.6671650502977737,0.5225690455603598,0.14906335128011,0.3244837758112151,1
0.7729537140910966,0.5327019769772591,0.6659826905776056,0.5611387494199199,0.14853393033582013,0.32448377581122756,1
0.7750352557793226,0.5313644972273273,0.6676338257287349,0.5423121296127025,0.14826932334704934,0.3303834808259758,1
0.7732081568067783,0.5319574476122376,0.6652158709966501,0.515500175618792,0.14800461287490452,0.33038348082597224,1
0.7734243461581538,0.5323191134154073,0.6691609441421973,0.5458824360455201,0.14773990240275942,0.33038348082596514,1
0.7714941660608738,0.5272022257445458,0.6713133818796779,0.5642247270735173,0.14747519193061412,0.3303834808259598,1
0.7737438224455139,0.5274651336976054,0.6717672538310354,0.5251704741312513,0.14721048145846935,0.33628318584070627,1
0.7713832075945226,0.5288311892354562,0.6711563953791102,0.5137862221300409,0.1472104814584698,0.3362831858407205,1
0.7755518554829912,0.5279168290768121,0.6698313847834524,0.5700646001356161,0.1465487052781068,0.3362831858407205,1
0.7727026456507452,0.5269071252184523,0.6704742700150967,0.5848021791212833,0.14654870527810723,0.3362831858407134,1
0.7753265927791306,0.5279241967892646,0.6697309350136987,0.5005683507314604,0.1460193878171919,0.3362831858407098,1
0.7722252289594889,0.5278975998798622,0.6695794957048198,0.48790616667248055,0.14535761163682934,0.3362831858407098,1
0.774245530698008,0.527940452979198,0.6623160098504822,0.5474624507955056,0.14548996687290186,0.3362831858407258,1
0.7971527531999352,0.5359270310536595,0.6236608034797166,0.5443625218636762,0.14548996687290192,0.3362831858407098,1
0.8081176215385075,0.5358308002404683,0.6029893351672788,0.5120739830458314,0.14456348022039464,0.3421828908554705,1
0.8028189855758516,0.5361762591866271,0.605820489541995,0.5305801751414082,0.14456348022039436,0.34218289085546516,1
0.8076868517144975,0.5357174330523713,0.6084745035090217,0.5556577094384394,0.14416641451217724,0.34218289085547227,1
0.7992526820522543,0.5367084916266531,0.6131008481933038,0.5270305663383916,0.14376945228733384,0.34218289085545983,1
0.8028033094949985,0.5366472608278258,0.6137940051652795,0.5136634583503825,0.14257825516268113,0.34218289085547227,1
0.7993532651646151,0.5358346399648617,0.6131573717453139,0.5432175859183491,0.14310767610697175,0.3421828908554634,1
0.7982680974289353,0.5356571036661347,0.6208011881639935,0.5576950255121362,0.14284296563482668,0.3421828908554634,1
0.789530793539897,0.5351834852179612,0.6336167795213032,0.5268543882448606,0.14257825516268183,0.3421828908554634,1
0.7841895294026887,0.5346202218949063,0.6495302689481669,0.5431915463524553,0.14231354469053684,0.34218289085546516,1
0.7789543969679549,0.5390662269563076,0.6507984866100637,0.5734656461514155,0.14191647898231874,0.3421828908554492,1
0.7888608310838106,0.5504989697405412,0.6445611303915753,0.5415827500136253,0.1420488342183914,0.3421828908554687,1
0.7790048990942169,0.5438376276438943,0.6532657527732573,0.5281383974293614,0.14151941327410175,0.34218289085545806,1
0.7710901028544795,0.5453003055393153,0.6675060023412241,0.5702282670057258,0.14125480628533127,0.3421828908554616,1
0.771378408290494,0.5434739853721466,0.6707455832518843,0.563251229989664,0.1405930301049688,0.34218289085546516,1
0.765402992223025,0.5457915361127519,0.6790922288132875,0.5171031893536755,0.13993125392460667,0.3421828908554634,1
0.7612533980274574,0.5463369772489428,0.6830792020423666,0.5335905294930308,0.13887251551940158,0.34218289085547227,1
0.7664370019501223,0.5437012968243908,0.6835419574269694,0.5630006707191961,0.13874016028332883,0.33628318584072403,1
0.7618953262742139,0.5469236354185173,0.6841159987902286,0.47205587804766974,0.13887251551940133,0.33628318584070627,1
0.7648322147515104,0.5452398353088069,0.6833005958783533,0.49269302119878433,0.13821073933903893,0.3362831858407169,1
0.7635892307247885,0.5446264165419725,0.6838702968504614,0.5557263736080822,0.13821073933903924,0.3362831858407116,1
0.766113885482967,0.5446727269221517,0.6849870397166695,0.5474992671697929,0.13794602886689372,0.34808259587020984,1
0.7625655394514708,0.5447909911714272,0.6822549084959395,0.5055087681910951,0.1378136736308209,0.34808259587020274,1
0.7621513496512217,0.5445523369375429,0.6839123022804972,0.5598505705176149,0.13741660792260393,0.3480825958702205,1
0.7635421886899683,0.5450270805763776,0.683191992011891,0.5679089848268187,0.137151897450459,0.34808259587020807,1
0.7649933478505266,0.545824494095832,0.6859636044838378,0.5186502614963653,0.1367548317422415,0.34218289085546516,1
0.7642167409219407,0.5457472718817268,0.6812769050309171,0.5110568930584892,0.13675483174224135,0.3421828908554545,1
0.7656733736308716,0.5442546366672697,0.685350921561086,0.5613731951732671,0.13635786951739842,0.34218289085546516,1
0.7641814085991665,0.5432870785450039,0.6809094957795458,0.5595299878074305,0.1362255142813261,0.3421828908554527,1
0.7551775735010763,0.5360281676325777,0.6939964304796508,0.5210565773984673,0.13635786951739853,0.34808259587020984,1
0.7559752867419245,0.5316721254384951,0.6995340144136852,0.5099166293878996,0.1364902247534706,0.34808259587020807,1
0.7539107867950112,0.5344082191366044,0.6997963898820294,0.5699130030936412,0.13569609333703642,0.34808259587022405,1
0.7455037877837722,0.5306496952368426,0.7087032003169431,0.5564531764927656,0.13569609333703647,0.3480825958702134,1
0.7484609957679864,0.533043394758391,0.7068913557450514,0.597105195648228,0.13543138286489093,0.34218289085545806,1
0.7457995480937918,0.5317485440401397,0.7084154435333428,0.5077242862787857,0.1354313828648913,0.34218289085545806,1
0.7487673506054531,0.5306614700580374,0.7097931011552799,0.47701473864320026,0.1352990276288186,0.3421828908554705,1
0.7484660817606068,0.5300760153509868,0.7086847358668545,0.5458054712028694,0.13516667239274638,0.34218289085546516,1
0.748772077649791,0.5286794022054794,0.7107499098942516,0.520504084445494,0.1341079339875412,0.3480825958701974,1
0.7478541246776182,0.5277777750613409,0.7085178473422813,0.5249444987758871,0.13476960668452892,0.34808259587020984,1
0.7488626084705033,0.5270962179200896,0.7120264306103647,0.5638464334627961,0.13450489621238415,0.34808259587021695,1
0.7474571374249962,0.5275761875795034,0.7075162037014551,0.5518555474603731,0.1343725409763115,0.34808259587020274,1
0.7480568478997665,0.5252654684263297,0.7103253824137118,0.4931569191621633,0.1339755787514686,0.3569321533923375,1
0.7470817212070541,0.519796385513255,0.7122390004624775,0.5298563429849563,0.13357851304325127,0.3569321533923304,1
0.7508125473388538,0.5185176130162492,0.7117100573761468,0.5735134357490821,0.13318144733503368,0.3569321533923304,1
0.745992312430698,0.5208147785137555,0.7114420563295587,0.516172384204639,0.133049092098961,0.35693215339232687,1
0.7480033655445111,0.5211150406213987,0.7119975629687939,0.48951258786650426,0.1325196711546716,0.3539823008849705,1
0.7460013795637199,0.5177326556419474,0.7112795925532773,0.5327105471722298,0.13251967115467145,0.35398230088495986,1
0.747982334054189,0.5212983837240394,0.7121080038664036,0.5545031986400637,0.1323873159185988,0.3539823008849634,1
0.7460199044095355,0.5207151658018015,0.7111960302591638,0.5219695304072645,0.13199025021038152,0.35398230088495275,1
0.7479660511449636,0.5203668449639496,0.7121758735200087,0.540314870213623,0.13185789497430875,0.356932153392334,1
0.7460345979476433,0.5202851219382657,0.7111380449164839,0.5699551921336357,0.1317256432216115,0.35693215339235884,1
0.7479525185503152,0.5203994547712107,0.7122273325316786,0.5270053447654686,0.131460932749466,0.3569321533923375,1
0.7460472231497568,0.5192524544235183,0.7110910061575919,0.5249971920289008,0.13329320937956685,0.3569321533923322,1
0.7479406597090633,0.5193629679583328,0.7122713620485106,0.5755398338448685,0.13316085414349477,0.3539823008849705,1
0.746058380613299,0.5199600763523252,0.7110489855383698,0.5595269884969438,0.1318374052661439,0.3539823008849581,1
0.7479301975901963,0.5192423299067578,0.7123121199804427,0.5021045292760616,0.1327637884352776,0.35398230088495275,1
0.7460680977249847,0.5203940905797159,0.7110089065524295,0.5414496068167295,0.13236672272705946,0.35398230088495275,1
0.7479213403112757,0.5183692494864861,0.7123519979607639,0.5750186518374875,0.13210211573828928,0.356932153392334,1
0.7460758891488807,0.5191915129524759,0.7109688205952971,0.5389149723823128,0.1321021157382895,0.3569321533923322,1
0.7479149662872984,0.5204456346651005,0.7123926571083896,0.4958353637725368,0.13183740526614468,0.35693215339231976,1
0.7460802373167355,0.5180127303146221,0.7109272486390055,0.5389022181511391,0.13157269479399933,0.35693215339234463,1
0.7479137506894171,0.5190663061701793,0.7124354698223547,0.5712567432416091,0.1313079843218543,0.3539823008849581,1
0.7460761387771278,0.517995241590238,0.7108828674623231,0.5318174411506156,0.1313079843218538,0.353982300884951,1
0.7479280110658311,0.5211396853331637,0.712481757022136,0.5116309489999147,0.13077856337756424,0.3539823008849581,1
0.7460387256912053,0.5182730163253302,0.7108343171888448,0.5554889317845452,0.13077856337756422,0.3539823008849563,1
0.7480376272037241,0.5188965115871097,0.7125329567848329,0.564554971346776,0.13011678719720193,0.3569321533923375,1
0.7453402955305333,0.5182585201805759,0.71078004138872,0.5202517165621945,0.13051385290541934,0.35693215339234996,1
0.7460680706869358,0.5211618543724454,0.7125907876505388,0.4983745368652194,0.12998443196112983,0.3569321533923375,1
0.7465721599119297,0.5179853240022284,0.7107181092219943,0.5564667794572093,0.13011678719720177,0.3569321533923375,1
0.7470171509720626,0.5190014717750988,0.7126574526766194,0.5653184837784817,0.12971982497235968,0.35693215339234285,1
0.7455111146159816,0.5185574480706844,0.7106459716123065,0.528616521000222,0.12971982497235887,0.356932153392334,1
0.7480196881579834,0.5199501897423022,0.7127359401778435,0.5001616194489301,0.12866098308377905,0.3569321533923304,1
0.7460624714185458,0.517607900723381,0.710560080711451,0.5488207809584047,0.1291904040280693,0.3569321533923322,1
0.7478903916126076,0.519377626602388,0.712830515824687,0.5611794174560315,0.1290580487919971,0.3657817109144528,1
0.7461367867271773,0.5181217339185211,0.7104552407672124,0.5331212311283257,0.128528627847707,0.365781710914467,1
0.7477950125549743,0.5224419379874596,0.7129475956567233,0.500314343425762,0.12839627261163414,0.3657817109144528,1
0.7471734198157964,0.5173739719121153,0.710323410362224,0.5454459612115872,0.1279992069034171,0.36578171091446876,1
0.7480808248288167,0.5197891837686561,0.7130974250258779,0.5662476108913014,0.12799920690341782,0.371681415929217,1
0.745985708957996,0.5172455036096906,0.7101512921786517,0.5339125231456322,0.1276021411952001,0.3716814159292028,1
0.7479992490885141,0.5199531004796434,0.7132976342061821,0.5105483267609277,0.1274697859591268,0.37168141592921344,1
0.7459812492977864,0.5170327510949424,0.7099149176472621,0.5466732805883,0.12720517897035674,0.3716814159291957,1
0.748046047788174,0.5202227648235377,0.7135818090184636,0.5624827309604573,0.12707282373428425,0.35693215339234463,1
0.7458679826316281,0.5166907467002279,0.7095654195511151,0.5232178115949632,0.12680811326213898,0.3569321533923233,1
0.7491333335533314,0.5206639177779859,0.7140246195073562,0.5158031107859066,0.1268081132621395,0.35693215339234463,1
0.7460735361700976,0.5161028296896857,0.708980659303124,0.5547896883367656,0.12588162660963215,0.35693215339234463,1
0.7480507298748507,0.5214934591526093,0.7148482693481761,0.5571964088196799,0.12627869231784894,0.35693215339233575,1
0.7458972822455329,0.5147835864283393,0.7076590003853508,0.5107695740028488,0.12601398184570423,0.3569321533923375,1
0.7478029537064387,0.5259822930041732,0.716131092504265,0.5105252487213396,0.12548456090141452,0.3569321533923464,1
0.7496071390792427,0.5177592206526341,0.7023479997569234,0.5694237653245738,0.12561691613748668,0.3569321533923375,1
0.7731297574601463,0.5492364704442468,0.6954504673053004,0.5584408303226087,0.12521985042926925,0.356932153392334,1
0.7515639960422436,0.5046822333773834,0.6604897461419432,0.5122128599971082,0.12548456090141394,0.356932153392334,1
0.7696775520297745,0.49159062347759186,0.6815063475079672,0.5046838154078899,0.12495524344049894,0.3569321533923375,1
0.7644763931164419,0.5065419589478257,0.7108205521551261,0.5737073472241223,0.12495524344049908,0.3569321533923322,1
0.726899683972626,0.4786526222559554,0.7273999479714639,0.6003802232741184,0.1245581777322819,0.36578171091446876,1
0.7200667505549847,0.4837641068480039,0.7481421403961286,0.5770280796568403,0.12469053296835383,0.3657817109144599,1
0.7194597877764651,0.4714269972334589,0.7473418129661735,0.4782322309452993,0.1245581777322819,0.3657817109144599,1
0.7205217810442774,0.477994817877031,0.7515547001418768,0.4345683452850627,0.12429346726013715,0.36578171091446166,1
0.7193684703820598,0.4724221369525374,0.7481809212895376,0.511487437832986,0.12336698060762896,0.37168141592920634,1
0.720574595347778,0.47716369914734547,0.7477904677055294,0.5297718992992773,0.12376404631584659,0.37168141592922055,1
0.7192911330940249,0.4730377069900919,0.7456286065145511,0.5681782149886898,0.12363169107977412,0.3716814159292099,1
0.7206989327194735,0.4766931365743705,0.746208521809185,0.5784001891159304,0.12349933584370168,0.3716814159292028,1
0.7190972753844016,0.47340819627699576,0.7474049911192506,0.5422046409692,0.12336698060762885,0.36578171091446343,1
0.7210187418492853,0.47639477259997903,0.7477482246556553,0.5307309906401838,0.12310227013548361,0.3657817109144492,1
0.718269234303575,0.4736522665313405,0.7504184959813305,0.568002677774169,0.12296991489941156,0.3657817109144528,1
0.7204357551665357,0.47619359643754205,0.7489194009002704,0.5471950988002892,0.12270520442726704,0.36578171091446166,1
0.7166736151694779,0.47381726375260663,0.7508379883838922,0.5139783654219197,0.12244059743849658,0.36578171091446876,1
0.7212581685818702,0.4760624624180742,0.7479577521571807,0.535145493068341,0.12230824220242364,0.3657817109144563,1
0.718111381587786,0.4739107660982232,0.7504550885334138,0.5682067446462541,0.12230824220242373,0.36578171091446166,1
0.7223892451590272,0.47602298096179235,0.7476478879422859,0.5320209160753643,0.12191117649420666,0.36578171091446166,1
0.714821308137125,0.4738422658416534,0.7530763744444353,0.5095128341963981,0.12164646602206189,0.37168141592921167,1
0.7262761777115623,0.4764408182317013,0.7416180705378865,0.553273065504591,0.12098468984169933,0.3716814159292081,1
0.7088118382026576,0.46838911216684914,0.7545721424883952,0.5465729110815825,0.12085233460562686,0.371681415929217,1
0.777372027388826,0.4812950706985668,0.6418334373304636,0.5095129267913953,0.12124940031384376,0.3716814159292081,1
0.8598913602099962,0.4987228096778598,0.48395443120312653,0.5167756165388745,0.12191117649420624,0.3716814159292081,1
0.8376534261640269,0.48458107112461524,0.48665322370981623,0.5689755274462337,0.12349933584370154,0.37168141592920634,1
0.8466417279507126,0.47448412577179977,0.4923299842186242,0.5517536532029162,0.12349933584370168,0.371681415929217,1
0.8357287679228806,0.4776370126180709,0.5008874904181717,0.5259081386832493,0.12349933584370154,0.37168141592920634,1
0.8401446264611065,0.4752619154795135,0.5050214876492417,0.5121958433555331,0.12349933584370154,0.37758112094394924,1
0.8341105830371272,0.4761392771862713,0.5147891191220605,0.5515552227564627,0.12349933584370187,0.377581120943967,1
0.8400107636940004,0.4737861775061319,0.5091090197595732,0.5791720934158014,0.12310227013548428,0.3775811209439581,1
0.8336665951020024,0.47615116576316674,0.5160566726248099,0.4955188797846316,0.12296991489941142,0.37758112094395635,1
0.8389307467555056,0.4737365589933259,0.5134669333497524,0.5122370016419608,0.1228375596633394,0.3775811209439546,1
0.8334375110628947,0.476383949894295,0.5184601186807203,0.5578963984982857,0.12296991489941181,0.3775811209439617,1
0.8358242203276152,0.47234098837787875,0.5197611784076355,0.5294159875917548,0.1227052044272667,0.377581120943951,1
0.829382765652579,0.47294022455573437,0.5228202025728141,0.5048182378172089,0.12257295267456847,0.37758112094394036,1
0.8361384397448033,0.47127574870476796,0.5167925012624284,0.5518723178614906,0.12164646602206142,0.37758112094394924,1
0.8299198320821832,0.47334501945879104,0.5227188993109937,0.5640176539597574,0.12230824220242445,0.377581120943967,1
0.8359672593345724,0.47290537560585666,0.5182460638991496,0.5308142311264983,0.12204353173027915,0.3775811209439581,1
0.8306960753401584,0.4723210317009189,0.5219186192258211,0.5087443063669546,0.12177882125813375,0.3775811209439546,1
0.8360346931826705,0.47130072277008095,0.5162791001953807,0.5537791585470869,0.12164646602206183,0.3775811209439581,1
0.8298179129509018,0.4732868753028977,0.517469659831433,0.5568335263521466,0.12164646602206125,0.3775811209439599,1
0.8396457497211771,0.4823477574716618,0.5089614139774449,0.5246568911567729,0.12138175554991609,0.377581120943951,1
0.8311420807475756,0.49248219676595484,0.5174572965357792,0.5218735699179634,0.12138175554991618,0.377581120943951,1
0.834424730484636,0.48893734098526476,0.521885268247755,0.561095737337778,0.12085233460562653,0.377581120943951,1
0.8309574909639741,0.4899363017989035,0.5296680843194872,0.5388737096283561,0.12058762413348159,0.37758112094394924,1
0.8317386946903194,0.49145001390740667,0.5302252999079331,0.533386672548591,0.1204552688974092,0.3775811209439599,1
0.8289699141128659,0.49259319270931257,0.5317243922289923,0.5735223801986586,0.12019055842526422,0.3775811209439546,1
0.8297667831536852,0.4883852373494365,0.5299348538275208,0.5067209635310402,0.1200583066725662,0.371681415929217,1
0.8282162287084953,0.4892227934058969,0.5319920293613354,0.4638367326506305,0.11979359620042074,0.3716814159292081,1
0.8317227656402755,0.4870021920865095,0.5296481296643972,0.5375975606321071,0.11979359620042118,0.37168141592919923,1
0.8308797659110871,0.4881909677636179,0.5321750834898911,0.5741814226105418,0.11952888572827666,0.37168141592920634,1
0.8316105994317928,0.48583078640432875,0.5269654040946551,0.5310124752777233,0.11939653049220356,0.38938053097345815,1
0.8279210480388215,0.483574259670087,0.5301381399865115,0.5216360457715749,0.11899946478398601,0.3893805309734599,1
0.8336093441835442,0.4837459567883004,0.5246870812531659,0.572848939088568,0.11899946478398607,0.3893805309734457,1
0.8198276809754041,0.4821316680841509,0.5581611427923416,0.5414479693312054,0.11860239907576897,0.38938053097344927,1
0.8111916827302987,0.47896622765270486,0.5887808653311545,0.5179816184025805,0.11873475431184113,0.3834808259586975,1
0.8198872936773238,0.4810588185604233,0.5756923279299669,0.5490610135663754,0.11794072637878147,0.3834808259587046,1
0.8146184504750518,0.48254897279750053,0.5811831985937174,0.5649882040786309,0.11833768860362354,0.3834808259587046,1
0.8178495258624787,0.480720614793876,0.5776856522994461,0.506702330219074,0.11820533336755107,0.38348082595870103,1
0.8180650459039676,0.4834173847007456,0.5787556347515048,0.5363463138467842,0.11780837114270853,0.3834808259586975,1
0.8189507659325646,0.48007327480873063,0.5770663550775149,0.5799784624698793,0.11794072637878122,0.38348082595870814,1
0.818064488425799,0.48004593010651864,0.5763574729313858,0.5365076059909683,0.11767601590663626,0.3834808259587099,1
0.8252262505799384,0.48463972729718163,0.5682255020806866,0.5065932050720638,0.11754366067056315,0.38348082595869926,1
0.836148595316474,0.5182429073305608,0.5171510515484434,0.5590571624807986,0.11661717401805644,0.383480825958717,1
0.8363264554484735,0.5611952938121194,0.48497967017065036,0.5544523657474755,0.1168818844902011,0.38348082595870636,1
0.8398320874218044,0.5724448005920895,0.4896735338254541,0.5316071820877236,0.11688188449020112,0.38348082595870636,1
0.8343215633808021,0.5728716045107657,0.48755292158641683,0.5624668432008183,0.11714659496234547,0.3834808259587099,1
0.83444824204768,0.577021544249706,0.48698058833317054,0.7464833267629787,0.11688188449020148,0.3834808259587117,1
0.8384041535745397,0.5752393392673181,0.48738183145822767,0.7163460322212907,0.11688188449020162,0.3834808259587099,1
0.8275691198153317,0.5911533885416511,0.49005311222707937,0.45512882831405527,0.11635246354591114,0.38348082595870814,1
0.8355878118686098,0.587081698079037,0.4906446973501526,0.3837530512599411,0.1160877530737659,0.383480825958717,1
0.8307210128258482,0.5902018742296677,0.49313983533684036,0.4561797047748836,0.11608775307376631,0.38348082595870814,1
0.8350303338417899,0.5859175263559544,0.4905378411994018,0.4440875100300625,0.11595539783769351,0.3834808259586957,1
0.8343143487282996,0.5881030822606644,0.4893781611211871,0.46316459307466024,0.115690687365549,0.383480825958717,1
0.8335808062772403,0.586264173442115,0.49233104309508346,0.5180872573399374,0.11542608037677893,0.3834808259587099,1
0.8323208979607368,0.5875475080168172,0.4921595534413948,0.5154853118778666,0.11529372514070535,0.3834808259587117,1
0.8322929799597059,0.5836394059521416,0.49208965310741215,0.5078664049125357,0.11489665943248861,0.3834808259586975,1
0.8328363925257789,0.5769706613117722,0.4971928815602632,0.5369438709662867,0.11489665943248834,0.3834808259586975,1
0.8323300165497471,0.5711603864884531,0.4976049786450212,0.5759918215742631,0.11449959372427088,0.38348082595870814,1
0.8339606304133562,0.5711735859952813,0.49695530603449234,0.5279009119420094,0.11436723848819844,0.3834808259587046,1
0.8338660228855759,0.5694210553384799,0.49719021228204996,0.4951970004973934,0.11423488325212641,0.38348082595870636,1
0.8364567421475162,0.5666754548568048,0.4969332562123321,0.5122705657529512,0.1139701727799815,0.3834808259587099,1
0.8349190504950355,0.5649269641207677,0.4966844314590606,0.5448198818528845,0.1138378175439092,0.38348082595870636,1
0.8359712179443735,0.5633461239258833,0.49644468036703104,0.5193878177958281,0.11370546230783596,0.38938053097346703,1
0.8346897665426105,0.5672708735087064,0.4922787553861726,0.5133055431694521,0.11357310707176374,0.38938053097345815,1
0.8378105451795193,0.5673122521496992,0.4933820239769002,0.5787144331175607,0.1130437896108479,0.3893805309734546,1
0.8353795142870837,0.5633070922201436,0.4932814673214688,0.5753619236477473,0.11291143437477572,0.3893805309734546,1
0.8376323111531745,0.56441227569364,0.4954474727372148,0.49447966088974604,0.11277907913870339,0.383480825958717,1
0.8354112512036647,0.5622755022084778,0.4955106198247098,0.5496156381292814,0.1119849477222683,0.3834808259587046,1
0.8377541827890442,0.5622989255998353,0.4957198752882819,0.6065214318192369,0.11251436866655853,0.3834808259587117,1
0.8347375690778593,0.5642824164341268,0.49532983669059466,0.5333266639721741,0.1122496581944131,0.38348082595871347,1
0.8373819793277597,0.5618092262205496,0.49673702325017477,0.49686918566135074,0.11198494772226811,0.38348082595870814,1
0.8365637265985784,0.5625250107547722,0.49576430752641854,0.5768598615985423,0.11172023725012403,0.3834808259587099,1
0.8370806105028616,0.5629719376069461,0.49803427076862283,0.5921378956040471,0.11158788201405193,0.3834808259587046,1
0.8347708862145211,0.5622585260757119,0.4941524332522324,0.5210924566164438,0.11132317154190555,0.38348082595870636,1
0.835458901931178,0.5618801688444183,0.49411313464122963,0.49833096162922574,0.11119081630583305,0.3775811209439546,1
0.8356756888507517,0.5643601818830548,0.49481194619429886,0.5822948223294768,0.11079385408099074,0.37758112094396346,1
0.8375224786641564,0.5644112062232685,0.49393403138421343,0.5691945866627618,0.11079385408099096,0.377581120943951,1
0.8366768856157876,0.5640511771031846,0.49481064977565536,0.5104647047879616,0.1106614988449188,0.37758112094397056,1
0.8377068107608283,0.5645511209266264,0.49294947722850097,0.5517036811318169,0.11039678837277311,0.38348082595870103,1
0.8355183086060585,0.5633359159988965,0.4948673914870769,0.5893543529821496,0.11039678837277295,0.3834808259587046,1
0.8375318194604651,0.5565257746072809,0.4995725269719822,0.5307465308372568,0.10947030172026587,0.3834808259587188,1
0.8361609818160205,0.5629744746515297,0.49464068039393905,0.4826757210157016,0.10973501219241011,0.38348082595869215,1
0.8362847740254775,0.5583261893116372,0.49665608335749534,0.5585923793733022,0.10947030172026614,0.3775811209439599,1
0.8378021922284171,0.5609337116933831,0.49168937807849367,0.5402120408265414,0.10973501219241127,0.3775811209439741,1
0.8368976939625932,0.5605261898087986,0.4944700391948693,0.4600162083842069,0.10880852553990344,0.3775811209439599,1
0.8365105054511817,0.5576996673672768,0.4942416521329506,0.526313999747567,0.10920559124812085,0.3775811209439599,1
0.834771004532765,0.5573254819603702,0.4942129319104723,0.5988717944604671,0.10880852553990314,0.3834808259587117,1
0.8389570224957474,0.5542629267529224,0.4895551823729224,0.5649345383578868,0.10894088077597613,0.38348082595870636,1
0.8360679205744768,0.5554852619433418,0.4947334388604134,0.5112908885066583,0.10854381506775854,0.383480825958717,1
0.8414280770908478,0.5529904564140127,0.482594464238814,0.5314986812804295,0.10854381506775831,0.3834808259586975,1
0.8423278578126616,0.5592849377804496,0.4789058536444907,0.5808423626357853,0.10827920807898811,0.3775811209439581,1
0.8438489248534213,0.5628666040695235,0.4710813515006356,0.5334270833104165,0.10801449760684267,0.37758112094394924,1
0.8383593461987162,0.5639933254224823,0.4731797278375489,0.48879599910420624,0.10801449760684315,0.3775811209439599,1
0.8426704630113298,0.5600000624488388,0.47030791338441214,0.5666214716454827,0.10774978713469824,0.377581120943951,1
0.8421590621160828,0.5608108929769584,0.47595215323862716,0.6084797011179467,0.10788214237077043,0.3893805309734564,1
0.8483965446684496,0.5592672297616895,0.4740331937786633,0.545032902020655,0.10748507666255303,0.3893805309734599,1
0.8230873684155582,0.5524657638611099,0.5425582906103263,0.5359398256774182,0.10748507666255294,0.3893805309734617,1
0.7843534777558807,0.5190334964425821,0.6390902566397227,0.5733147029943494,0.10655859001004594,0.38938053097345815,1
0.8003270123920592,0.519450358826622,0.6284317658207873,0.49072631218736484,0.10669094524611883,0.3893805309734617,1
0.7920134721319241,0.5191936409777214,0.633651942096827,0.40808278568931605,0.10602927254913025,0.38938053097345104,1
0.8059466616967732,0.5307257913199147,0.6117279830245334,0.36067486819608735,0.10602927254913005,0.38938053097345104,1
0.7892933896075396,0.5366601677575342,0.6360010370762369,0.4883120966799507,0.10589691731305775,0.3893805309734564,1
0.7913561714419457,0.5471081922285783,0.636772865016515,0.600863572959137,0.105896917313058,0.38348082595870814,1
0.7791226071475652,0.5397729178250764,0.6591375232483997,0.5580999361821339,0.10589691731305795,0.3834808259587099,1
0.7614135243412474,0.51768882439485,0.691238827024459,0.6092797265398247,0.10549985160484016,0.38348082595871347,1
0.7599591827376841,0.5337134218991191,0.6912752358542892,0.5921818033183559,0.10563220684091287,0.3834808259587099,1
0.7665065039032344,0.5241201714991348,0.68342833158193,0.5710595922101674,0.10510278589662303,0.3893805309734564,1
0.7580069084386245,0.5337850841729515,0.6886675745124351,0.5986235814020449,0.10497043066055062,0.3893805309734617,1
0.7584816462253072,0.5269992942286789,0.6953639207794132,0.6061857841385996,0.10457336495233274,0.38938053097346526,1
0.7501388472954595,0.5278429917544579,0.6998926278300472,0.5452306669915459,0.10444100971626008,0.38938053097344927,1
0.7573627917771754,0.5267269210581845,0.6987530134737616,0.5021922799688541,0.1037792335358982,0.38938053097346526,1
0.7540132386937315,0.5277482531271439,0.7004903897011702,0.5415291385623081,0.10404394400804294,0.3893805309734564,1
0.7565225128669542,0.5268513608216793,0.7023527636438087,0.5258740433997675,0.10351462654712797,0.3893805309734617,1
0.7550086203878766,0.5276491395220089,0.7021113890492771,0.47478162492448195,0.10338227131105499,0.3893805309734564,1
0.7552276666162763,0.5267088238437593,0.7022310479558347,0.5690671197747339,0.1029852056028377,0.39528023598820994,1
0.7488316875680984,0.5197537429084873,0.7141120715461715,0.5794179816490579,0.10298520560283805,0.39528023598820283,1
0.7427047989316993,0.5181219903567261,0.7157036713307392,0.5026384955430416,0.10272049513069345,0.39528023598821704,1
0.7449234373168707,0.5185894783102994,0.7128298544599816,0.4889378474942967,0.1023234294224762,0.39528023598820994,1
0.7420894259874082,0.5170806365706073,0.7201726607690222,0.5592191744758265,0.10245578465854728,0.3893805309734475,1
0.7407515312409307,0.519760249742963,0.7165596317612088,0.5082334205820244,0.10232342942247519,0.38938053097344927,1
0.7387774835200843,0.512173427283545,0.7234974659974704,0.4865999947105632,0.10152940148941558,0.3893805309734599,1
0.7326884323861244,0.5055305803390492,0.7282388941561847,0.5768341442670981,0.10205871895033074,0.38938053097344394,1
0.7337554959155173,0.5072243796435925,0.7295204368503991,0.5891915164785857,0.10192636371425808,0.3893805309734617,1
0.7316919612959631,0.5077817880603663,0.7304965665483149,0.5077371378959722,0.10192636371425833,0.3893805309734564,1
0.7294808043646355,0.5087798719443973,0.7327781711300946,0.5007032347287897,0.10152940148941489,0.3893805309734617,1
0.7300977264189875,0.5096578245217626,0.7297548859079633,0.5647060865546103,0.10139704625334255,0.38938053097345104,1
0.7299966091812389,0.5086611170996472,0.7383777482204312,0.5505593469951293,0.10126469101727013,0.3952802359882046,1
0.7548701861549819,0.5188914777227698,0.6966005639853209,0.4945425391671287,0.10113233578119735,0.3952802359881957,1
0.7938778748361954,0.5327225365370944,0.6374483913746749,0.5403186274438556,0.10020584912868988,0.3952802359881922,1
0.782363014458427,0.5241010948654397,0.654868531443204,0.5861424205927647,0.09755884789061521,0.39528023598820283,1
0.7751420862752423,0.5269757267712601,0.6631201001796553,0.5333283272836727,0.09742649265454284,0.40117994100295995,1
0.7821335198616759,0.5224925816187003,0.6606367090687384,0.51624310457154,0.09729413741847044,0.4011799410029617,1
0.7766586582026418,0.5232786134583738,0.6626747292731937,0.5799287688307841,0.09676481995755454,0.4011799410029351,1
0.7859197111044425,0.5189267920045485,0.6537645883867302,0.5575352631731555,0.09650010948540946,0.4011799410029475,1
0.7985967628983783,0.5350835724624678,0.6172789342622313,0.47616777959946166,0.09689707171025294,0.4041297935103323,1
0.8219176634949152,0.5746947578048047,0.5337908565228195,0.5217678626048351,0.09729413741847026,0.4041297935103252,1
0.8365528363225427,0.5609146399327979,0.5098336160823272,0.5738939904696491,0.0978235583627602,0.40412979351033584,1
0.8329525419724169,0.5540253973068192,0.510279517559952,0.5021361414856959,0.09782355836276034,0.4041297935103234,1
0.8405646163861962,0.5422121491383788,0.5064005873244947,0.5655747639814759,0.09769120312668814,0.40412979351031986,1
0.8312104437842844,0.5462223661746193,0.5148319006622086,0.6473455320429826,0.09769120312668755,0.40412979351032874,1
0.8354815489854155,0.5443377334314639,0.5148310684927656,0.5411535964726892,0.09729413741847001,0.40412979351032874,1
0.8299088924537581,0.546514439048158,0.521962634451512,0.45766837648034825,0.09689707171025301,0.4041297935103252,1
0.830904259945275,0.5430207111679914,0.5218101884550189,0.49422580377068065,0.09676481995755513,0.39528023598820994,1
0.826900243729151,0.5461207967225077,0.5260516701924668,0.5532377174178473,0.09663246472148236,0.3952802359882117,1
0.8308198255662609,0.5433711305761189,0.5273587282474275,0.5308761237017121,0.09650010948540988,0.39528023598820816,1
0.8280116002534526,0.5461244390241696,0.5298395762932878,0.5071615862941431,0.09623539901326496,0.39528023598820816,1
0.8282207826734256,0.5422477337092475,0.5325048437448201,0.5498744018590195,0.09610304377719207,0.40412979351032163,1
0.8284650375842297,0.5442899747131508,0.5247466157480081,0.548472410150353,0.09623539901326461,0.40412979351031986,1
0.830982397098533,0.5378721967718428,0.5431782686566634,0.514177108579562,0.09636775424933772,0.4041297935103305,1
0.7864977027148107,0.5224509805115592,0.6338391077541977,0.5382894014635929,0.09663246472148225,0.40412979351031275,1
0.7831162384673727,0.5259632147453156,0.6454101369795926,0.5471427605276391,0.09570597806897471,0.4041297935103252,1
0.7858614217740036,0.5250832442685976,0.6455425017159189,0.5096570142324321,0.096103043777192,0.4041297935103394,1
0.7884555687217532,0.5243100874099087,0.6439359677342238,0.5166344857836009,0.09597068854111994,0.4041297935103323,1
0.7848163311946584,0.5281296176502158,0.6460299579697952,0.5625486495074743,0.09557362283290305,0.4041297935103305,1
0.7932794053298733,0.5294248882391264,0.6369650339665416,0.561200277340277,0.09557362283290259,0.4041297935103252,1
0.7907084583602542,0.536699895182762,0.6345277345352992,0.5216554171778566,0.09530891236075707,0.4041297935103252,1
0.7943774131649393,0.5351991916838844,0.6265538194461377,0.5503787878482868,0.09504420188861207,0.4041297935103163,1
0.7943745042007189,0.5366985185850454,0.6222041849680164,0.6176759876624224,0.09491184665254021,0.40412979351033407,1
0.8127116468657642,0.5385010017035456,0.5927584270475894,0.5624369035307151,0.09477949141646784,0.40412979351032874,1
0.8072795361904048,0.5430516664039244,0.59867181904054,0.5124546759505061,0.09464713618039482,0.4041297935103234,1
0.8075573469439141,0.5394317042021096,0.6010961892593326,0.5314121071002007,0.09372075301126227,0.4041297935103181,1
0.8051044786019657,0.5418654685544414,0.6026304102965543,0.5015912602740451,0.09398546348340711,0.4041297935103163,1
0.8058858762980023,0.5384787616439916,0.6018674605130143,0.4908354794214815,0.09372075301126226,0.40412979351032874,1
0.8038914929027865,0.5360782163717539,0.6055006616179627,0.5397055372818759,0.0934560425391176,0.4041297935103323,1
0.8093009283820574,0.5362240558597233,0.6059283307385268,0.5323286218655879,0.09345604253911728,0.4041297935103252,1
0.8049471216015978,0.5377845223654215,0.6076928688766878,0.48913585399316895,0.0929266215948277,0.4041297935103323,1
0.8064299041194134,0.5360106889630822,0.6032073360052607,0.5460723003678132,0.09292662159482708,0.4100294985250734,1
0.8014383365181503,0.5361764980278897,0.6055700710744903,0.5559162626185234,0.09279426635875485,0.4100294985250894,1
0.8081658939996432,0.5357849397380932,0.606415755827834,0.4966158052742705,0.09266191112268239,0.41002949852507875,1
0.8045240450366105,0.5372320460120786,0.6036655202502675,0.5347713070149628,0.09252955588661,0.4100294985250805,1
0.8088041998193982,0.5360225020949567,0.6046710210669027,0.5889177645449433,0.09239720065053758,0.41002949852507875,1
0.8042413929146228,0.5372419635273897,0.6064565251359558,0.5270843710529666,0.09239720065053798,0.4100294985250734,1
0.8095747896459673,0.5355484497693169,0.6066203597604177,0.5213748685131369,0.09186788318962251,0.41002949852506987,1
0.8048127032103047,0.5362490553949573,0.60484882629701,0.5732605963283721,0.09173552795354929,0.41002949852507875,1
0.8061943542622048,0.5365423983388535,0.6048577816592894,0.5239059951030467,0.09133846224533183,0.4100294985250805,1
0.8054323608631506,0.5367193516698844,0.6033865159044783,0.5165511840120925,0.09133846224533194,0.4100294985250805,1
0.8066023843450187,0.5354518498424501,0.6050645839374239,0.5750295092930688,0.09094139653711518,0.41002949852507875,1
0.8035040388712802,0.5364602122393696,0.6066618815414411,0.5420862405126678,0.0908090413010419,0.41002949852506987,1
0.8097836208154106,0.5355473871313678,0.5989403104853946,0.5116481785556571,0.09067668606496972,0.41002949852506987,1
0.8058766735082254,0.5363792787000488,0.6043601377946206,0.5603324612730063,0.09067668606496963,0.4100294985250841,1
0.8106640812375487,0.5358550390256135,0.6012904811268704,0.5624237633636021,0.09041197559282445,0.4100294985250734,1
0.803184524195951,0.5406260633840565,0.6059739662203262,0.5076365653943348,0.09027962035675256,0.4100294985250894,1
0.804476474212352,0.5409812036987125,0.6100817319235751,0.5221720475497059,0.09027962035675278,0.42477876106194756,1
0.7972505902872771,0.5415695905215914,0.6228553136376116,0.5640053194716688,0.08988255464853447,0.42477876106193335,1
0.780469807652596,0.5403863563690684,0.6537866925798135,0.5236614281319902,0.0896179476597641,0.424778761061944,1
0.7813805139259977,0.5386312405642255,0.6540570070906055,0.539634132198057,0.08935323718761931,0.42477876106194756,1
0.7811585879690315,0.5394912751557268,0.6550115473887269,0.5892347451690161,0.08935323718761957,0.41002949852506987,1
0.782647429989157,0.537551637117492,0.6542620751280284,0.5231689678416536,0.0882943952990399,0.4100294985250805,1
0.7816810547491326,0.5357166651189784,0.6548254885254781,0.5137711144590836,0.08895617147940175,0.410029498525061,1
0.7808909202228882,0.5362333325252534,0.654400531480867,0.545032372271217,0.08869146100725678,0.41002949852506987,1
0.7815314893036107,0.5357424165216905,0.6547219416115194,0.5164596773179818,0.08869146100725671,0.4188790560472011,1
0.7815814305228544,0.5362307398734893,0.6544803018042615,0.48258501334386567,0.08842675053511245,0.41887905604720643,1
0.7840760297181499,0.5357390751416725,0.6546578486611676,0.5537045536868025,0.08842675053511231,0.4188790560472011,1
0.7814207701947444,0.536237790446309,0.6545356746212774,0.5596294598377157,0.08829439529903962,0.4188790560472011,1
0.7832729267448686,0.5357263105181936,0.6546013677819253,0.5058903855803119,0.08816204006296706,0.4100294985250663,1
0.7824803469947155,0.5362637514004353,0.6546259981089124,0.5257923085246523,0.08789732959082228,0.4100294985250823,1
0.7837233131415813,0.5356556162497761,0.6535278849060333,0.5778137215456204,0.08789732959082211,0.41002949852507875,1
0.7823102279893843,0.5383474717636605,0.6542341300906653,0.5351786367249303,0.08776497435474956,0.4100294985250805,1
0.7838488470534246,0.5359308738527179,0.6535143261854983,0.4988564388785526,0.08736790864653245,0.424778761061944,1
0.7821817558069202,0.536119383037008,0.6546537080228743,0.549487409034226,0.08750026388260446,0.42477876106194046,1
0.7840337545917215,0.5358314819724558,0.6545582658175837,0.5678959153229143,0.08736790864653234,0.42477876106195467,1
0.7815875804525103,0.5361495828334075,0.6545961800614424,0.5078285029976146,0.0873679086465321,0.42477876106194756,1
0.7829565335548174,0.5358190547705687,0.6545769455173478,0.5164215163846285,0.08723565689383457,0.4188790560472011,1
0.7811948336818122,0.5361545707969304,0.6545859263415622,0.5715567147297896,0.0869709464216895,0.41887905604719045,1
0.7844563010585707,0.5358179669341083,0.6545853830766332,0.5515294150531764,0.0868385911856168,0.4188790560471922,1
0.7795919865963925,0.5361532815288077,0.6545770300945187,0.49191705057728186,0.08683859118561692,0.41887905604719755,1
0.7823174749590679,0.5358209472353739,0.6545958124131217,0.5622637131511842,0.0865738807134717,0.4188790560472011,1
0.780889477345037,0.5361487638564005,0.6545643638703449,0.5823684271443663,0.08644152547739965,0.41887905604720643,1
0.7831251505811893,0.5358275437150708,0.6546113543978189,0.5458664219939444,0.08617681500525454,0.41887905604720643,1
0.778557662222683,0.5361377349253373,0.6545452064535173,0.47811630584905007,0.08617681500525422,0.4188790560472011,1
0.7791006603233297,0.5358531234349093,0.6546351170198131,0.5454009624521041,0.08591210453311,0.41887905604721,1
0.7819055998463669,0.5360163697709903,0.6545153905005545,0.5759611238669781,0.08591210453310968,0.41887905604719755,1
0.7840195784208253,0.5340643263519672,0.6546732666145627,0.5482547643397755,0.08564739406096428,0.41887905604719755,1
0.7807328850983399,0.5355656096073478,0.6544650083184991,0.48145901642498207,0.08551503882489192,0.418879056047194,1
0.7817989117934563,0.5334158041144231,0.6547433292585709,0.5387023736323662,0.08538268358881954,0.41887905604721354,1
0.7824151071420553,0.5346114492515219,0.654358449012623,0.5799609945380474,0.0856473940609645,0.41887905604719755,1
0.7836364672162985,0.5348962339330081,0.6549370883646397,0.5408035623309577,0.08511797311667435,0.41887905604719045,1
0.7824415468162611,0.5338783081134654,0.6537724663260719,0.4928412319331597,0.08511797311667442,0.4188790560472029,1
0.7836839963391258,0.5327103888411463,0.6526105560895896,0.5388231654154981,0.08485336612790398,0.42477876106194756,1
0.7823885843058096,0.5322528737700178,0.6548034758441694,0.5769150796790343,0.08472101089183139,0.42477876106194756,1
0.7837440253945496,0.5333715060143541,0.6545957292761795,0.5264960381077224,0.0844563004196869,0.4247787610619529,1
0.7823054857640843,0.533331716277225,0.6544044742935526,0.5102213904016779,0.08458865565575896,0.4247787610619511,1
0.7839112629882838,0.5294774694276863,0.6549886652438565,0.5632808737137172,0.08445630041968644,0.42477876106194046,1
0.7809267317424211,0.5312009068240849,0.6529109624153038,0.5445563290305951,0.0840592347114688,0.4247787610619529,1
0.7808238720823737,0.5258029106476022,0.6582406182042955,0.4884433775710008,0.08405923471146952,0.42477876106194223,1
0.7773289249914006,0.5159091444312839,0.6598011299619531,0.5412720192451675,0.08352981376718023,0.42477876106196,1
0.7789511604612862,0.515698947407347,0.658662447305678,0.5671500399056254,0.0837945242393249,0.42477876106195644,1
0.7789164284541006,0.5161845122837394,0.6608946091288204,0.499909121008463,0.08352981376717884,0.42477876106193513,1
0.7804069616030225,0.5163914367257311,0.6592902957910567,0.5001557639252119,0.08352981376717909,0.4247787610619511,1
0.7782498616366413,0.513085816714996,0.6632501186315043,0.5634544745948502,0.08313274805896137,0.4247787610619529,1
0.7782125473123315,0.51900347600616,0.6627763740266936,0.5374326199174835,0.08339745853110682,0.42477876106194756,1
0.7748976830448295,0.5161259513056023,0.6623856420643192,0.5270491729526017,0.08286803758681745,0.42477876106194756,1
0.7829335184638467,0.5098628020455837,0.6549933599093454,0.5839829114675574,0.08300039282288943,0.42477876106194756,1
0.7790285009990224,0.513808797057907,0.65610027273397,0.5709455570669479,0.08286803758681721,0.4247787610619458,1
0.783072796421342,0.5093540149264433,0.653778411724327,0.5039654878904382,0.08286803758681682,0.4365781710914458,1
0.779932064496224,0.5137231949220908,0.6564964296839265,0.5474882372329087,0.08273568235074465,0.43657817109144403,1
0.7791565574212727,0.5091143022026582,0.6579309961729092,0.5704672804508624,0.08260343059804648,0.4365781710914405,1
0.778856233386737,0.5099427361745574,0.6606464015595674,0.520765205373291,0.08247107536197423,0.4365781710914476,1
0.7805543432734379,0.510543810747366,0.6554881126752086,0.5153532833525722,0.08233872012590145,0.430678466076694,1
0.7799586691720741,0.511806868419375,0.6572995765511829,0.5596709473896488,0.0823387201259014,0.4306784660767011,1
0.7810066955274001,0.510317632843059,0.6557143772897773,0.5436697952140018,0.08154458870946672,0.4306784660767029,1
0.779522298489014,0.5120340616296151,0.6551837250465582,0.5065084881746851,0.08194165441768474,0.43067846607670823,1
0.7807121654699987,0.509247842929732,0.6560442199573062,0.5480410185181473,0.08154458870946688,0.43067846607669225,1
0.7787007586735784,0.5115451112692402,0.6546309612617442,0.5661483403878983,0.08154458870946708,0.43067846607669225,1
0.7825863385421881,0.5088386523932409,0.6549922078337902,0.5063094223904464,0.08127987823732179,0.4306784660766976,1
0.7814245897005625,0.511270761989809,0.6558120746494553,0.5206760970503677,0.08154458870946653,0.43067846607669225,1
0.7826438670073902,0.5117523752497802,0.6555251711963122,0.5721735731307237,0.08114752300124915,0.43657817109145114,1
0.7823121759537264,0.5103011950457593,0.6542824997276815,0.5434937430730704,0.08457841080167652,0.4365781710914547,1
0.7832974647247599,0.509678944103781,0.6551295019580795,0.5013420006512299,0.08444605556560458,0.4365781710914458,1
0.7801476520015156,0.5077770475755835,0.6552662715082034,0.5406842763556517,0.08444605556560403,0.4365781710914476,1
0.7803446325680787,0.5097459864772307,0.6577330508442183,0.5647987167510419,0.08418134509345897,0.4306784660766958,1
0.780084771273363,0.5109423014389696,0.6551505704538849,0.5262122339259561,0.08418134509345933,0.4306784660767047,1
0.7812259334581889,0.5083316138107074,0.6557309749261377,0.5043423863312257,0.0832548584409523,0.4306784660766976,1
0.7781048556367615,0.5099936823812934,0.656091384768519,0.5487554209977104,0.08378427938524215,0.4306784660767118,1
0.7813240912694526,0.5110337609324881,0.655497197282683,0.5659309456944207,0.08365192414916907,0.43067846607669225,1
0.7781810505286384,0.5115471622843488,0.6610653093791263,0.5149711977424799,0.0836519241491697,0.4306784660766958,1
0.7808013337103459,0.5078374849321248,0.6553386245265347,0.5128457396534978,0.0835195689130973,0.4306784660766958,1
0.7795105308477155,0.5097285246556471,0.6577189353106261,0.5635898823330202,0.08338721367702426,0.43067846607669225,1
0.7802091345221105,0.5093822795643158,0.6548937473252401,0.5561103067846092,0.08325485844095207,0.43067846607670646,1
0.7816546463224769,0.5092812235534047,0.6567012768346647,0.5054285908397868,0.08325485844095193,0.43067846607669225,1
0.7840888790478492,0.5092858130221456,0.6546307431257558,0.5175735197507887,0.08299014796880691,0.4306784660766958,1
0.7797075094360768,0.5076406685426672,0.656225291955122,0.5686395796253575,0.08285789621610933,0.4306784660767011,1
0.7816687990632507,0.5091923186078519,0.6567484642022905,0.5469072503818506,0.08246083050789181,0.43657817109145114,1
0.7792614245071872,0.5135604114194283,0.6549977185872766,0.4967946549703594,0.08232847527181936,0.4365781710914547,1
0.7797841732144903,0.5087932585980802,0.6578117249666537,0.5273361607634358,0.08232847527181962,0.4365781710914547,1
0.78026531406774,0.5107948182189878,0.6543430776567529,0.5822616425220805,0.08219612003574694,0.4365781710914618,1
0.7811337722943656,0.5094036039796647,0.6550780439099481,0.5252602208169318,0.08206376479967437,0.4306784660766887,1
0.781999805828081,0.5101545324840274,0.6568713744749918,0.5063125309056731,0.08206376479967467,0.4306784660767011,1
0.7821662737630982,0.5095684775366418,0.6541645282010933,0.5549184424157868,0.0819314095636019,0.43067846607670646,1
0.7820861574806506,0.5100711164389048,0.654857290972054,0.5693633156164557,0.08179905432752925,0.43067846607669225,1
0.782547254473962,0.509624355289934,0.6543628819241745,0.5070312890954565,0.08179905432752957,0.43657817109144226,1
0.7810370026793556,0.5100257043443334,0.6547753644118464,0.5094349075065265,0.08153434385538474,0.43657817109145114,1
0.782983582947527,0.5096674842963194,0.6544118704147377,0.5646424183259126,0.08153434385538406,0.4365781710914405,1
0.7829894147751391,0.5099788851285464,0.6547386218084762,0.5672991071949331,0.08100492291109423,0.43657817109145647,1
0.7831122852714724,0.509724930611706,0.6544442645882924,0.5053476402460967,0.08126963338323948,0.4365781710914547,1
0.7830541474741339,0.509898905086669,0.6547064822127682,0.5143369309183494,0.0810049229110947,0.4365781710914529,1
0.7827778518625985,0.5098553213199936,0.6544790923283299,0.5701526972266457,0.08100492291109421,0.4365781710914476,1
0.7801469106614511,0.5096228317083811,0.6546659611742487,0.5621300888376127,0.08087256767502195,0.43657817109146535,1
0.7809637489848913,0.5111346844392644,0.6545294511459973,0.5038073806167352,0.08074021243894956,0.4365781710914529,1
0.7805366193545651,0.5112894127149149,0.6545985798679806,0.520036985747085,0.08047560545017944,0.4365781710914458,1
0.7816287766684618,0.5091614083669252,0.6546292852919833,0.5697025242967986,0.0803432502141064,0.43657817109144403,1
0.7812070170449316,0.5103412994476184,0.6544214775302446,0.5544455539394233,0.08047560545017901,0.43657817109144226,1
0.7792573379505994,0.5094041894842684,0.655147339431691,0.5069386759652704,0.08007853974196175,0.4365781710914529,1
0.7815719876740912,0.5102256931219504,0.6553824303744364,0.5387215755229899,0.08007853974196179,0.4365781710914476,1
0.7795013470596719,0.5094721444867412,0.6551677191656389,0.5733292189662224,0.07981382926981698,0.4365781710914636,1
0.7779651640890085,0.5101810526796186,0.6639202472543664,0.5395853301514095,0.07994618450588917,0.4365781710914405,1
0.7775769122457752,0.5095042380237466,0.6630029947016912,0.4855984538273359,0.07968147403374416,0.4365781710914529,1
0.773910820530654,0.5101530869120092,0.6639955517957845,0.5187954928168345,0.07968147403374444,0.43657817109144226,1
0.7780503096114407,0.5095522715931262,0.6631891146012219,0.5765317569344365,0.07941676356159919,0.4365781710914547,1
0.7756301445360378,0.5092392054941016,0.6621079771713532,0.5436282203081075,0.07968147403374409,0.4365781710914458,1
0.7789242354833102,0.5088366375600102,0.660596535384965,0.49422326939654493,0.07941676356159937,0.4365781710914458,1
0.7772683152888187,0.5081840982794461,0.6616462391484619,0.5234696857047393,0.07941676356159899,0.4365781710914458,1
0.7779732969497302,0.5018179321406998,0.6618444398519243,0.5668227455192423,0.07875498738123667,0.43657817109144403,1
0.7732269915135164,0.5011108821212679,0.6651421513517723,0.5419000686769008,0.07941676356159924,0.4365781710914458,1
0.7797407789289386,0.501009043861323,0.6631619765124754,0.5166467206152793,0.07901969785338146,0.4424778761061994,1
0.7784283298177905,0.5012833209013163,0.6596160926725259,0.5415135192469326,0.07862263214516432,0.44247787610619405,1
0.7773017201558186,0.5008800028616851,0.6626349838870603,0.5470063986543009,0.07875498738123651,0.44247787610619227,1
0.7780723151122007,0.5018617886281149,0.6648811387655527,0.48656234002428406,0.07862263214516463,0.4424778761062065,1
0.7763504154749441,0.5050733290180636,0.663455335625096,0.5393786207643645,0.07862263214516436,0.43657817109144403,1
0.775904416869261,0.5070224809423985,0.6637649822256132,0.5949301450955113,0.07849027690909195,0.4365781710914547,1
0.7748780871071805,0.503584607815762,0.6622640916279965,0.5904095277758732,0.07835792167301951,0.4365781710914529,1
0.7733096373058446,0.5082679721945541,0.6632249448851161,0.5323300006008402,0.07822556643694636,0.4365781710914334,1
0.7756746553294548,0.5067676846812239,0.6636220282349757,0.5266045704484799,0.07822556643694649,0.44247787610619227,1
0.7754387379109355,0.5075039810585961,0.6639092900169239,0.5633517123589162,0.07822556643694714,0.4424778761061994,1
0.7764906155814832,0.5074883733525387,0.6571696413201258,0.5360800924321465,0.07809331468424918,0.4424778761061994,1
0.7779087600769147,0.5073081074383229,0.6603558224240879,0.48435089589831476,0.07782860421210341,0.44247787610617983,1
0.7792055389108525,0.507770696172682,0.6585523510445466,0.5211008320248495,0.07756389373995888,0.4424778761061958,1
0.7783778748618928,0.5092429177078504,0.6607796857348351,0.5687337915996876,0.07769624897603164,0.4424778761061958,1
0.776721948967553,0.5082021932590323,0.6607305621700013,0.5464773823965304,0.07756389373995935,0.4424778761061994,1
0.7761999809612283,0.507725937532471,0.6680618610875866,0.5050587305661477,0.07743153850388663,0.4424778761061994,1
0.7637396079201613,0.5007629823524827,0.6858787371189143,0.524954165534297,0.077299183267814,0.4424778761061994,1
0.7637953069665776,0.5013152213130945,0.6842067566294441,0.5690226684711451,0.07703447279566898,0.44247787610619227,1
0.7649451101649738,0.5035430778511192,0.6834878397184401,0.5410496973096747,0.07703447279566907,0.4424778761061994,1
0.7638248702322932,0.5030072435243502,0.6846474392891841,0.4984925691067586,0.07703447279566963,0.44247787610620115,1
0.7649440210949586,0.5057888651813147,0.6837443055708204,0.5452056988554702,0.0769021175595966,0.44247787610618516,1
0.7637501652285386,0.5085927164088992,0.6831037961111284,0.5890909754858388,0.07676976232352405,0.44247787610619227,1
0.7657897251502102,0.5065661545471281,0.6830716096020353,0.5240120624438983,0.07663740708745179,0.44247787610619405,1
0.7643664570052486,0.507340172983402,0.6832109258417105,0.4930355691455021,0.07650505185137926,0.44247787610620115,1
0.7656313179315098,0.5080498447933147,0.6830333083837791,0.5519151638224938,0.07637269661530699,0.44837758112092807,1
0.7644433791338401,0.5054949836926143,0.6832135263269432,0.5642372870270809,0.07650505185137882,0.4483775811209352,1
0.7655850288616584,0.50558272438149,0.6830901882560763,0.499111175476797,0.07597563090708882,0.44837758112093873,1
0.7644748238082416,0.505720191565889,0.682142226708732,0.4981603922428754,0.07610798614316203,0.4483775811209334,1
0.7655617758212806,0.5066949531578274,0.6827804194142435,0.5640662555469008,0.07597563090708873,0.44837758112094406,1
0.7644932092132795,0.5064633426853342,0.6833908711942316,0.5558626537345053,0.07610798614316182,0.4483775811209423,1
0.7655463980538454,0.5070820782441798,0.6828856312295096,0.5139676962183715,0.07597563090708966,0.4483775811209636,1
0.7645067108135071,0.507574340013337,0.6833588212122497,0.5186089414309032,0.07597563090708982,0.44837758112095294,1
0.7655340390272343,0.506458406842316,0.6829005358050679,0.5656907645416591,0.07584327567101654,0.4542772861356905,1
0.764518422349594,0.5061136462018746,0.6833496656737104,0.5403563689311918,0.07584327567101665,0.4542772861356905,1
0.7655226462079001,0.5043234885701325,0.6829081964709409,0.5046187367238765,0.07544631344617415,0.45427728613569407,1
0.7645296684547658,0.5022233607525066,0.6833410495598006,0.5466287627304053,0.07544631344617389,0.45427728613569585,1
0.7655116026959861,0.5050088368582013,0.6829199603270413,0.5753262949841812,0.0751816029740288,0.4572271386430682,1
0.7645399811284014,0.5045591737132732,0.6833233221400572,0.519418434281042,0.0753139582101012,0.4572271386430664,1
0.7655037609681279,0.5037232124877508,0.6829481783000271,0.502172710125974,0.07518160297402857,0.45722713864306463,1
0.7645399155381214,0.5030768330736886,0.683276203814634,0.5621097012625308,0.07504924773795632,0.4572271386430682,1
0.7655314563217746,0.5028359121836896,0.683032055964636,0.5669696269513064,0.0751816029740292,0.4483775811209423,1
0.7643762143716477,0.5055300608641212,0.683110188181079,0.5120580374742657,0.07491689250188377,0.44837758112094583,1
0.7648904354964068,0.5073371194231192,0.6834394119611691,0.5125197412973836,0.0749168925018843,0.44837758112093873,1
0.76634855303974,0.5056475757088722,0.6808535079996142,0.5760541938593409,0.07491689250188419,0.44837758112094583,1
0.764323266074479,0.5054715871255313,0.6818336690457572,0.5563733230652512,0.07478453726581168,0.4542772861356994,1
