wrist_ACC_1,wrist_ACC_2,wrist_ACC_3,wrist_BVP_1,wrist_EDA_1,wrist_TEMP_1,label
0.3212800186712311,0.6651948960627093,0.7202616257668,0.4811300261197848,0.9895182409024919,0.8843537414966018,1
0.32593533928054835,0.667088467522176,0.717233900657083,0.5245925197551079,0.9903566243104973,0.8775510204081574,1
0.31858124105338503,0.6652429614825254,0.7208584412759067,0.48418455200066807,0.9903566243104966,0.8775510204081574,1
0.3269264054350293,0.6670820824936113,0.7176279403067907,0.44651401993113543,0.9886795297449122,0.8775510204081538,1
0.3202158462528747,0.6651855968440002,0.7205008364226901,0.5032637194507351,0.9870027629289011,0.8775510204081591,1
0.32545716344376985,0.6672986343952326,0.7183739145061677,0.507791034235594,0.9890990491984881,0.8843537414965912,1
0.31456814146306344,0.6639233208851699,0.7219012831265821,0.4544069209284595,0.9878411463369066,0.8843537414966018,1
0.32125067999711887,0.6602266780059394,0.7175028422563838,0.4929271455202074,0.9865832434753259,0.8843537414965947,1
0.3157389944941783,0.6624036415833499,0.7206822644915247,0.5091372821138836,0.9874216268833298,0.8843537414965876,1
0.3246782129695743,0.6637262241563102,0.7199771086586162,0.4442051457407623,0.9857445323177463,0.8775510204081467,1
0.3207897776475885,0.6651258302609289,0.7243590967536446,0.49018137383481863,0.9882603380409101,0.8775510204081538,1
0.32471429128972973,0.6665443659699026,0.720490546673554,0.5260796424476651,0.9870027629289015,0.877551020408168,1
0.3210607985699804,0.665814608034781,0.7234118668476718,0.45800584710951986,0.9870027629288998,0.8775510204081396,1
0.327796967068907,0.6664850442560044,0.7229918370420488,0.4554589092510004,0.986583243475327,0.8775510204081804,1
0.3234784719290875,0.6658474231924865,0.7249761990378798,0.5362548627115402,0.9861640517713217,0.8775510204081503,1
0.3277608358628284,0.6664525603443132,0.7224362123345544,0.5173316964175548,0.9836482460481593,0.8775510204081574,1
0.32348918705590596,0.6658830011292647,0.7260559659667055,0.4453054615540916,0.9836482460481601,0.8775510204081645,1
0.3277602512107543,0.6664136037112265,0.7241139435686444,0.47016637419088075,0.9849061489097404,0.8707482993197058,1
0.32348526017985807,0.66592512499541,0.7243864031092454,0.5441573053303224,0.9836482460481597,0.8707482993197271,1
0.3277670751125756,0.6663685209319291,0.7220592609810325,0.49532536125528187,0.986164051771323,0.8707482993197271,1
0.3234758105736414,0.6659730621001667,0.7264922861385418,0.43860828362597437,0.9823906709361507,0.8707482993197306,1
0.32777942636064455,0.6663177118282272,0.7236235433366028,0.49861013942806587,0.9840677655017351,0.8775510204081609,1
0.3234599690957316,0.6660268929262191,0.7262854381515911,0.5390528184295392,0.9836482460481588,0.8775510204081538,1
0.3277996268071691,0.6662605522413662,0.7237358855326697,0.4557995854115592,0.9832290543441575,0.8775510204081609,1
0.3234341856491245,0.6660879068746356,0.7262089853052763,0.48205652759862044,0.9832290543441564,0.8775510204081645,1
0.327832753748452,0.6661948010459631,0.7237932051558857,0.5406314315919424,0.9836482460481597,0.8843537414965983,1
0.32339107195351713,0.6661599652889243,0.7261657989178726,0.4646535950468961,0.9811327680745703,0.8843537414966018,1
0.32789000974008947,0.6661132773695981,0.7238197002903028,0.4524788428305111,0.9727472952466476,0.8843537414965983,1
0.32331330440012074,0.6662589036294899,0.7261763429780327,0.5441045320521549,0.9781977706474048,0.8843537414966018,1
0.32798526050190185,0.6659630941345831,0.723594170075367,0.4827914088612595,0.9769398677858228,0.8775510204081574,1
0.3202614057398726,0.6634012965526126,0.7235724626393446,0.4335188382699131,0.9786169623514058,0.8775510204081574,1
0.32064236405801355,0.6642137726447811,0.7162264510792931,0.5159696214494719,0.9781977706474048,0.8775510204081645,1
0.3204565886096087,0.6649713717346412,0.7213554403697809,0.5377296446341029,0.9786169623514043,0.8775510204081467,1
0.3259468078435589,0.6657995904907563,0.7197735998361392,0.4527214900912829,0.9790364818049824,0.8775510204081609,1
0.32071200719161685,0.6664626146160937,0.7238645126238261,0.4630721117981322,0.9777785789434004,0.8775510204081467,1
0.32661204550209905,0.6658083714667715,0.7214133523844423,0.5361449021274025,0.9786169623514078,0.8775510204081645,1
0.32087495677463485,0.6665937045430322,0.7201071827089879,0.4996490765515951,0.9756819649242405,0.8775510204081538,1
0.32495993156031655,0.665246560456428,0.7178335043491524,0.44928408925357893,0.9761014843778173,0.8843537414965876,1
0.31847251833383744,0.6646167780698203,0.7196346224837474,0.5191816451596396,0.9765206760818181,0.8843537414965841,1
0.31828139436452274,0.6580079757613697,0.7179429821797138,0.5087402859637359,0.9777785789434008,0.8843537414965983,1
0.31851456681755613,0.6617590795771024,0.7197550431531444,0.4399729577400896,0.9773593872393989,0.8843537414965983,1
0.32289729870792444,0.6595264161232636,0.7188500783043086,0.49195754203367753,0.9777785789434006,0.8707482993197235,1
0.31962649355272593,0.6643369825110943,0.7194444334191048,0.5346505452685714,0.9802940569169902,0.8707482993197182,1
0.3219172986259767,0.6595130759384906,0.7205366779040614,0.4497105028064836,0.9773593872393977,0.8707482993197235,1
0.3206440657230543,0.663795990343,0.7219729716515917,0.4683764791638681,0.9790364818049833,0.8707482993197271,1
0.3241177082885011,0.6643423313114746,0.7207972539082264,0.5320708673524022,0.9786169623514078,0.8843537414966054,1
0.3194379238995827,0.6678581596280001,0.7229260732461269,0.494731341577865,0.9773593872393989,0.8843537414965912,1
0.32283736685842535,0.6631364485918212,0.7197091838709571,0.4413524256819434,0.9773593872393997,0.8843537414966001,1
0.322886424835754,0.6685537413393448,0.7199608310372989,0.4937822978103019,0.9761014843778162,0.8843537414965947,1
0.32509464065108423,0.6631893515467495,0.7207584574453165,0.5310434457827123,0.9769398677858219,0.8775510204081591,1
0.3219706765890971,0.6699661073387411,0.7200595836103614,0.4940944500240023,0.9761014843778173,0.877551020408168,1
0.3294012802753185,0.6610188511212788,0.7215667351389801,0.4505818617930878,0.9752627732202388,0.8775510204081591,1
0.3199106092559059,0.6737146371205996,0.7215053730048315,0.5037291352111095,0.9735860064042257,0.877551020408152,1
0.33369294669776467,0.6529804356998927,0.7223952465357654,0.5142827766440135,0.9740048703586575,0.8843537414965983,1
0.2704492509563964,0.7148292798751589,0.7312143687984393,0.4492740878571844,0.9727472952466487,0.8843537414965876,1
0.18940080597192122,0.5807688165554629,0.6994349929165717,0.491302756892293,0.9740048703586568,0.8843537414965876,1
0.3513191677916312,0.28345905503213853,0.5637831110296849,0.518029196537042,0.9761014843778169,0.8843537414965876,1
0.4430960302774699,0.2620566405171979,0.7297721708411969,0.4591285686623112,0.9580726358603899,0.8775510204081396,1
0.3545406468301138,0.2897523110239134,0.7792878001172479,0.4367269719395481,0.9761014843778169,0.8775510204081538,1
0.3066387409731419,0.3082471728913324,0.7153645409101377,0.5726804864371458,0.9769398677858223,0.8775510204081609,1
0.29160577631374607,0.31124378809699965,0.7071364172876217,0.6305332209907653,0.9949687163032481,0.8775510204081503,1
0.27647431036397974,0.31306161781131925,0.669895999056801,0.5160314659390103,1.0,0.8843537414965983,1
0.27378028782504304,0.307476580764427,0.6775899489292355,0.4920175823862119,0.9945495245992451,0.8843537414966001,1
0.2797417089616967,0.319678567180145,0.668762223698256,0.32538478965500345,0.9861640517713235,0.8843537414965983,1
0.26698813549160105,0.31299169352907663,0.6677897756655328,0.48357267435084433,0.9836482460481601,0.8843537414966001,1
0.2567049411893336,0.3070704599479084,0.6358241973522797,0.5401758122912665,0.9748435815162362,0.8843537414965876,1
0.25584241549060116,0.31053207806686234,0.6419505238521446,0.5077094489230998,0.9727472952466472,0.884353741496593,1
0.25883746494433124,0.30876654097978307,0.6328312096784935,0.3071970217172174,0.9710702006810641,0.8843537414965983,1
0.2535694771712841,0.3096794430282137,0.6425297657340037,0.35361259528129485,0.9685543949578996,0.8843537414965983,1
0.2593420655494092,0.31208411380511536,0.6337586027027493,0.5340257228444357,0.9664581086883139,0.8911564625850392,1
0.255626330261826,0.3103528142259594,0.6414714041019285,0.5470001610093219,0.963103919557144,0.891156462585025,1
0.25933690704640966,0.31325872979101144,0.6335005344270237,0.43860883030464176,0.9631039195571443,0.8911564625850197,1
0.24774534974422613,0.31061682682840697,0.636776572527461,0.5094129533568023,0.9580726358603915,0.8911564625850268,1
0.26300186521779667,0.3174441603509266,0.6378705338236754,0.5723374692011598,0.9584918275643926,0.8843537414965841,1
0.24968742432499036,0.3194554183480845,0.6442525261694196,0.4749091569892706,0.9618460166955638,0.8843537414965983,1
0.2564066178970481,0.31939317801407485,0.6361055845671986,0.45861458581123365,0.9631039195571449,0.8843537414965912,1
0.2533349905315292,0.31882256935687914,0.6483932473759415,0.5749996563952936,0.9597497304259754,0.8843537414965983,1
0.2609170436900258,0.31638539415887434,0.6402088142104213,0.524813502151386,0.9635231112611484,0.8843537414965983,1
0.25377274218920376,0.31785385264383137,0.6491632965049361,0.43042408278991523,0.9635231112611473,0.8843537414965805,1
0.2623270680695028,0.31635465420824205,0.6398309727815635,0.4679427173895815,0.9626847278531439,0.8843537414965983,1
0.2545143471145136,0.31798133200046563,0.6485588408376826,0.5886328651362136,0.9614268249915612,0.8843537414965947,1
0.2619515291769613,0.3161700855556369,0.6401452650709485,0.47623741714671003,0.9576534441563889,0.8911564625850268,1
0.2557652232472316,0.3182147112986502,0.6494074782126902,0.4833940769581046,0.9618460166955625,0.891156462585025,1
0.2620387323939647,0.3158883806431433,0.6392047572710149,0.5262772970520189,0.9576534441563875,0.8911564625850215,1
0.255435601915597,0.3185440668901558,0.6494691216397288,0.4649276415901158,0.9589110192683987,0.8911564625850357,1
0.26212343174713915,0.31554462904212544,0.639752476704152,0.4581105260572786,0.954299255025221,0.8843537414965912,1
0.251097180263228,0.3201728793310815,0.6494363038737386,0.5571913429228099,0.9576534441563893,0.8843537414966018,1
0.2630370566959236,0.31563545044158897,0.6391970802553704,0.4644532754646749,0.9559763495908049,0.8843537414965859,1
0.25074666759161535,0.32010407136663277,0.6506077433036275,0.4434778490962704,0.9555571578868021,0.8843537414965947,1
0.2661407249591562,0.3136256297811001,0.6374313434720408,0.530100628827314,0.955137638433226,0.8843537414965947,1
0.24479071747790115,0.3248947082419708,0.6517289278619465,0.5368564072411496,0.9517834493020576,0.8843537414966018,1
0.2727817652762713,0.316380898299651,0.6355982904313994,0.43678892357602905,0.9517834493020576,0.8843537414965805,1
0.20796297150356502,0.3185370700037987,0.6739902390343667,0.4746102321347092,0.9467521656053042,0.8843537414965983,1
0.29521647057577804,0.1577559472659164,0.5756025064307161,0.529709563467025,0.9526221604596352,0.8775510204081574,1
0.38499545191594425,0.26635547770744417,0.6085636599812175,0.4855493768884245,0.9463329739013011,0.8775510204081449,1
0.4997633832988245,0.5996537420219847,0.8583598310793693,0.43458000578374084,0.9266270308182942,0.8775510204081645,1
0.978813114419935,0.6075331447775771,1.0,0.51997486412057,0.951783449302058,0.8775510204081645,1
0.6584985010814774,0.6400882269859456,0.9182114070354095,0.5377485090230221,0.9408824985005453,0.8843537414965983,1
0.46489101122550625,0.2417038862440098,0.589936053556668,0.40760944441567215,0.9442366876317152,0.884353741496593,1
0.3782752868347808,0.0904756164178529,0.7176858735341929,0.5305291113539478,0.9132102742936181,0.8843537414965983,1
0.454912935473844,0.18066733219921294,0.2782648719874898,0.7152113173544271,0.9165644634247874,0.8843537414966054,1
0.4399332327789523,0.2236353257596086,0.22580716713743032,0.21010176242725392,0.8805067663899371,0.8843537414966107,1
0.4706226607433271,0.18065145493882262,0.2584392665477524,0.37498006016793567,0.8534611993667891,0.884353741496593,1
0.4253899459033558,0.2801170152644632,0.3324473528942395,0.5174373224210775,0.8538803910707915,0.8843537414965947,1
0.5379164024063847,0.21896882739072393,0.18722448080407156,0.5193970011354543,0.8077601266424355,0.884353741496593,1
0.6272054639364555,0.21890466268906372,0.22321851039658852,0.5461513875328999,0.8153072160623516,0.8843537414965947,1
0.40053217318732864,0.3204751525083268,0.2004044233488917,0.47215727349217035,0.8366902537109455,0.8843537414965947,1
0.4266936955502099,0.31587064312972635,0.24904223210649268,0.4481574757281771,0.8404636345461167,0.8843537414966125,1
0.38673468357349405,0.24241907113841457,0.317640785155622,0.5133876484488644,0.8446562070852908,0.8843537414965912,1
0.2923753305414397,0.24717932390162153,0.37937831031614166,0.4787884817597061,0.8584924830635423,0.8843537414966018,1
0.3146717069813213,0.22683055232454452,0.4400228657080755,0.47228632632876505,0.8509453936436251,0.8843537414965912,1
0.3289525126898956,0.2436487899219242,0.3579261703192503,0.5298961863305334,0.8702321450226309,0.8843537414965947,1
0.31196747445996,0.2528843450553933,0.35831842949605863,0.5019985788017269,0.8505262019396223,0.8843537414966001,1
0.29186979068776264,0.2686724031354274,0.38413674428710964,0.5037666784885443,0.8480107239660304,0.8843537414965876,1
0.3165562936297992,0.25636466986597417,0.35799677441471056,0.5980417351993405,0.8622658638987128,0.8843537414965912,1
0.3081704289811428,0.26050820024295324,0.37004185499706543,0.45813933881503643,0.8631045750562918,0.8843537414965947,1
0.31564972180196516,0.25508424332453195,0.36167511317829143,0.4291179666485996,0.8635237667602953,0.8843537414965912,1
0.3018135629524733,0.2567256492039778,0.3767339145307208,0.5125833275378824,0.8534611993667889,0.8843537414966018,1
0.30832857404188496,0.24772481649252484,0.37910992618536804,0.4541573010837422,0.8639429584642979,0.8843537414965983,1
0.3046141558310952,0.25549643723773063,0.37567107078837525,0.5054676716110663,0.8635237667602937,0.884353741496593,1
0.30884013177684244,0.2485298372087677,0.37536214807303436,0.5075830887991414,0.8656200530298812,0.8843537414966018,1
0.30763412128047196,0.2532717192062116,0.3770142300809701,0.4554231241778505,0.8622658638987128,0.8843537414966001,1
0.31039538604376915,0.2479566810268647,0.3728466255071737,0.5134435290087702,0.8647816696218757,0.884353741496593,1
0.3104088532860203,0.25336434028950383,0.37593807816860136,0.484003382330469,0.8618466721947089,0.884353741496593,1
0.3091996225087692,0.2478290211056153,0.3734153336024011,0.45498646610439164,0.8597503859251232,0.8843537414966054,1
0.3081295827982359,0.25610765433953486,0.3714913493588173,0.5345222504114924,0.8568153884979561,0.8843537414965876,1
0.3092448030763908,0.24972112277190137,0.37327704372315684,0.48133667875931113,0.858911674767544,0.8843537414965912,1
0.3089896931554913,0.25601555401062615,0.37433310255501834,0.46347654070937816,0.8572345802019594,0.8843537414965912,1
0.30946998544221693,0.25315759509143376,0.3677901944960379,0.5313998916042497,0.8551382939323717,0.8843537414966001,1
0.3096280417365104,0.25775324278173795,0.37391975217895346,0.4936064362933737,0.8555574856363752,0.884353741496593,1
0.31129122606535253,0.25311218447959505,0.36609301646147785,0.46183144185231184,0.8534611993667871,0.8843537414965876,1
0.2933849170433863,0.2550110356220484,0.38934945655278663,0.5139068290314901,0.853461199366788,0.8843537414965876,1
0.29315143927247556,0.24628555650086276,0.43592177678811994,0.5125489214798339,0.855976677340377,0.8843537414965805,1
0.2775450653155831,0.2532567354316444,0.4203921540474941,0.4492696691075273,0.8601695776291258,0.8843537414965983,1
0.2901347488055168,0.24805442858676105,0.4144680308014157,0.48496253526789374,0.8614274804907056,0.8843537414965841,1
0.2725993916068288,0.2563751147847495,0.42494708809470255,0.4916523330302468,0.8593308664715467,0.8843537414965947,1
0.30680183435124153,0.24346642564949192,0.4066917407569782,0.5001822340885957,0.8555574856363743,0.8843537414965983,1
0.3528143416098173,0.24235388028477767,0.33097223697151246,0.5535681592603952,0.8563958690443805,0.8843537414965983,1
0.31604380787663355,0.2506781262386277,0.3586348605956483,0.4962827633379407,0.8547187744787978,0.884353741496593,1
0.31839996501369916,0.2612953071273697,0.3534777614861442,0.4639067929286736,0.8463336294004473,0.884353741496593,1
0.31683752644432384,0.2563648710904791,0.36854423916758716,0.49867989528981815,0.847172012808455,0.8843537414966054,1
0.3154241004112569,0.2617079888086121,0.3556249395152361,0.4872245721691553,0.8467528211044499,0.884353741496593,1
0.31820830782223136,0.25611826411106614,0.3641052174049618,0.35462662931466876,0.8446562070852899,0.8843537414965841,1
0.31338867736209586,0.26153928928974846,0.3546988924563901,0.4506686144365635,0.8442370153812886,0.8843537414965983,1
0.31800824612152406,0.2548599639795139,0.36667228314855094,0.5250364330757069,0.8433986319732822,0.8843537414966072,1
0.31161900371176365,0.26255570520042343,0.35693941825110587,0.5014270903502486,0.8429791125197077,0.8911564625850517,1
0.3210667595111597,0.2527784391882769,0.369732404545258,0.4517835829610377,0.8396249233885382,0.8911564625850286,1
0.30828326771429626,0.2641454474839968,0.35502081762932103,0.49749259130108303,0.8396249233885391,0.8911564625850392,1
0.32589586066632886,0.25241086215531267,0.37339375386880813,0.5191184661551826,0.8383673482765288,0.8911564625850286,1
0.30156536337982653,0.26541520505360994,0.35142599126873764,0.4601218434580797,0.8375286371189514,0.8843537414966107,1
0.3384133798189223,0.24996581956634958,0.3781692152668249,0.5039435707659268,0.8362710620069425,0.8843537414965983,1
0.23413160906275265,0.27597913803480023,0.3410910297717391,0.5326184463370282,0.834174447987782,0.8843537414965876,1
0.3540048112664254,0.20530409065051192,0.5077350360599687,0.4694495886581042,0.8345939674413583,0.8843537414965947,1
0.3849886831074968,0.252181934139162,0.7179322906955649,0.4760245032065683,0.880294712416138,0.8843537414965912,1
0.30966431756969104,0.28428558053497754,0.744974674454909,0.5662031945088621,0.8853259961128901,0.8843537414965876,1
0.3379911527166864,0.24966542773569292,0.6668083536963254,0.49375496724382856,0.882390998685725,0.8843537414966001,1
0.29213591977256226,0.31559353607240337,0.728602550226908,0.6235069843093883,0.8853259961128912,0.8843537414966018,1
0.2784680902773502,0.3090906440657579,0.413327056348331,0.5628970611026888,0.8819718069817213,0.8843537414965947,1
0.42512951490355455,0.24976766620803997,0.24333940933063936,0.365480442105851,0.8547187744787965,0.8843537414966054,1
0.46278804740814017,0.23753919685896174,0.2671709208183124,0.4254678137199745,0.8438178236772853,0.8843537414965859,1
0.47613913586648987,0.2711526297452673,0.20594962060540584,0.35240607113175576,0.8203384997591041,0.8843537414965876,1
0.5402714387563967,0.2650951204634502,0.2265226464480985,0.5304520351191314,0.8140493132007698,0.8843537414965983,1
0.4714634472854467,0.27737840620265974,0.22694854550842763,0.5009317386540701,0.8077601266424355,0.8843537414966054,1
0.5131299275959946,0.2541041232424184,0.2348429246801736,0.3952069965948888,0.8186614051935202,0.8843537414966107,1
0.49958690805279066,0.26832073489297564,0.2185673694211248,0.4729338661799483,0.8115338352271799,0.8843537414965947,1
0.5528871774558578,0.26087647051696095,0.21193673663713236,0.5179406784492044,0.8094375489575931,0.8911564625850392,1
0.5267759230565479,0.27394685701645916,0.20705515049167295,0.4278036083916161,0.8073409349384324,0.8911564625850286,1
0.5692201323429954,0.25495027616762844,0.20801325090190043,0.5387996352421024,0.8052446486688458,0.8911564625850286,1
0.5333398961830458,0.27478251276364196,0.2058163406978885,0.5816001921039529,0.8002133649720922,0.8911564625850286,1
0.58140111870556,0.24633500410115056,0.2050856916711266,0.4938617847734074,0.7985362704065084,0.8843537414965912,1
0.44530834810471714,0.3262093034658291,0.23078777606773837,0.46059868882388927,0.7972783675449266,0.8843537414966054,1
0.4281212624852758,0.30000275207193194,0.2606011104145688,0.5580684471608413,0.7956012729793434,0.8843537414966001,1
0.1949098450841933,0.2956670278924394,0.42060370960984417,0.5108007583438353,0.7976978869985039,0.884353741496593,1
0.28550639146713563,0.31120407199148525,0.6591247925328412,0.45203017982901234,0.803986745807264,0.8843537414965912,1
0.1703793130126241,0.3242097592279837,0.6117889655885883,0.503547562857358,0.8362710620069409,0.8843537414965859,1
0.500614746367121,0.31165629687097285,0.7691610141576323,0.5935031520086623,0.8329168728757739,0.8843537414965876,1
0.4912625153632735,0.36538980439524277,0.853957722060523,0.5024226162253019,0.8576537719059625,0.8843537414966054,1
0.4183211245997978,0.33806085281954706,0.8349954219089817,0.6786734924015536,0.8643621501683008,0.891156462585041,1
0.4535550434592399,0.3543204625618622,0.8217836105788244,0.5651350133634963,0.8719092395882151,0.8911564625850268,1
0.3446363086100535,0.35444702680399803,0.7926738697094902,0.2913486712598566,0.8752634287193841,0.8911564625850286,1
0.3994370979664062,0.36987478358511955,0.7959484864003449,0.39906964054227595,0.8668779558914632,0.8911564625850286,1
0.3607518687410495,0.3664805066553418,0.7905256105098208,0.3583952284427997,0.8668779558914619,0.8843537414965983,1
0.38522146372285226,0.3650539489379043,0.7905854140009148,0.49514322538699435,0.8639429584642973,0.8843537414965876,1
0.36127897553634797,0.35846942934070475,0.7893035830081689,0.4629251353556714,0.864362150168299,0.8843537414965805,1
0.37773149166615794,0.35571323326785137,0.7840380842806065,0.4823906234823187,0.8631045750562905,0.8843537414965947,1
0.36103761378025256,0.35537200615031816,0.7857848995331618,0.5150856092222942,0.8635237667602929,0.8911564625850286,1
0.37313853027634536,0.35581115657130913,0.7832880754206203,0.4724985942946034,0.8593308664715451,0.8911564625850339,1
0.3592313610932773,0.35299634037000327,0.7846623777504835,0.4827603642373341,0.8538803910707911,0.8911564625850268,1
0.3735395392386953,0.34978680210498714,0.7830873552287847,0.5104218024930788,0.860169577629124,0.8911564625850268,1
0.3618536168681661,0.3506313930387573,0.7840248345348435,0.4588885525692578,0.8597503859251228,0.8911564625850339,1
0.36980946516062985,0.35030269660696384,0.7804149484737659,0.4818792591568198,0.8614274804907054,0.8911564625850215,1
0.35939729601380527,0.3497923973005239,0.7810513780230623,0.5226742036012049,0.8563958690443814,0.891156462585041,1
0.3673745724029,0.349672926755398,0.780271947019749,0.4523173423239817,0.8593308664715464,0.891156462585025,1
0.3597251579755296,0.35074258009543335,0.7816823331180957,0.4938228166666544,0.8568153884979566,0.8911564625850339,1
0.36717428453686585,0.350085697537482,0.7800321415621665,0.5288586597905262,0.8597503859251221,0.891156462585025,1
0.3612854954913279,0.3506021304637976,0.7818509483311051,0.46160737450959727,0.8576537719059616,0.8911564625850321,1
0.3675807029765645,0.35017512575278326,0.7798535754725703,0.4839395843255274,0.8580732913595388,0.8911564625850286,1
0.3622775693547473,0.35052364808127956,0.7822327296738391,0.536945744766962,0.8576537719059614,0.8843537414965947,1
0.3666679976688318,0.3502667478372648,0.7812113359020069,0.47388184292534086,0.8576537719059625,0.8843537414966054,1
0.3663105601116145,0.35037117560450903,0.7826333477188032,0.4673163966804697,0.8568153884979586,0.8843537414965983,1
0.3692737472964884,0.35081850490365024,0.7842762569906099,0.529939659952201,0.8547187744787965,0.8843537414965947,1
0.367431326577709,0.3512325754344049,0.785639099064008,0.48644990045105463,0.8559766773403785,0.8843537414965983,1
0.37023507286886237,0.3499556125659853,0.7827561602326126,0.4521886289002104,0.8542999105243672,0.8843537414965947,1
0.3641843144490938,0.3506856060028456,0.7844967727034684,0.5309735973806043,0.8555574856363772,0.8843537414966054,1
0.3697072621250901,0.35009894969721317,0.7823340767931727,0.4826400375355316,0.8542999105243665,0.8843537414965876,1
0.3678759001338738,0.3506097307572689,0.7833393889470865,0.45393895364275527,0.8526224882092099,0.8843537414966107,1
0.3718013090380308,0.3501503100422721,0.7823616244730998,0.5248072663278526,0.8542999105243674,0.8843537414965983,1
0.36711497657826636,0.35057005239903977,0.787420036000926,0.5039874974344204,0.8517841048012045,0.8843537414965876,1
0.3719270335035658,0.35018359102194613,0.7829615526230471,0.4417842924437132,0.8526224882092086,0.8843537414965876,1
0.3709660960391322,0.3505405584948995,0.787292262383795,0.5060763035581886,0.8509453936436255,0.884353741496593,1
0.37056664545134405,0.3502107534232305,0.7840206144205837,0.5389776768823958,0.8542999105243654,0.8843537414965734,1
0.37005467692894367,0.350514840142974,0.7872317179773012,0.4727374092485902,0.8488491073740385,0.884353741496593,1
0.37234884251125083,0.350235608534909,0.785542489670169,0.4461859920413079,0.8522032965052071,0.8843537414965983,1
0.36607237347658045,0.35049044465352075,0.7871896063474022,0.5279135090996425,0.8492682990780389,0.8911564625850144,1
0.3735176536500845,0.3502598403335092,0.7834764993676241,0.5277711904480877,0.8517841048012036,0.8911564625850339,1
0.37067151681435023,0.35046614845554946,0.7864447071566756,0.4687267123070326,0.8505262019396223,0.891156462585025,1
0.372032264003245,0.35028438532412975,0.7849141176257869,0.4425772804050528,0.8480107239660313,0.8911564625850215,1
0.3687689678986956,0.35044119860688494,0.7872127198558386,0.522243533464189,0.8492682990780414,0.8911564625850321,1
0.37193226433148097,0.35030987801718405,0.785334419488231,0.5130867137264623,0.8480107239660342,0.8911564625850463,1
0.3693799096795044,0.35041503600033663,0.7868023398312947,0.4588760775629173,0.8488491073740381,0.8911564625850286,1
0.37333246529387026,0.3503368319496727,0.7858733225235742,0.4654348871008636,0.8484299156700343,0.8911564625850215,1
0.36784329848429065,0.3503871709032522,0.787855420089348,0.5322723649456502,0.8484299156700363,0.8911564625850286,1
0.37222449086057446,0.3503657298440702,0.7842941189571225,0.4749536722939703,0.8484299156700357,0.8911564625850392,1
0.3695501687866789,0.35035711381951773,0.786460043096718,0.45002177992546655,0.8454949182428699,0.8911564625850215,1
0.37295334968912597,0.3503970800568523,0.7854653359770352,0.508994850125674,0.8446562070852908,0.8911564625850286,1
0.3688045025849001,0.3503243262009158,0.7868783746805795,0.5260586340020459,0.8446562070852903,0.8775510204081645,1
0.3732310530270984,0.35043146264108926,0.7854537766376928,0.43672382382906133,0.8467528211044519,0.8775510204081609,1
0.37066912313531614,0.35028817455313416,0.787459433975175,0.47872151552262576,0.8459141099468734,0.8775510204081645,1
0.37382791909354335,0.35046957771869036,0.7854326015774806,0.5321245160148128,0.8459141099468725,0.8775510204081645,1
0.3719474519640802,0.350247877007807,0.7878841123751869,0.507966504703797,0.8454949182428688,0.8843537414965983,1
0.3738753844999507,0.35051230676954453,0.7861916592044786,0.43340708843614234,0.8438178236772849,0.8843537414965805,1
0.3719722637438047,0.35020243082217584,0.7880980987142399,0.48464289902988017,0.8442370153812877,0.8843537414965912,1
0.3738358382941742,0.3505608006393419,0.7860911971068345,0.5457679821084369,0.8442370153812881,0.8843537414965876,1
0.3720158592668287,0.3501505030438124,0.7881747939463671,0.4867400097628492,0.8438178236772853,0.8843537414965947,1
0.3737910954653424,0.3506166184445551,0.7860218830125468,0.4410918586321758,0.8429791125197057,0.8843537414965805,1
0.3720612352654784,0.3500902499016709,0.7882424950999702,0.5052974462957764,0.8396249233885369,0.8843537414965947,1
0.3737443264238971,0.3506819683801847,0.7859529820168589,0.5352103130467687,0.8413020179541222,0.8843537414965876,1
0.37211157607080203,0.3500189868382488,0.7883143083234838,0.45262933002683015,0.841302017954122,0.8911564625850392,1
0.3736853904416368,0.35076017233536183,0.7858770367913579,0.4725908712981732,0.8413020179541215,0.8911564625850392,1
0.37219240449442315,0.34993252385656204,0.7883953292084378,0.5370150651033492,0.8396249233885362,0.8911564625850197,1
0.3735317556350959,0.35085657316904495,0.7857902497023199,0.4917332665438804,0.8400444428421132,0.8911564625850268,1
0.37315869738406415,0.3498244450085616,0.7884881196172442,0.42485410154009284,0.8396249233885378,0.8911564625850321,1
0.3740816774266627,0.3509734357206007,0.7856924588499008,0.5046059448627603,0.8396249233885362,0.8911564625850357,1
0.3719577558167091,0.34980868356089634,0.788585345486259,0.5424065430451701,0.8392057316845352,0.8911564625850321,1
0.3738101173709767,0.3571317139803752,0.785630233141696,0.4776838153271498,0.8387865399805312,0.8911564625850215,1
0.37205071223736935,0.35555938390210184,0.7895470312307433,0.43271526932504634,0.8383673482765288,0.8911564625850286,1
0.37375864569966666,0.35833242832499584,0.7852623736743229,0.5115991210420529,0.8350131591453598,0.891156462585025,1
0.3720858097516488,0.3564852358134485,0.7890395223725553,0.5454080363072117,0.837528637118949,0.8911564625850446,1
0.3737307185228165,0.35622599848050984,0.7850566939295237,0.46194417002923227,0.8337552562837782,0.8911564625850179,1
0.37211167254674765,0.3521127048682258,0.7896458229880999,0.4445382988131508,0.8371094454149464,0.8911564625850286,1
0.37370401027276307,0.3576031826209699,0.7860119021803244,0.5250948186483535,0.8358515425533652,0.8911564625850392,1
0.37212875414792257,0.34940619987900157,0.7911316299770212,0.5180901007946465,0.8354323508493637,0.8911564625850197,1
0.374567924526636,0.35419022084371016,0.7844318114404459,0.43276344449964693,0.8354323508493635,0.891156462585025,1
0.3742156382121854,0.35276464847010397,0.7908940593677745,0.499830504274454,0.833336064579776,0.8911564625850126,1
0.3758097682160677,0.35841957663555835,0.7857671934396402,0.5336674769111422,0.8362710620069411,0.8911564625850392,1
0.374753395456178,0.3542013992910055,0.7922724000754291,0.450580791960856,0.8333360645797752,0.891156462585025,1
0.37528519766468843,0.3599253170775061,0.7848977381696557,0.4637893879677243,0.8337552562837784,0.8911564625850321,1
0.37296872903265044,0.347907086674469,0.7926172274475083,0.5536532260812211,0.8304010671526108,0.8911564625850357,1
0.36593577787630677,0.36945043392562643,0.8066821757484661,0.47883600657976017,0.8320781617181934,0.8911564625850215,1
0.5123319798237037,0.3641057934544983,0.8793841263203845,0.43863581941974655,0.8333360645797767,0.8911564625850268,1
0.469288080661323,0.3666404281552288,0.6773100264174456,0.5152313209896037,0.8379481565725251,0.8911564625850215,1
0.09932547404488323,0.5550083155219444,0.7488822297857581,0.5593639086171198,0.8316589700141908,0.8911564625850286,1
0.2984514796244693,0.6210016509429047,0.7985937645574219,0.469355244187988,0.8140493132007707,0.8911564625850446,1
0.37463733720547915,0.6210999048215895,0.7599494135349645,0.5387526992157519,0.8186614051935199,0.8911564625850286,1
0.3502700587867589,0.6096677353878899,0.7843740863291633,0.41029331277713976,0.8241118805942746,0.8911564625850321,1
0.3639920118551408,0.6192835733492171,0.767976790681711,0.5531201455134006,0.8278852614294463,0.891156462585025,1
0.35218028578844435,0.6078283073889202,0.7801472390403985,0.47817099579986305,0.8278852614294476,0.891156462585025,1
0.35821816109946475,0.6130104745373498,0.7696751914612662,0.3095564622978917,0.819919308055101,0.8911564625850179,1
0.35150725718226145,0.6078720036938047,0.7780956792364075,0.5312610661520424,0.823273169436695,0.8911564625850197,1
0.3561002617108863,0.6127563848931072,0.7698847728426927,0.5041288537028623,0.8245314000478514,0.891156462585025,1
0.3521842140854522,0.6067311638089307,0.7747154597640318,0.46073135033096346,0.8249505917518527,0.8911564625850286,1
0.35559498240337795,0.6118656729489538,0.771978017319311,0.5199545368453299,0.8228543054822659,0.8911564625850072,1
0.3525708705167827,0.6086808729334655,0.7756353713572295,0.5415210644317772,0.8236926888902707,0.8911564625850126,1
0.3552925698045971,0.6115281390542363,0.7711644936733233,0.4312827466904045,0.8199193080551008,0.8911564625850215,1
0.3528118003927847,0.6103622356511584,0.7751443084815524,0.48874552627581896,0.8241118805942746,0.8911564625850215,1
0.35509763475351946,0.6132796845250796,0.7709443363484305,0.5485045911103978,0.8228543054822677,0.8911564625850286,1
0.3529715730659221,0.6137627920557239,0.7741388214106956,0.47832919372419425,0.8232731694366948,0.8911564625850197,1
0.3537829873749558,0.6168098015067209,0.7679557963603999,0.43441587168900186,0.8224347860286914,0.8911564625850392,1
0.35308227365868194,0.6151508008212769,0.7699845876125846,0.5342217920506516,0.8203384997591026,0.8911564625850215,1
0.35487195117702297,0.6174620258950337,0.7675257339281943,0.5244983574188522,0.8194997886015234,0.8911564625850179,1
0.3531614526020969,0.6151591044530416,0.7706573873001099,0.45802994290252413,0.819080596897523,0.8911564625850392,1
0.3548043365127185,0.6173700593995259,0.7691883678257843,0.47014005892003435,0.8194997886015254,0.8911564625850286,1
0.3532195390606062,0.6154055707394877,0.7693591998462775,0.5448478104413965,0.818242213489518,0.8911564625850392,1
0.3547541215691032,0.6147697089425785,0.7675011946388945,0.4914736180909321,0.8203384997591043,0.8911564625850392,1
0.3532632660411088,0.6126751945280181,0.7694216516068975,0.45994227785283,0.8199193080551019,0.8911564625850215,1
0.35471568817898463,0.6168679176154814,0.7682308438891293,0.5099290950571276,0.8190805968975221,0.8911564625850197,1
0.3532974833187361,0.612416638488534,0.7695254516601716,0.5060732712836029,0.8211772109166824,0.891156462585025,1
0.35468465595801174,0.6143819001267871,0.7678852826597758,0.45807959658708247,0.8199193080551015,0.8911564625850286,1
0.3533263955961013,0.6134751959101568,0.7704414109761331,0.5010027123630583,0.8194997886015254,0.8911564625850179,1
0.35465665583923894,0.6118982373809627,0.7677502540723767,0.5172279876033851,0.8169843106279355,0.8911564625850286,1
0.35335500423346133,0.6109279907973296,0.7693380356042274,0.4699838597770125,0.817822694035941,0.8911564625850215,1
0.3546253026683802,0.6097184364167233,0.7676304490038222,0.4784712116000024,0.8169843106279355,0.8911564625850268,1
0.3533924553978189,0.6096436958334654,0.7692702576103517,0.5310112713722644,0.8169843106279358,0.891156462585025,1
0.3545758292391486,0.6097417600736496,0.769793211207092,0.4867884859457017,0.8140493132007685,0.8979591836734588,1
0.3534659901322173,0.6103620159060499,0.770399111489787,0.4496760197324784,0.8169843106279351,0.8979591836734482,1
0.354448494223278,0.6100808382656535,0.7682495553963761,0.49210789695802326,0.8174035023319373,0.8979591836734624,1
0.3537501974334537,0.6120207464059759,0.7700607971366421,0.5218337128577208,0.817403502331939,0.8979591836734588,1
0.35307704482922286,0.6140559342874784,0.7692392232620524,0.47706006004121193,0.8169843106279349,0.8911564625850286,1
0.351923756241217,0.6135457428753139,0.7693919449534542,0.45128379732817847,0.8157264077663537,0.8911564625850286,1
0.3552375388553184,0.6165227280942689,0.7676201719396235,0.4916184509006325,0.8153072160623505,0.8911564625850144,1
0.35293242350312704,0.616144288336729,0.7693115600489954,0.5238525874086797,0.8136301214967658,0.8911564625850108,1
0.3549927937012829,0.6164250093244391,0.7684325824184515,0.4811937994689278,0.8127914103391878,0.8979591836734482,1
0.3530485427381457,0.6162084221218159,0.7692947294025925,0.46192569118583593,0.8144685049047724,0.8979591836734588,1
0.35486985405032556,0.6155322707615777,0.7676374123645894,0.5083196340454325,0.8144685049047731,0.8979591836734695,1
0.351770137609775,0.6156575387780581,0.7699733051881698,0.4996812318881518,0.814049313200768,0.8979591836734482,1
0.3553149470633746,0.6149314952691883,0.7678560262859849,0.45764040030586267,0.8144685049047726,0.8911564625850463,1
0.35205342286595404,0.611110458386422,0.7692458598520419,0.49727547735011934,0.8140493132007702,0.8911564625850392,1
0.354464795220428,0.6099707486824475,0.7696949916301569,0.5030593213803821,0.8127914103391871,0.891156462585025,1
0.35315312296090995,0.609830280890097,0.7723577655084197,0.4614398874570251,0.8127914103391887,0.8911564625850197,1
0.35502583393032217,0.6098355171053589,0.7707960665109379,0.4969783229166789,0.8127914103391871,0.8911564625850215,1
0.3524287735536491,0.608083363191828,0.7713693177431724,0.5141303003255507,0.8144685049047726,0.891156462585025,1
0.35409055902494246,0.6090114664290556,0.7686616317238006,0.45485802670674597,0.8119530269311823,0.891156462585025,1
0.35338214365109816,0.607257994605497,0.7713875181001354,0.48233175850736065,0.8106951240696008,0.8911564625850321,1
0.35473556463184625,0.6090342795684208,0.7691365762554959,0.521710776035248,0.8123722186351849,0.8979591836734588,1
0.3520165602008841,0.6133397936068883,0.7711153694798399,0.4766654676690364,0.8119530269311828,0.8979591836734659,1
0.35484158094322343,0.6131532804023724,0.7680815318468647,0.4573679235421195,0.8115338352271793,0.8979591836734695,1
0.3531203313216729,0.6141965051599096,0.769459569621904,0.5144072588984817,0.8102759323655992,0.8979591836734588,1
0.35490765065520286,0.6156314701708846,0.7691024037772078,0.5112502214888455,0.8102759323655979,0.8979591836734624,1
0.3530603873977463,0.6142935524121759,0.7690491415459204,0.4598073425237125,0.8085988378000137,0.8979591836734695,1
0.3549646001731746,0.6128890042098681,0.7687314466034177,0.4826451063645106,0.8090180295040157,0.8979591836734606,1
0.35300470447537735,0.6116990264092549,0.769843632454583,0.5330670885121106,0.810275932365597,0.8979591836734606,1
0.3550200094491232,0.6116365079510426,0.7684449987911387,0.47899211602152186,0.809437548957592,0.891156462585025,1
0.35294904281567396,0.6102174724042518,0.7693400968064114,0.4628707189129281,0.8106951240695992,0.8911564625850197,1
0.3550760551996884,0.6104899835772559,0.7676883808231513,0.512242939423427,0.8073409349384322,0.8911564625850197,1
0.3528929595186229,0.6073856710053721,0.7692229264727241,0.5070365967664627,0.8085988378000137,0.8911564625850339,1
0.3551310273003478,0.609867054084718,0.7678467973217817,0.4555429691664605,0.8060830320768495,0.8911564625850197,1
0.3528419566775643,0.6080094838577779,0.7701443464727069,0.4946756099230426,0.8073409349384315,0.891156462585025,1
0.3551706719456151,0.6083875798060874,0.7684039887804773,0.5196885638674976,0.8052446486688438,0.8911564625850215,1
0.3528373324991933,0.6075326393861482,0.7703151009510207,0.47016495179878104,0.8060830320768495,0.8911564625850286,1
0.35500438470087303,0.6089432514019855,0.7690766547804223,0.4677255316753813,0.8044059375112662,0.891156462585025,1
0.35152229903762316,0.6086645027425696,0.7705112217329739,0.5211638043302919,0.8069217432344296,0.8911564625850357,1
0.35567833321449127,0.613263625257636,0.7677166533899025,0.5020778143307468,0.8073409349384322,0.8911564625850268,1
0.3523534551313174,0.6164559811453103,0.7692492347721599,0.4566611937213093,0.8060830320768511,0.8911564625850268,1
0.3556722404675909,0.6161601512402983,0.7678678225373502,0.46920807215348004,0.8048254569648425,0.8843537414966001,1
0.35227286408637526,0.6160503175905346,0.7699069202450801,0.5209062607489461,0.8031483623992577,0.884353741496593,1
0.35579030876218404,0.6142500119774277,0.7685876160853404,0.48798767327495235,0.8039867458072627,0.8843537414965876,1
0.3521286110155469,0.6156793693303801,0.7702351079486757,0.4508885130688479,0.8014712678336737,0.8843537414965983,1
0.35595808991874806,0.6133322343641037,0.7678518527918783,0.47692444771650067,0.8027288429456816,0.8911564625850197,1
0.35193669689262774,0.6142585424241371,0.769805761129692,0.5119154281112105,0.803148362399259,0.8911564625850286,1
0.35617657849661827,0.6162931544490717,0.7671612537559291,0.4642440422026825,0.8031483623992579,0.8911564625850286,1
0.3516877107645998,0.6128500765224567,0.769857833916611,0.4942189499532489,0.799374653814513,0.8911564625850215,1
0.3564615395458597,0.612456498243287,0.7683603692661789,0.5210043108570701,0.8018904595376761,0.8911564625850286,1
0.35135939808671024,0.6107496333687586,0.7701125667717725,0.47436334843928196,0.8023096512416787,0.8911564625850144,1
0.35684310177829137,0.6112948728556147,0.7673862043953568,0.4700042477709866,0.8006325566760928,0.8911564625850126,1
0.3509111688773948,0.6107547677158973,0.7707572118329795,0.5252228573114072,0.7997941732680895,0.8911564625850339,1
0.3573765194825369,0.6098725828031683,0.7694309372543776,0.45633858857482906,0.7956012729793414,0.8979591836734588,1
0.3502663732534174,0.6103085183467842,0.7724343722857084,0.48145168274905603,0.8006325566760939,0.8979591836734464,1
0.35817083087971163,0.611825193865411,0.7658853041427554,0.5293890811869824,0.7897316058745847,0.8979591836734802,1
0.3492650453479017,0.6120826860519692,0.7720720132569616,0.47223043388372493,0.7960204646833449,0.8979591836734606,1
0.35946932412770083,0.6141813404363314,0.7664681002143175,0.47148156070369823,0.7939241784137572,0.8911564625850286,1
0.34752273327165484,0.6170902871863579,0.7709902560880945,0.529437904433563,0.797278367544926,0.8911564625850286,1
0.36189317559178036,0.616352840076249,0.7658627104207407,0.48975249840288854,0.7951820812753378,0.8911564625850357,1
0.34417913920828913,0.6141954311726283,0.7707935197487603,0.4574890068779032,0.7951820812753387,0.8911564625850215,1
0.3605706930828806,0.6289131290679091,0.7682670939292732,0.5125812399182764,0.7947628895713359,0.8979591836734553,1
0.2040997846771586,0.5418178633653726,0.7674179901268485,0.5090426624997018,0.7947628895713363,0.8979591836734624,1
0.26030959736257886,0.2793068020055468,0.5472386594824302,0.44676110542919234,0.7939241784137561,0.8979591836734659,1
0.4175529087971377,0.3465969876707464,0.683805484335975,0.5153755294516222,0.7708640461995784,0.8979591836734535,1
0.41940587739625024,0.4581557485689179,0.8472716641991671,0.49175278197687794,0.7826037081586696,0.8979591836734677,1
0.34387314720601414,0.35206173544151675,0.7648531679653535,0.4589086332355021,0.7884737030130002,0.8979591836734517,1
0.2848132827897708,0.3993772783434063,0.7597567550712724,0.6151409052628221,0.7943433701177589,0.8979591836734535,1
0.3105803452937984,0.4280947732095647,0.7425732863825619,0.5217156903505001,0.7943433701177589,0.8979591836734482,1
0.3110010362731547,0.45030906539144216,0.7644666701874777,0.46086529710819857,0.7985362704065073,0.891156462585025,1
0.3233403250078258,0.442645155371877,0.7603480599284244,0.5113747683740807,0.8006325566760928,0.8911564625850268,1
0.31780779100008383,0.4481857809691739,0.7667385541206146,0.4623323784811471,0.8027288429456811,0.891156462585025,1
0.32640820337548854,0.44106761471460476,0.7638708183349192,0.45685755388972926,0.8027288429456827,0.8911564625850268,1
0.32218740070014656,0.449402479394372,0.7686831259463719,0.4948783208407184,0.8006325566760939,0.8911564625850268,1
0.3259658950712906,0.44045809279542975,0.7647519961702307,0.4327927414059734,0.8014712678336735,0.8911564625850286,1
0.3246677071814917,0.4449455426598649,0.7704081006832799,0.4329514147895101,0.7976978869985012,0.8911564625850197,1
0.32782073545941254,0.4394501656641059,0.7668800361394148,0.45195688910182313,0.8018904595376761,0.8911564625850286,1
0.32386909150037385,0.4439037111765495,0.7698847473232181,0.5276308548814098,0.7993746538145139,0.8979591836734624,1
0.3295533733399491,0.4398132786955517,0.7671694141262397,0.49188456064194575,0.803148362399257,0.8979591836734482,1
0.3242150572424254,0.4436241759834976,0.7702100602286004,0.4394198796538064,0.7981167509529314,0.8979591836734624,1
0.329884808166995,0.44004694125992255,0.7677974916331781,0.5054936935821003,0.800632556676095,0.8979591836734624,1
0.32485741196690887,0.44342320400934365,0.7691650717326648,0.5204825506125255,0.8002133649720922,0.8911564625850268,1
0.3270229444482368,0.44022282071551044,0.7679636001823176,0.4394411647242225,0.7997941732680891,0.8911564625850268,1
0.3266971234184045,0.4432671485865199,0.7698718230915077,0.47698857743124434,0.7989554621105097,0.8911564625850268,1
0.32651526094114514,0.4403630378706957,0.7676932198731998,0.5565298023226197,0.7985362704065082,0.8911564625850357,1
0.32625836631337934,0.44313956577862545,0.7691504297019984,0.45577159026307706,0.7981167509529323,0.8843537414965841,1
0.32791669998107137,0.44048072507032504,0.7678737679083163,0.45909087487357425,0.7960204646833451,0.8843537414965947,1
0.32378374929100234,0.44302924266143795,0.76902509501108,0.5560633977773723,0.7997941732680887,0.8843537414965841,1
0.3282081528613034,0.4405862878104356,0.7679777946880253,0.5181561276005048,0.7964396563873481,0.8843537414966054,1
0.3243894724776524,0.4429253575531089,0.768932865169357,0.419056100845779,0.7972783675449253,0.904761904761882,1
0.3286920012515894,0.4406928230705038,0.7680625071316298,0.5053400500792236,0.7985362704065075,0.9047619047618998,1
0.3253543293954655,0.4428088004276715,0.7688529418467392,0.5616804559792049,0.7976978869985025,0.9047619047619015,1
0.3263046455477026,0.4408352097010999,0.7681402665260904,0.4824016523323607,0.7964396563873464,0.9047619047618927,1
0.3260467799364609,0.4425927270231288,0.7687726790596221,0.43575951514241607,0.7968591758409225,0.8979591836734677,1
0.3263803155554868,0.44146954008588485,0.76824182455738,0.5355329260213185,0.7964396563873468,0.8979591836734535,1
0.32508770242655965,0.4433659352613416,0.7680362277874145,0.5368209494305527,0.7951820812753381,0.8979591836734517,1
0.3300414827679055,0.4413103430308208,0.7679941227874961,0.42651057578513074,0.7951820812753398,0.8979591836734677,1
0.32791275660665914,0.446621968566603,0.770112183277684,0.4974671145532148,0.7926662755521772,0.9047619047619069,1
0.3299470129329784,0.44283751011188893,0.7696591052820911,0.5382123933498284,0.7939241784137578,0.9047619047619051,1
0.3271484546202535,0.44751155271045584,0.7674633256310728,0.44292999984652703,0.7918278921441695,0.9047619047618873,1
0.3298859668950015,0.4424737531291247,0.7691291864216431,0.4703601605885921,0.7947628895713368,0.9047619047619122,1
0.32600102839957856,0.4498243754426873,0.7684276789126414,0.5351261173839177,0.7914087004401671,0.9047619047618927,1
0.3275826281225348,0.44732130454222885,0.7668147728960554,0.43629524119684293,0.7939241784137578,0.9047619047619051,1
0.3297836964651677,0.45079073161634153,0.7712944216394286,0.4638798568055099,0.7880545113089996,0.9047619047618998,1
0.33098820448922595,0.44536670257882016,0.771587333117981,0.5535517351604613,0.7914087004401671,0.9047619047618998,1
0.32788778366567867,0.4454312125999037,0.7708128294546048,0.4733339147296348,0.7930857950057522,0.9047619047619122,1
0.3288053463574294,0.4448731975469817,0.769200547954664,0.4921811775431181,0.7914087004401671,0.9047619047618927,1
0.33450530122945554,0.44676981101917984,0.7736028311243767,0.5291290267257344,0.7905699892825893,0.9047619047619051,1
0.33753328876143374,0.44253229088525314,0.7762587985370631,0.42150902897072307,0.7884737030130013,0.9047619047619051,1
0.3380313947240372,0.443045946094622,0.7774549996824073,0.4936867563197895,0.7901507975785855,0.8979591836734535,1
0.33580784492871757,0.44097238247076276,0.7761823710452862,0.5292007244913891,0.7897316058745849,0.8979591836734606,1
0.33612963573204674,0.44255118538808247,0.7764149528342008,0.457229512345199,0.7901507975785864,0.8979591836734553,1
0.33584438421636403,0.44102507033062904,0.7784118208168438,0.5192282017092735,0.7876349918554233,0.8979591836734677,1
0.33791821824322,0.4425305933131271,0.7792050503085128,0.46565970447045607,0.7884737030130005,0.8979591836734553,1
0.33791661678830337,0.4410400066374932,0.7796966641182259,0.47823017433517023,0.7901507975785869,0.8979591836734695,1
0.33936053972467445,0.44251669540876876,0.7814708229480711,0.5438646163198337,0.7888928947170037,0.8979591836734624,1
0.3414226077146762,0.4410538717429442,0.7802247187850149,0.4492513270443989,0.789731605874582,0.8979591836734535,1
0.33534284086943406,0.44250268563357675,0.7801337666783459,0.49547221914022405,0.7884737030130007,0.8979591836734624,1
0.33868513306110365,0.44106799470577734,0.7787725138761561,0.5297692672708769,0.7872158001514207,0.8979591836734624,1
0.3418427207812838,0.4424885255180048,0.7803146051291503,0.4422674033248901,0.7846999944282558,0.8979591836734606,1
0.3375529227645496,0.4410821174666294,0.7779603509667242,0.5010679074900679,0.7863770889938406,0.8979591836734624,1
0.33456748071089176,0.44247450157212115,0.7783732006344639,0.5206369857902537,0.7838616110202508,0.9047619047618944,1
0.3352837841614792,0.4410959952236324,0.7753269900536741,0.44595384747275846,0.7851195138818337,0.9047619047618873,1
0.33547516478477635,0.4424608052029967,0.77586887278366,0.5007208616735149,0.7830228998626709,0.9047619047618927,1
0.33613870458654743,0.4411094847436124,0.7753089007380392,0.5395846501281102,0.7834424193162486,0.9047619047618802,1
0.3345665074107164,0.4424475404752524,0.7750723111845683,0.4534412493759026,0.783022899862672,0.8911564625850215,1
0.33546921722909717,0.44112251242784245,0.7749515159354686,0.4618123170040721,0.7855387055858347,0.8911564625850197,1
0.33475750906523605,0.4424347578373856,0.7754648690432604,0.5226657167501352,0.785538705585836,0.8911564625850321,1
0.33537821592323214,0.4411350451425784,0.7757963407933817,0.4681979148094848,0.7838616110202499,0.8911564625850215,1
0.33475948470443573,0.44242247766535225,0.7756699238577116,0.4644506017164472,0.7830228998626718,0.8979591836734535,1
0.3361549624126764,0.44114707173515744,0.7753431135699244,0.5183716567355378,0.7805074218890822,0.8979591836734553,1
0.3357726870326859,0.44241070463348803,0.7760028251686057,0.4457825333099885,0.7821845164546664,0.8979591836734588,1
0.3373504630645574,0.4411585918633868,0.7765337163466968,0.47986311138834165,0.7796690384810772,0.8979591836734517,1
0.3373700694350158,0.44239943644855,0.778634312576733,0.5239679004842549,0.7813461330466616,0.8979591836734659,1
0.3385660873935417,0.4411696090945635,0.7793908014628579,0.4396356575134271,0.7788303273234991,0.8979591836734588,1
0.34192695098808334,0.44238866938083266,0.7814194563701642,0.5009103389213773,0.7721219490611606,0.8979591836734695,1
0.34140996266737506,0.44118012639687876,0.7805302406424414,0.520472409227053,0.7763148493499081,0.8979591836734624,1
0.3361447404228967,0.4423784020007602,0.7811956308005243,0.4420364910734877,0.7771532327579138,0.9047619047619051,1
0.3403111127673425,0.4411901430122688,0.7786488608860418,0.52931777363305,0.7796690384810769,0.9047619047618873,1
0.3412407176626616,0.4423686377650983,0.7780046975764332,0.4962556086803867,0.7784111356194958,0.9047619047618927,1
0.3366105723596392,0.441199652466739,0.7785396570111499,0.46441549613053273,0.7779919439154925,0.9047619047618927,1
0.33495093872536424,0.44235938615712356,0.7769966370904318,0.5461386324437092,0.7754761381923292,0.9047619047618998,1
0.33617325810321347,0.44120864288877754,0.7760739897336888,0.4951682505481408,0.776734041053911,0.9047619047618927,1
0.33571722394093256,0.44235065960501463,0.7752650861349708,0.4598208594502027,0.7725414685147374,0.9047619047619069,1
0.335981296357598,0.44121710559842225,0.7758330405658826,0.5418770705331168,0.7779919439154934,0.9047619047618998,1
0.3372590946814757,0.4423424534960665,0.7780323073560312,0.4849569540686141,0.7750569464883268,0.8979591836734588,1
0.3348596073132714,0.4412250796692593,0.7770382359653505,0.4414129494938589,0.7771532327579143,0.8979591836734553,1
0.3375186376512614,0.44233464572312187,0.7792773142834712,0.5199035223119723,0.7758953298963338,0.8979591836734784,1
0.3398465308984184,0.44123288883259587,0.7788869590348142,0.4967572946492131,0.7750569464883266,0.8979591836734553,1
0.33714323571398985,0.4423263931991734,0.7782438902536994,0.44757608653736375,0.7763148493499075,0.8979591836734464,1
0.33852469627741893,0.4412428694536293,0.7790995224260135,0.5308460467367765,0.7746374270347502,0.8979591836734606,1
0.3395536455048978,0.44231021294431155,0.7807596492740954,0.49574767185383745,0.7737990436267463,0.8979591836734784,1
0.3434642950354806,0.44128686560999403,0.7806539665371517,0.4331969225738583,0.7704448544955773,0.8979591836734677,1
0.3435873364708456,0.4420129785701588,0.7811328694976041,0.5187030908543241,0.7729603324691667,0.8911564625850321,1
0.34415388303213224,0.43475384314145843,0.780711668116707,0.5097022441547766,0.7712832379035821,0.8911564625850108,1
0.3449198445723779,0.4349658831554961,0.7809970962005193,0.43695199115059463,0.7725414685147365,0.8911564625850321,1
0.34226648495076684,0.43489488351858857,0.7805994442794083,0.509884295650587,0.7704448544955766,0.8911564625850392,1
0.34299782656812217,0.43527563714657147,0.7814545157137878,0.5104719937405865,0.7712832379035821,0.9047619047618944,1
0.3439534958215989,0.4350830597445189,0.7801255491546186,0.42981549155910237,0.7721219490611615,0.9047619047618944,1
0.34338518823819586,0.4383102649091498,0.7806533620439584,0.49447398055442887,0.7696061433379979,0.9047619047618891,1
0.3412454012391914,0.4356195857206494,0.7800663915384568,0.560290227196922,0.7700256627915743,0.9047619047618944,1
0.34093450807840464,0.43725070227849583,0.7810113084403598,0.47787125544344483,0.7696061433379979,0.8979591836734624,1
0.3420036922460007,0.4399102984540047,0.780800193682928,0.4520257521683742,0.7691869516339962,0.8979591836734624,1
0.3405713289513682,0.4418808455775268,0.7805367539810198,0.5199691305638237,0.7658327625028267,0.8979591836734588,1
0.3442778740074653,0.43912674628515586,0.7799670608076379,0.48589408639146175,0.7679293765219872,0.8979591836734659,1
0.34250988146320144,0.43754190475637755,0.7808177745863185,0.4537496459921274,0.7658327625028256,0.8979591836734517,1
0.34228383282993763,0.43866507383094583,0.7794623894847734,0.5257443700335918,0.7691869516339969,0.8979591836734659,1
0.34270661262460467,0.43932392277351123,0.7805951303125502,0.47745845780523616,0.7637364762332395,0.8979591836734588,1
0.34507127598327575,0.44170678506728084,0.7809980816857348,0.45082886305022546,0.7670906653644083,0.8979591836734624,1
0.3411510482934648,0.4420002393494833,0.7808777484247329,0.5281268362183353,0.7662522819564026,0.8911564625850197,1
0.34416373040506554,0.4415499026681921,0.7808770676431536,0.464978078026768,0.7666714736604054,0.8911564625850268,1
0.34449085289538695,0.44110435854402635,0.7810058494646333,0.46450220978066237,0.765413570798825,0.891156462585041,1
0.34469218676920793,0.4390913984183703,0.7803569586055878,0.5426287235612222,0.7649943790948215,0.8911564625850321,1
0.34423710142392694,0.44123173304624064,0.7804661998371973,0.4568070917200385,0.7645751873908186,0.8979591836734624,1
0.3436614065701841,0.44077906146078,0.7811301611205685,0.4577224150593945,0.7624785733716581,0.8979591836734624,1
0.3438103076379287,0.4415923750882284,0.7806976422722183,0.5477315192995448,0.7633172845292369,0.8979591836734606,1
0.34100459348512946,0.44185036037140046,0.7811543213000522,0.48512811509663395,0.7612206705100755,0.8979591836734606,1
0.342952202423492,0.44101834294576847,0.7803272496791587,0.44953178175454156,0.7628980928252349,0.8911564625850321,1
0.3420314594132525,0.4412893252832783,0.7804921442072922,0.5460082211548717,0.7633172845292369,0.8911564625850215,1
0.34364540882807926,0.4420399028839116,0.7809695206841781,0.5174856415229171,0.762059381667656,0.8911564625850339,1
0.3423869157399852,0.44039733066260855,0.7809404195091393,0.43869468737404205,0.7616401899636518,0.891156462585025,1
0.34352670402263835,0.4422689101728975,0.7806498017549264,0.48554519438612154,0.7612206705100777,0.8911564625850392,1
0.3419199732928854,0.44128632277806706,0.779526964109676,0.5327454827643603,0.7608014788060753,0.8911564625850339,1
0.34409171244247755,0.4400457188393204,0.7809557528224799,0.44434353963184325,0.7582860008324845,0.8911564625850321,1
0.3445247024057572,0.4416163838923715,0.7808751528563429,0.4829266530789694,0.7591243842404891,0.8911564625850286,1
0.3446583784078803,0.4418880218381071,0.7809048732845149,0.5311895221380165,0.7557701951093196,0.8979591836734624,1
0.34436328342031713,0.4396775803187062,0.7809243548818176,0.4513162295574373,0.7599630953980692,0.8979591836734784,1
0.34476871910343965,0.44188399327689154,0.7808514326520483,0.46508123274988883,0.7557701951093205,0.8979591836734588,1
0.3442529351487055,0.4405580136081135,0.7810083969742658,0.5494328365892976,0.7578664813789082,0.8979591836734482,1
0.3437374803453191,0.4419667147624166,0.7801076588632462,0.4691369584952042,0.7574472896749065,0.8911564625850286,1
0.34390908335142967,0.44161284810838775,0.780851898755574,0.43398935254320886,0.7578664813789091,0.8911564625850286,1
0.34384013700454563,0.4419251579906057,0.7808710578526237,0.5325491718583858,0.7561897145628964,0.8911564625850339,1
0.3429242870259119,0.44167472182181194,0.7809859285396049,0.5340793630630077,0.7549318117013146,0.8911564625850215,1
0.34218546046504206,0.44183690004021425,0.7807563371378134,0.4344110811866818,0.7557701951093214,0.897959183673473,1
0.3403416872717798,0.44180612893589977,0.7811616064759994,0.47068770741587107,0.7553510034053179,0.8979591836734517,1
0.3399568613089329,0.44161968488388686,0.7802290247246796,0.5504539672953527,0.754931811701316,0.8979591836734695,1
0.3408699952854416,0.4422563592831713,0.7800497731105458,0.5044791008666715,0.7494810085509866,0.8979591836734535,1
0.34586317143323264,0.43838423782409813,0.7831407937785264,0.42653890383164855,0.7545126199973138,0.8979591836734819,1
0.3373866699172444,0.4390225824726595,0.7766458878366737,0.4876942949940905,0.7532547171357298,0.8979591836734482,1
0.33788125786981943,0.4405063686045327,0.7778608025306961,0.5443446263423084,0.7532547171357313,0.897959183673473,1
0.3395649832460092,0.43807546511160256,0.7796021953007423,0.4491655253342641,0.7528355254317287,0.8979591836734535,1
0.3435583825231683,0.4409295479985661,0.7810133923817305,0.48298614717724125,0.7515776225701452,0.8979591836734517,1
0.3417037846842053,0.4398049700455272,0.7801288684964534,0.5495157765445874,0.7494810085509864,0.8979591836734677,1
0.3418877306384067,0.4409954208705408,0.7796656468133446,0.4589487058644088,0.750738911412568,0.8979591836734677,1
0.34288937762962646,0.43708517509848993,0.7814968416470303,0.4308213503269147,0.7515776225701472,0.8979591836734677,1
0.342277985535479,0.43750090214466053,0.7796960217756863,0.5391802360786504,0.7478039139854014,0.8979591836734464,1
0.3386350780812257,0.43802802807916336,0.7795267433594533,0.48989711947074227,0.7511584308661428,0.8979591836734535,1
0.33918564337665247,0.43749028339867335,0.7798452721901595,0.41505496265060204,0.7490618168469847,0.897959183673473,1
0.34068754300360554,0.4360111182388725,0.7774639593275249,0.5144314267017195,0.7503197197085651,0.8979591836734535,1
0.3377307681228615,0.44097114326849624,0.7786890363211567,0.5497922533801951,0.7503197197085656,0.8979591836734588,1
0.3354156085855605,0.43862439171677686,0.7766220028466008,0.4464630759539866,0.7490618168469836,0.8979591836734535,1
0.33649044343570567,0.4394363581947107,0.776167175475953,0.4608839147106306,0.7494810085509864,0.8979591836734624,1
0.3347503716300061,0.4371597936236833,0.7742372820986249,0.5412353432147752,0.7490618168469836,0.8979591836734624,1
0.3387793085560194,0.43758221288715476,0.7774052092471434,0.49938958294768754,0.7490618168469831,0.8979591836734624,1
0.3394814364233964,0.43834391760935776,0.776842402602078,0.4446209349683063,0.7503197197085656,0.8979591836734624,1
0.337459323576668,0.43700113542039826,0.777631760489666,0.5130112590370364,0.7406763440190614,0.8979591836734624,1
0.34185934802781814,0.43704818460941486,0.778949036876532,0.5082551647994761,0.7457076277158143,0.8979591836734553,1
0.34152195362141,0.43651621889795955,0.7813177830388882,0.43307150415634177,0.744869244307808,0.8911564625850179,1
0.34107619805163625,0.4385626909604245,0.7799989386304682,0.5225525527808784,0.7440305331502306,0.891156462585025,1
0.3410715859570018,0.43527961597339593,0.7792511675634073,0.5072358406994331,0.7444497248542334,0.8911564625850286,1
0.3414540351139579,0.4365678526071547,0.780380026122955,0.42285465905259717,0.7448692443078089,0.8911564625850339,1
0.3310565756483746,0.4354655974794512,0.7711414859058856,0.51998214668567,0.7448692443078104,0.8911564625850392,1
0.33419096745724014,0.4332467378794571,0.7719068522787897,0.5517361504375438,0.7457076277158139,0.8911564625850179,1
0.33481112782088246,0.4336313234156064,0.7740874968060587,0.42936636670414324,0.7457076277158157,0.8911564625850357,1
0.33518798846926,0.43338106648919744,0.7748234747260868,0.47823120872374314,0.7457076277158157,0.8911564625850321,1
0.3350516118768954,0.43345326050459676,0.774528729787987,0.5533186218073591,0.74486924430781,0.8911564625850392,1
0.3350657837317043,0.43384277875430727,0.7740036274547157,0.4972435984776463,0.7431921497422256,0.8911564625850215,1
0.3351325907493344,0.4353376084963601,0.7740527861151908,0.43941478411958934,0.7436113414462273,0.8911564625850392,1
0.3350055662219532,0.4337032508429043,0.7744677205791868,0.5261693646831787,0.7427729580382239,0.8911564625850286,1
0.3351806336084317,0.43441284559215276,0.7741459494824143,0.5343529289925204,0.741515055176641,0.8979591836734659,1
0.33496525690842827,0.4332701341249941,0.7736097624800929,0.4387131898093292,0.7415150551766425,0.8979591836734748,1
0.33521588558044063,0.43503324040975044,0.7738214464480232,0.47601566279535323,0.7436113414462273,0.8979591836734535,1
0.33493314219563497,0.43382262089088797,0.7736369319750509,0.5425267605186095,0.7436113414462282,0.8979591836734535,1
0.33524666306734513,0.43368201894485403,0.7740079144581175,0.4448785345813311,0.7431921497422254,0.8911564625850268,1
0.3349012266606267,0.4339387503668764,0.7742730671263718,0.4704312232171757,0.7431921497422251,0.8911564625850392,1
0.3352848934566669,0.4368349479394803,0.7748173983693755,0.5335921959089677,0.7410958634726379,0.891156462585025,1
0.33484009707932294,0.4341623866967692,0.7745902258722968,0.45009941815361065,0.7423534385846453,0.8911564625850179,1
0.3351549614306338,0.43580129088076824,0.7746573621337508,0.46067003833909953,0.7427729580382234,0.9047619047619122,1
0.3351115323689536,0.4352097950991581,0.7748003245759589,0.5517594098224684,0.7436113414462278,0.9047619047618944,1
0.3351649606166436,0.43604868097505467,0.7746439748207419,0.4644628929926737,0.7410958634726392,0.9047619047618962,1
0.3349792272337775,0.43768302980804746,0.7747483182125973,0.4422993888068028,0.7398379606110566,0.9047619047618927,1
0.33518123481794754,0.43849369359629775,0.7743019137141293,0.5513851045808598,0.7415150551766407,0.8911564625850215,1
0.3350091756090942,0.43768636195115984,0.7728615500581628,0.510393465736978,0.7406763440190618,0.8911564625850268,1
0.3350897476385717,0.43639107251245746,0.7744976700096523,0.4049791920927615,0.741095863472637,0.891156462585025,1
0.3352632067411144,0.43950341485347877,0.773142363675086,0.506812813035647,0.7410958634726381,0.8911564625850268,1
0.33338719092119207,0.44087675130280646,0.7712059223431456,0.5576764090857131,0.740257152315059,0.8979591836734588,1
0.33386357937583777,0.4355725855804306,0.7709593847314014,0.44710207892621645,0.7389992494534776,0.8979591836734517,1
0.33576654683243057,0.4364376272342206,0.7717967129483423,0.44703387529571254,0.7398379606110559,0.8979591836734535,1
0.33452434571073225,0.43390445007962475,0.7740316992763172,0.5494622488480834,0.7398379606110568,0.8979591836734695,1
0.33558809420430624,0.4338654591634461,0.773017758736616,0.4801597280218364,0.738999249453477,0.8911564625850268,1
0.3346018990908844,0.43402320001509587,0.7739401661928347,0.43522857148347194,0.738580057749475,0.8911564625850286,1
0.33554972524751764,0.4347186397811431,0.774675220632468,0.5326987782002721,0.7356450603223079,0.8911564625850321,1
0.33462064588492796,0.4368717258953991,0.7747732603925945,0.49164488445532945,0.7377413465918952,0.8911564625850126,1
0.33554246653401965,0.43928199191360273,0.7745901516060625,0.43790878588334553,0.7369029631838904,0.891156462585025,1
0.3346202703079799,0.43669798584596076,0.77479281442826,0.53800316836732,0.7389992494534763,0.8911564625850126,1
0.3355486681083948,0.43461724322326184,0.7745909264824788,0.503558022940381,0.7360642520263103,0.8911564625850197,1
0.3346086784006764,0.43591724749586247,0.7747749008313958,0.4297848057626723,0.7389992494534776,0.8911564625850339,1
0.33556688528415396,0.43832900571141054,0.774650051560702,0.5160151888552064,0.7360642520263103,0.8911564625850215,1
0.33457860109342275,0.4393926036657261,0.7744697384289727,0.5414121933901332,0.7385800577494748,0.8911564625850321,1
0.3356308959607806,0.438870938378558,0.7721455333274685,0.43285900330783816,0.7385800577494741,0.8911564625850268,1
0.3342901686788276,0.43757643276304775,0.7733868497913005,0.475701073138818,0.7356450603223088,0.891156462585025,1
0.33372490599612675,0.43766737694729085,0.7730119322386982,0.5616634814392355,0.736483771479888,0.8911564625850339,1
0.3342729004864588,0.439463477614367,0.772305188074194,0.49894464286914864,0.7339679657567251,0.8911564625850321,1
0.3344831964414137,0.4407137548234678,0.7734616941904924,0.41921557707437623,0.7352258686183044,0.8911564625850286,1
0.3345266796362338,0.44019850714732545,0.7726629597863276,0.5062128198983498,0.7331295823487198,0.8911564625850339,1
0.3356362557039582,0.4394827191514511,0.7722410161524058,0.5398373397201455,0.7364837714798871,0.8979591836734553,1
0.33452172678306813,0.43815557825025836,0.7735057395969582,0.4383559415162896,0.7331295823487194,0.8979591836734588,1
0.3356533831008993,0.441656129594913,0.7739546022123942,0.4841731976149837,0.734387157460727,0.8979591836734624,1
0.3344975405648622,0.43941770206247366,0.7750887305425355,0.5320160409357377,0.7339679657567246,0.8979591836734446,1
0.33568357022626166,0.4402241781809597,0.7743511779882455,0.4407069689542132,0.7339679657567253,0.8843537414965983,1
0.3344606137009783,0.4404971618700855,0.7750340640153974,0.47002204304503786,0.7335487740527229,0.8843537414966001,1
0.3357296690917402,0.44092715911194785,0.7742649796673381,0.5556743894711524,0.7331295823487189,0.8843537414965947,1
0.33439985744191053,0.43813010204649006,0.7743411746302806,0.4661622754822537,0.7322908711911409,0.8843537414965947,1
0.33581918907971164,0.44126519625595945,0.7733827893234881,0.4262953953372275,0.7316294725526107,0.8911564625850215,1
0.33422160691418645,0.44045808821087756,0.774099984224593,0.535778765851771,0.7358223728413602,0.8911564625850215,1
0.33465766129487184,0.44067076673953176,0.7720991483936337,0.5070766991998122,0.7324681837101898,0.8911564625850268,1
0.3327591142770883,0.440413306789435,0.7723557334482022,0.42180317440354265,0.7337257588221988,0.8911564625850286,1
0.33392981585370085,0.4414712132083631,0.7698304246692181,0.5020740981101087,0.73037156969103,0.8911564625850357,1
0.3332888921236033,0.44161250568936095,0.7702628158501411,0.5656714017033191,0.7333065671181958,0.8911564625850321,1
0.3336528853642075,0.44045729539767253,0.7710580528488294,0.45166035487829737,0.7320486642566144,0.8911564625850215,1
0.33224483020510104,0.44105923152507365,0.7714065665529923,0.448193231207684,0.7320486642566137,0.8911564625850357,1
0.33194699072307426,0.4407623858458795,0.7681944316525924,0.5527342477286394,0.7312102808486087,0.891156462585025,1
0.33209134224215353,0.4391222176864309,0.7705357955169778,0.48835577064524527,0.7295331862830245,0.8911564625850321,1
0.33544632355497334,0.4416354908612179,0.7690610470028332,0.4357197038663135,0.7299523779870276,0.8911564625850286,1
0.33119598995385996,0.4404761568086679,0.7711924487740938,0.5346825860177233,0.7261789971518575,0.8911564625850339,1
0.3352545257397147,0.4391460371823756,0.7736329427184759,0.4705662685906764,0.7286948028750193,0.8911564625850339,1
0.3346549191349182,0.43878401207168116,0.7731536665916693,0.4465718605283002,0.7265981888558588,0.8911564625850286,1
0.3355937888733275,0.4361230626507401,0.7742880144267125,0.5452734360136476,0.7274369000134377,0.8911564625850215,1
0.3345101784627064,0.4378384569822553,0.7730952031782107,0.46902039384694594,0.7261789971518562,0.8911564625850286,1
0.3357391986868304,0.44060858432378536,0.7746490571209872,0.44359996819332614,0.7265981888558601,0.8911564625850392,1
0.334100165614223,0.4416532582304532,0.7734296888585948,0.5499428932741169,0.7257598054478522,0.8911564625850286,1
0.33452949612370836,0.4413742800089313,0.7712072910392986,0.4818631157147154,0.7257598054478529,0.891156462585025,1
0.33510297545684936,0.44062060543053044,0.7713405636804193,0.4531777133328422,0.7261789971518546,0.8911564625850126,1
0.33327707774196397,0.4401200374577297,0.7695437532434719,0.5543373128178617,0.7245019025862705,0.8911564625850286,1
0.3309295007227219,0.44194579572881626,0.7695579295777546,0.5143456146765628,0.7253406137438514,0.8911564625850286,1
0.331874435642754,0.44160203995403025,0.7683502354680273,0.41213936119079214,0.7131814323311836,0.8911564625850357,1
0.3321287231508696,0.44210987063516394,0.7687898945784615,0.5192584260534727,0.7211477134551028,0.8911564625850197,1
0.33283303831837535,0.4404782882774601,0.7687618794300607,0.5355289797806912,0.7190514271855157,0.8843537414965983,1
0.3331344923546757,0.43957426273633016,0.7697749104969802,0.43784687906907926,0.7219860968631091,0.8843537414965912,1
0.3338852149131519,0.441698641680329,0.7691622220431515,0.4930868315007581,0.7207285217510992,0.8843537414965787,1
0.3328669201844572,0.43901437254864206,0.7712000868569666,0.5336388691440596,0.7215669051591058,0.8843537414965876,1
0.33517519103912014,0.44042674932327813,0.7716995503355912,0.43500364003945613,0.7207285217511004,0.8911564625850321,1
0.33411601397214885,0.4417340716399202,0.773176942506062,0.5018695953522427,0.7211477134551028,0.8911564625850268,1
0.33513461873641387,0.43899660011858255,0.7720845673230788,0.5339919768716954,0.720309002297524,0.8911564625850179,1
0.33285739865175573,0.43777750710860996,0.7724216182525765,0.4296496614366503,0.7203090022975245,0.8911564625850446,1
0.3358072364738422,0.43958768998217523,0.7724113177218901,0.4855211147480398,0.7198898105935223,0.8911564625850321,1
0.3341673125947039,0.44005582760796,0.7718543978503586,0.5479470834967602,0.7161164297583498,0.8911564625850197,1
0.3360833540561517,0.4397933956950648,0.771152338282216,0.4369960460037602,0.719470618889519,0.8911564625850286,1
0.33336067022258914,0.43952989315094493,0.7695030990775056,0.4740462523977327,0.7177935243239331,0.8911564625850197,1
0.3342318469495353,0.4404592795552698,0.7701831050936432,0.5679512605620122,0.719051427185516,0.8911564625850286,1
0.33161660097273826,0.44167511548031935,0.7694098336239054,0.4842189288250307,0.7169548131663561,0.8911564625850286,1
0.3345068856920089,0.4418203967372921,0.7693231185940441,0.4176197236843883,0.7177935243239342,0.8911564625850215,1
0.3326026802632582,0.4417873385173188,0.768616899706581,0.5212068647577451,0.717374332619932,0.8911564625850321,1
0.3335614708515261,0.44065478814797404,0.7694387986061766,0.5409352023744245,0.7173743326199316,0.8911564625850268,1
0.3335403030510675,0.4406985622767665,0.7704422257082117,0.4412860272710437,0.7173743326199313,0.891156462585041,1
0.33488301163759526,0.44203958245772607,0.7720856372029241,0.46955010279883547,0.7169548131663561,0.8911564625850321,1
0.3332308696854512,0.44047714342098493,0.7732709430125542,0.5330460898476327,0.7161164297583509,0.8911564625850179,1
0.3364118245014531,0.43956309520672854,0.7736344947433742,0.46010526960761455,0.7127622406271807,0.8843537414965876,1
0.3337668258743892,0.44047909845730493,0.7733095949773491,0.4600007053148435,0.7144393351927651,0.8843537414965876,1
0.3364302989093956,0.439336345875724,0.7743547136701117,0.5409772746763682,0.7131814323311865,0.8843537414966018,1
0.3336822975915553,0.43746302335768816,0.7734774806430765,0.4706709556003027,0.7136009517847601,0.8843537414965947,1
0.3365556368156316,0.4395481714799966,0.7729884225972963,0.43247094428640437,0.7127622406271812,0.8911564625850268,1
0.3334923957602596,0.4400827162282112,0.771870855889565,0.5355302130762646,0.7136009517847617,0.8911564625850357,1
0.3369268519702344,0.44103997570237724,0.7706912972264668,0.5069006512406643,0.7131814323311836,0.8911564625850268,1
0.3315348893454027,0.4404573178164421,0.7706682232104187,0.43278602258811194,0.7140198157391899,0.8911564625850286,1
0.33226987852465506,0.4416975461783986,0.7700472250320812,0.5191444195702067,0.7136009517847601,0.884353741496593,1
0.33130412276995025,0.4405947858268474,0.7695650561654551,0.5417338118761432,0.7131814323311845,0.8843537414965912,1
0.3344460562976413,0.4404166284118466,0.7690000677208315,0.4388965111648112,0.7127622406271807,0.8843537414965947,1
0.33335863557661266,0.4420782694753502,0.7697494455836031,0.4651124989537311,0.7085693403384343,0.8843537414966054,1
0.33443586809854825,0.43903988286048673,0.770418543310142,0.5394634503389927,0.714019815739189,0.8911564625850215,1
0.3333028997382923,0.44116466191435916,0.7730823481460585,0.4595948220338266,0.7102464349040178,0.8911564625850286,1
0.33699879035776564,0.44029504803928854,0.7716370804798163,0.4575783462363794,0.7110851460615977,0.8911564625850268,1
0.332429342186651,0.44121625881584714,0.7742884370797699,0.54190684812762,0.7106659543575937,0.8911564625850268,1
0.33632571339155587,0.43910518306060276,0.7714652345997397,0.4608458417399989,0.7094080514960137,0.9047619047618962,1
0.3334110441379712,0.4410777381093802,0.7741880394043548,0.4521386524485403,0.7098272432000148,0.904761904761882,1
0.3369338473808216,0.4407900890946462,0.7720406050737203,0.5527179572742564,0.7094080514960128,0.904761904761914,1
0.3330890462477374,0.4394027975627889,0.7721345025503309,0.47250854869579545,0.7098272432000157,0.9047619047618944,1
0.33517359412682857,0.4387116292347648,0.7692451315190556,0.4341635968508275,0.7081501486344313,0.8911564625850215,1
0.3312902284064087,0.44309442774500096,0.7685723287055187,0.5522687908091476,0.7094080514960124,0.8911564625850321,1
0.3339287365887101,0.4406924461079282,0.7687865858314441,0.5234590309872225,0.7047959595032629,0.8911564625850286,1
0.32583934964845085,0.4428101949106544,0.7701965389036848,0.4212993892278135,0.7077309569304295,0.8911564625850268,1
0.33195766532416465,0.44075745903172103,0.7674975196905082,0.4942167954636735,0.7052151512072642,0.8911564625850215,1
0.3284173406184784,0.4428394587398909,0.7692991157657778,0.5584188588903115,0.708569340338433,0.8911564625850321,1
0.3305742122350011,0.4406219548635442,0.7688259052901008,0.4630075096038315,0.7068922457728495,0.8911564625850215,1
0.329751271449192,0.4418187764616622,0.7702095177151034,0.44514204221582554,0.7064730540688469,0.8911564625850286,1
0.3348398419402184,0.44081983193792984,0.7677611289212326,0.543718853132679,0.7060538623648431,0.8911564625850268,1
0.3326550540821014,0.44203337974300627,0.7712384481103309,0.48764747855396773,0.7056346706608392,0.8911564625850179,1
0.33608692613861857,0.4392994687808365,0.7701856012684192,0.4292699380483449,0.7056346706608416,0.8911564625850215,1
0.33252283845166497,0.44199980735818123,0.7723719108478608,0.5283416495080402,0.7056346706608418,0.8911564625850268,1
0.33662725871585464,0.4402743715533627,0.771744897822529,0.5192571256425561,0.7052151512072644,0.8911564625850215,1
0.33200915351586,0.44092714813155925,0.7729168177247993,0.41744554378112314,0.7035380566416811,0.8911564625850321,1
0.33815590583721616,0.43859017021674157,0.7733634831372409,0.49778044604572985,0.7047959595032633,0.891156462585025,1
0.3307675215399928,0.44341353876888495,0.7716406815459221,0.5620514921447762,0.7026996732336745,0.8911564625850286,1
0.3347164806798007,0.44004563965055465,0.7689921944451773,0.44537624472931825,0.7039575760952563,0.8911564625850215,1
0.3284739968242643,0.4436823273138257,0.7708559944230675,0.43060705808754607,0.7018612898256704,0.8911564625850286,1
0.3361592346406812,0.4396664540924368,0.7677549207781159,0.5595832989710511,0.7039575760952563,0.8911564625850215,1
0.32472229944991854,0.4442055609215129,0.7699696332029664,0.5198411773950035,0.7035380566416822,0.8911564625850463,1
0.3336638474729305,0.4384958663096678,0.7667975675950313,0.41798718940739343,0.7014417703720932,0.8911564625850268,1
0.32668424799015006,0.44413771289249904,0.7703696627843817,0.4986272632021507,0.7039575760952574,0.8911564625850321,1
0.3348970876322288,0.4381894750614854,0.7663116720203251,0.5511428348324819,0.702280481529673,0.8911564625850286,1
0.32497862544815864,0.44456789474478936,0.7717934060064275,0.4435488226219914,0.7022804815296719,0.8911564625850286,1
0.34057535705957753,0.4381424247285221,0.7653773517437511,0.46335571599736736,0.6980875812409264,0.884353741496593,1
0.32464798559821206,0.4460340060085496,0.7726846797011461,0.55046157608688,0.7006030592145156,0.8843537414966001,1
0.3420078562198886,0.43679640941343234,0.765787216207242,0.4457854628635899,0.6993454841025075,0.8843537414966018,1
0.22783591355301203,0.44959223742606336,0.7733452243077152,0.45561126790210993,0.7001841952600858,0.8843537414966018,1
0.4255751372959332,0.2640610690316991,0.6854576697442376,0.556315420595544,0.6993454841025066,0.8843537414965805,1
0.419579117631421,0.27273703667403737,0.7997111132557453,0.4498005345463642,0.6976683895369229,0.8843537414965805,1
0.3754840932724729,0.307104041116946,0.7753438213442975,0.4342282763991342,0.6964104866753427,0.8843537414966018,1
0.2936698143587563,0.2977549330466179,0.6982008443607194,0.5411226879887527,0.6951525838137611,0.8843537414965876,1
0.35818905054412015,0.3114674782311664,0.7205751799541503,0.5233551372830949,0.6964104866753389,0.8843537414965716,1
0.4904529054982785,0.43209294758240957,0.8781594704582776,0.5107037400216767,0.6964104866753407,0.8843537414965876,1
0.4632289679674629,0.480246143626857,0.8801628912311126,0.6117249325697158,0.7001841952600858,0.8843537414965983,1
0.5024209555729391,0.4541641339967396,0.8573503519350787,0.5153279391324075,0.6926371058401695,0.8843537414965983,1
0.4670238692753956,0.46514248890228166,0.8640320734263074,0.3608335986666752,0.6930562975441728,0.8911564625850215,1
0.48431574726156074,0.4509542839798272,0.8561454187592092,0.4390548997757342,0.6905408195705827,0.8911564625850286,1
0.464013863098875,0.4536734276274366,0.858858244754034,0.4773069623834598,0.6842516330122479,0.891156462585025,1
0.4737878774507689,0.43389203144298716,0.8508467043632552,0.4837804190461975,0.6913792029785877,0.8911564625850179,1
0.4604197210239605,0.4395198603705728,0.8542199514528418,0.44453404765341825,0.6926371058401704,0.8843537414965947,1
0.46927206923915926,0.43033564832186755,0.8476199584471037,0.5113661591513166,0.6930562975441721,0.8843537414965752,1
0.46134078759061486,0.4378599180471337,0.8532671782967312,0.43100044314251096,0.6934754892481749,0.8843537414965912,1
0.4711484233807212,0.4314426371119971,0.8501689981153548,0.4996418438474281,0.6968296783793444,0.8843537414965983,1
0.4639698916461009,0.4361068236687934,0.8523599504593541,0.4896867483219859,0.6955721032673363,0.8843537414966018,1
0.47071331926256127,0.43099744768664905,0.8488434814094176,0.4469958517826409,0.6968296783793444,0.8843537414965841,1
0.4646343379990204,0.43579253977740323,0.8518685011713718,0.5584315880872556,0.6917983946825916,0.8843537414965983,1
0.46962333370217746,0.4312845286108775,0.8478227897762348,0.4374813243245718,0.6955721032673363,0.8843537414966054,1
0.4640738646875128,0.435541936425687,0.8505486703349168,0.4869661116494427,0.6934754892481767,0.8843537414966054,1
0.47022289774380843,0.4315031304659185,0.8480410268504909,0.5918555643466642,0.6964104866753398,0.8843537414965805,1
0.46505130354244134,0.43535053614089464,0.8503461594441717,0.42744909249082486,0.6947333921097565,0.8843537414965805,1
0.4697159041525367,0.4316710005215634,0.8482343128146929,0.5325253573845224,0.6943142004057525,0.8843537414965787,1
0.4655121156156383,0.4352039717068647,0.8501429347550482,0.6020752300798929,0.6934754892481774,0.8843537414966018,1
0.4690041644794894,0.4317963310305334,0.8496736705967554,0.4953100042089317,0.6951525838137584,0.8843537414965859,1
0.4646209180026406,0.4351049273384421,0.8521994009173564,0.4007462947140412,0.6951525838137593,0.8843537414965983,1
0.46959425957164214,0.431840860472185,0.8480097042021923,0.5436779730346576,0.6922179141361671,0.884353741496593,1
0.46559224467461036,0.43595106283942997,0.851150200286971,0.5591713806299529,0.6926371058401697,0.8843537414966001,1
0.4692846372496101,0.4321958831079749,0.8481221062967104,0.4649570108373852,0.6888633972554261,0.8843537414965947,1
0.46577635723262034,0.434780991869044,0.8511854042413545,0.42658188921071094,0.6909600112745842,0.8843537414965876,1
0.4692183119316311,0.43217881911466316,0.847893388276338,0.5312576699837289,0.6871866304394152,0.8843537414965983,1
0.46535943367650384,0.4347383070519764,0.8512798694582754,0.5208765303023318,0.6892829167090009,0.8843537414966001,1
0.46804669584770386,0.4322328941995463,0.8492172269317642,0.4447432859620888,0.6871866304394134,0.8843537414966054,1
0.4665179425953146,0.43468213010126416,0.849781000334713,0.45767453636608535,0.6876058221434169,0.8843537414965947,1
0.46732216700785256,0.43228827161317673,0.8486221515915349,0.5283801328376118,0.6842516330122477,0.8843537414965876,1
0.4665101314222269,0.43462862533942104,0.8498565171974268,0.46508695609378947,0.6867674387354104,0.8775510204081467,1
0.4684433170450264,0.432339504866317,0.849277324224343,0.454723888025823,0.6867674387354101,0.877551020408152,1
0.4665925332369014,0.43457977677524134,0.8501429849652392,0.5143673113187577,0.6863479192818349,0.8775510204081467,1
0.4683532386296514,0.4323859858912853,0.8497673285335983,0.48004656665732415,0.685090016420254,0.8775510204081609,1
0.4666850966668477,0.4345355853310602,0.8502298090424465,0.44640122595860193,0.6829937301506661,0.8843537414965805,1
0.4682604627129911,0.4324279929515401,0.849006028391019,0.512118716561389,0.6867674387354104,0.8843537414965805,1
0.4667770343681556,0.43449564724981765,0.8512042054835111,0.48225890144390976,0.6838324413082455,0.8843537414965983,1
0.468169836734439,0.4324659787940233,0.8492027072133099,0.44438628042639416,0.6850900164202542,0.884353741496593,1
0.4668661719489438,0.43445950020612534,0.8513100336078455,0.5116896885165483,0.6834129218546696,0.8843537414965947,1
0.46808220113000226,0.4325003948276509,0.848589651023302,0.5006891804617102,0.6850900164202536,0.8843537414966001,1
0.4669523874029325,0.43442671413321704,0.8502313256938763,0.43355605772678785,0.6838324413082433,0.8843537414965716,1
0.467997263626311,0.4325316448681924,0.8493803909317806,0.491672256207913,0.6846708247162503,0.8843537414965947,1
0.46703623224756075,0.43439691330505986,0.8513674435250463,0.5237449277283853,0.6850900164202531,0.8911564625850126,1
0.46791428942074115,0.4325600764230506,0.8507359522658449,0.45500098831225977,0.6821553467426598,0.891156462585025,1
0.467118596357134,0.4354085584308558,0.8514272714169154,0.4639713792128368,0.681735827289085,0.8911564625850215,1
0.4678322265641718,0.43258598346178456,0.8493620323334196,0.5359440613659171,0.6792203493154936,0.891156462585025,1
0.4672007351598582,0.43434503774714867,0.850813995973333,0.4882256852000016,0.6808974438810804,0.8911564625850286,1
0.4677495300156328,0.4326096122962079,0.8495128901583957,0.4415126843559966,0.6796395410194971,0.8911564625850286,1
0.4672846411274044,0.43432246884544395,0.8507491719148068,0.5146122915139256,0.6808974438810789,0.8911564625850392,1
0.4676634704592912,0.432631167722716,0.8491925218733121,0.5200470800173994,0.6779624464539131,0.8911564625850286,1
0.4673743380582784,0.43430188477922377,0.8494647646549558,0.4383704643921952,0.6779624464539127,0.8775510204081574,1
0.467567563560617,0.432650818483654,0.8503359453642046,0.49900727035591824,0.6771237352963331,0.8775510204081414,1
0.4674815145818779,0.43428313307602817,0.8506755918508236,0.5365587048948195,0.6771237352963348,0.8775510204081503,1
0.4674372184647099,0.4326687017922325,0.8494496054668936,0.44359589571966246,0.6771237352963357,0.8775510204081609,1
0.46767275830790656,0.43426609088849255,0.850455837442176,0.47202754374025685,0.6758661601843265,0.8843537414965805,1
0.4669399172822216,0.43268492691069793,0.8493936489802516,0.5588781840314754,0.6771237352963346,0.8843537414965983,1
0.46660551632263014,0.4342506618664523,0.849986123433792,0.48953586818604544,0.6720927793491556,0.8843537414965983,1
0.4676746611196316,0.4326995778473392,0.8488009583322336,0.4226926903863322,0.6741890656187426,0.8843537414965983,1
0.4674613591526876,0.43423677387172843,0.850918939155735,0.5246679726574224,0.6716732598955788,0.8843537414965876,1
0.4674489010220947,0.43271271524724203,0.8496716984209978,0.5587312399192923,0.6746082573227452,0.8843537414965983,1
0.4676051835044415,0.4342243774672058,0.8507299669427903,0.45890014042839716,0.6716732598955781,0.8843537414965787,1
0.4673325227976664,0.4327243775347031,0.8484942018439602,0.4459305748360502,0.6704156847835712,0.8843537414965912,1
0.467709473424164,0.43421344513531024,0.8503029656184161,0.5451966724072027,0.6704156847835707,0.8775510204081467,1
0.4672341345747905,0.4327345813374607,0.8491917648593832,0.5241359944507723,0.6704156847835692,0.8775510204081396,1
0.46780501980601413,0.434203971211739,0.849567725894261,0.42855515111330156,0.6699961653299937,0.8775510204081467,1
0.46713967952123336,0.43274332118982173,0.8492458245993956,0.4895730729270128,0.6678998790604063,0.8775510204081538,1
0.4678995099584993,0.43419597255545417,0.8506254527721411,0.5489182612418789,0.6683190707644109,0.8911564625850446,1
0.46704435122328253,0.43275056847444643,0.8493599825026754,0.45278958480751674,0.6678998790604067,0.8911564625850144,1
0.4679963038150083,0.43418949001572316,0.8503126734192152,0.46063722711235333,0.6687385902179854,0.8911564625850179,1
0.46694556036331025,0.4327562695199241,0.8484197360580124,0.5486442830599041,0.6670614956524015,0.8911564625850268,1
0.468097573958885,0.4341845908029758,0.8506912082705016,0.48993717314449947,0.666641976198826,0.8843537414965841,1
0.46684134772921004,0.43276034272134395,0.8486717119807234,0.41555351866488727,0.6666419761988251,0.8843537414965841,1
0.46820519470210187,0.43418137192469114,0.8498667942516954,0.5064276622971255,0.6649648816332421,0.8843537414965912,1
0.46672983343885577,0.4327626744916068,0.8485819275139919,0.5607888023986096,0.6658035927908197,0.8843537414965876,1
0.46832112407883586,0.43417996491239114,0.8505662955833423,0.445070167856152,0.6637069787716601,0.891156462585025,1
0.4666089136850015,0.4327631137808743,0.8511609463549161,0.43484113055563023,0.666641976198826,0.8911564625850197,1
0.4684476851843228,0.4341805421411215,0.8507191784512302,0.5501847170020171,0.66328811481723,0.8911564625850339,1
0.466475953820107,0.43276146482274014,0.848305210205338,0.5297824225610828,0.6637069787716605,0.8911564625850286,1
0.46858795577593493,0.43418332512215774,0.8504867018684625,0.42557350431992347,0.6616106925020726,0.8843537414965876,1
0.4663272219831654,0.432757477691368,0.8502483398062091,0.47579467488741073,0.6624494036596504,0.8843537414965912,1
0.4687467029303583,0.4341885952092864,0.8513154641499139,0.5544183877952726,0.6616106925020737,0.8843537414965947,1
0.46615612894834824,0.4327508362252952,0.8476986959990103,0.4602352410137729,0.6611915007980707,0.8843537414965876,1
0.46893426016383233,0.4341967071294046,0.851371325489681,0.4504361936880868,0.6611915007980693,0.8911564625850286,1
0.46594261750544574,0.43274114300579924,0.8489907011067299,0.5491257373568071,0.6607723090940671,0.8911564625850286,1
0.46920930449712955,0.43420810544076255,0.8502220983129677,0.4676002957405777,0.6544831225357328,0.8911564625850321,1
0.46465108938145594,0.4327279016791672,0.8480444458578095,0.4346167256896334,0.6569989282588948,0.8911564625850268,1
0.4691398443466333,0.4342233429317059,0.8512073673266857,0.5561045381914985,0.6574181199628997,0.8911564625850357,1
0.465638701916549,0.4327104988139405,0.8495202617388868,0.5019247786805704,0.6540639308317295,0.891156462585025,1
0.46951644306409274,0.434243096722119,0.8505470851843968,0.4101173690401313,0.6574181199628988,0.8911564625850286,1
0.4653130106706871,0.4326881929915689,0.8481413676067204,0.5209024734054446,0.6544831225357324,0.8911564625850215,1
0.46985079246885453,0.43530694931410674,0.8512655789851986,0.5583570061390968,0.6565794088053198,0.8843537414966054,1
0.4649541660289802,0.4326601346678782,0.8478033178621112,0.4423405994065811,0.6557410253973142,0.8843537414965841,1
0.470243703872977,0.43429942824050277,0.8507568336392222,0.45215970630157315,0.6536447391277271,0.8843537414965876,1
0.46451833679337545,0.43262548760080904,0.8483338238430105,0.5670346407841537,0.6544831225357317,0.884353741496593,1
0.4707323893180927,0.43433757676366247,0.8515792255295231,0.48210466705528715,0.6532252196741506,0.8843537414965876,1
0.4639646216622564,0.43258387421850897,0.8487367985479711,0.43123232775033427,0.655741025397315,0.8843537414966001,1
0.4713667576116205,0.4343823208277105,0.8521732267273174,0.5272376988799066,0.651128933404564,0.8843537414965876,1
0.4632288681154993,0.4325369109871341,0.8476134066931615,0.5182050547982756,0.654902314239735,0.8843537414965841,1
0.4722322737940985,0.43442946250991976,0.8519165551925285,0.4215804561213776,0.65406393083173,0.8843537414965912,1
0.46219340435900114,0.4324939036462781,0.8492481481984415,0.5239374051151402,0.6540639308317298,0.8843537414965716,1
0.4734969813726475,0.4344592223109219,0.8537012118434835,0.5194040820433683,0.6511289334045645,0.8843537414965876,1
0.46060712275145693,0.4324974272085902,0.8461666566415204,0.4200064205066214,0.6523868362661442,0.8843537414965752,1
0.4755600478835539,0.434374611845757,0.8548709164364913,0.5077935962575807,0.6515481251085686,0.8843537414966054,1
0.45777190517285254,0.4327949044654325,0.8462561770695924,0.5451791340715484,0.6494518388389787,0.8843537414965876,1
0.47988986275643053,0.4333868158401366,0.8563568335593152,0.41905502726792315,0.6502902222469857,0.8843537414965859,1
0.44777745920101797,0.43931983987554124,0.8493385251618719,0.467488631475115,0.649032647134977,0.8843537414965983,1
0.4627959166783218,0.4426617133675461,0.8843125142674998,0.5617102070442717,0.6498710305429822,0.8911564625850215,1
0.3779555612451846,0.3109517160478295,0.7776792760630514,0.5165186091819223,0.6490326471349768,0.8911564625850179,1
0.4309922977842834,0.20959818371188849,0.7372494562304467,0.4133718168478336,0.6502902222469857,0.8911564625850321,1
0.36043578897232537,0.25819570052435986,0.7020928666160177,0.4935958446492082,0.6393892714454747,0.8911564625850357,1
0.3066525405503199,0.49448778597668436,0.7203856620881883,0.5492751995540045,0.6234567091976355,0.8911564625850179,1
0.3901674361436559,0.46048681101130007,0.8382860795409752,0.550291769792665,0.6192641366584608,0.8911564625850126,1
0.2670938661038239,0.42914635314460176,0.7382879337468145,0.4838443584698847,0.6238762286512125,0.8911564625850286,1
0.28764792847598186,0.45212344401845295,0.7205780161015072,0.3993579093829574,0.6263917066248017,0.891156462585025,1
0.2560654136670991,0.439444239622459,0.707938879132402,0.4458346676310201,0.6234567091976368,0.8775510204081609,1
0.27705852522660057,0.4493377084807576,0.7116321375587498,0.4773168301145909,0.6255533232167945,0.8775510204081396,1
0.2531858271964462,0.4415486819200347,0.7008227636676719,0.4787994425055122,0.6234567091976366,0.8775510204081645,1
0.2734713448262297,0.44762917815015973,0.7070546994914653,0.47546117296477114,0.6234567091976355,0.8775510204081414,1
0.2584889258854699,0.44385560234407573,0.7039149317044409,0.4576975723421938,0.6221991340856274,0.8911564625850215,1
0.2727445452643753,0.4499807733737162,0.7074692496162994,0.4872885162168289,0.6221991340856274,0.8911564625850215,1
0.26142743764692766,0.4473172428278974,0.704538633770236,0.5585848968089313,0.6213604229280487,0.8911564625850392,1
0.2754394314519105,0.4510161677609302,0.7114728424834756,0.4471342906978401,0.6192641366584608,0.8911564625850126,1
0.25983146290742576,0.4481772933669836,0.7017559590504293,0.5016566878361919,0.618006233796881,0.8911564625850286,1
0.2691608235104086,0.4506675849645372,0.7066367780150481,0.5415037926679287,0.6184257532504556,0.8911564625850197,1
0.26271730067261523,0.44853422098249035,0.704067289912376,0.45040974981730475,0.6180062337968801,0.8911564625850357,1
0.2704419706512158,0.4504595472334238,0.7081835143148116,0.5132841987671741,0.6142328529617085,0.8911564625850197,1
0.2645608991113737,0.44836189767117773,0.7047381256283038,0.5287161714367867,0.6167483309352992,0.8911564625850286,1
0.27089805257087096,0.4496240636765185,0.7075529294926075,0.4282708289713338,0.6163291392312944,0.8911564625850179,1
0.26097884942685745,0.4490659089380073,0.7041526690704648,0.5462217911537128,0.6154907558232894,0.8911564625850286,1
0.26917642022529553,0.44991421227297496,0.7073892974740666,0.49817649595027946,0.6146520446657111,0.8911564625850215,1
0.26166641916019884,0.4494007373042193,0.703955909413994,0.4298881392949255,0.6129749501001267,0.8911564625850286,1
0.2667592468099722,0.45080616752394853,0.7040075106032897,0.5393231962768583,0.6146520446657115,0.8911564625850215,1
0.2612302295574179,0.4493893247069155,0.701214898641693,0.5465316120994028,0.6121365666921217,0.8911564625850286,1
0.2652147246064297,0.4507730094118668,0.7030348883281026,0.41816232358009103,0.6112978555345427,0.8911564625850215,1
0.2597308540748716,0.44943935002834173,0.7025875593494362,0.4541257805862921,0.6117170472385454,0.8843537414965805,1
0.2630421243361225,0.4507089809551799,0.7040018380030612,0.5683783317162695,0.6108786638305397,0.8843537414966018,1
0.25993602749984046,0.44952311702446496,0.7028981607913128,0.5049496462823955,0.610459472126538,0.8843537414965912,1
0.2687716884257507,0.45058832238788993,0.706212747198449,0.4212097888031244,0.6104594721265368,0.8843537414965859,1
0.26130348823526817,0.4497333092302895,0.7054872019064113,0.49856741703306456,0.6104594721265364,0.8911564625850108,1
0.2670478105930022,0.44997394215415276,0.7049238498558914,0.5421287467833472,0.6100399526729618,0.8911564625850144,1
0.26211553808627663,0.44708588609533384,0.7044715577833083,0.4387721148869112,0.608782377560954,0.8911564625850357,1
0.26918832756628863,0.4496309811867043,0.707432630538761,0.46582320967407903,0.6092015692649553,0.8911564625850197,1
0.26524566365197444,0.4470517992077923,0.7054523714810668,0.5423238329730901,0.6079436664033755,0.8911564625850268,1
0.26808109401073377,0.44703244272474824,0.706871966314215,0.4544736053967072,0.6075244746993718,0.8911564625850286,1
0.2637892855416981,0.44672821536899066,0.7048512552578722,0.4372966168342326,0.6041702855682041,0.8911564625850339,1
0.26830829968631664,0.4509957469099527,0.7075720030601036,0.5323256406818561,0.6054278606802108,0.891156462585025,1
0.26404226588997437,0.4472920260265814,0.7038830836163074,0.5204946480554272,0.604170285568205,0.8843537414965983,1
0.26594203698741725,0.45056172953862306,0.704124079806638,0.4158187712318132,0.6045894772722067,0.8843537414965983,1
0.2610613178296899,0.4471776647986613,0.7033429326898449,0.4637626714660047,0.6024931910026179,0.8843537414965805,1
0.2655271855841256,0.451839182362417,0.7053750384316803,0.5624216050930849,0.6029123827066201,0.884353741496593,1
0.26054581557508993,0.448282666894739,0.7023224008770981,0.5057594785077689,0.5991390018714509,0.891156462585041,1
0.26699599686126874,0.45063309701840176,0.703704247335213,0.41936564639472385,0.6037510938641995,0.891156462585025,1
0.26292677620946503,0.4487775329567944,0.702257082211258,0.4672199375864711,0.6037510938642003,0.891156462585025,1
0.2655277578861631,0.45155832962551584,0.7051150894742926,0.5592083360141545,0.6024931910026179,0.8911564625850215,1
0.2613777741101512,0.44846054621091125,0.7028819111526716,0.4664058673811156,0.6020739992986162,0.8911564625850179,1
0.26560193247917985,0.45202240371049435,0.704672860174256,0.44044764927099933,0.5999773852794557,0.891156462585041,1
0.25973693685752,0.4471231253229379,0.702398829783047,0.5368803695297044,0.6012352881410372,0.8911564625850321,1
0.2630464642089817,0.4535712544119127,0.6992383329191145,0.5028285008352948,0.5991390018714504,0.8911564625850321,1
0.25761709708756764,0.4552873359647371,0.6980986038862318,0.4289175283310491,0.6003969047330331,0.8911564625850357,1
0.261975208348179,0.45912952478543156,0.6958756142208259,0.5398050862776442,0.6008160964370337,0.8911564625850197,1
0.2581254100999858,0.46246868855879686,0.7003548152280434,0.48607789174406046,0.6016544798450401,0.8911564625850126,1
0.26601940627848863,0.46522676382312395,0.7050934417345365,0.4416624907167396,0.6012352881410379,0.8911564625850392,1
0.25965891198270874,0.46328861213071826,0.6997315561935274,0.572621627188081,0.5999773852794554,0.8911564625850286,1
0.2639949647206494,0.46655631651556634,0.7025835369696213,0.47872162232801935,0.5995581935754526,0.8911564625850286,1
0.25749779752243174,0.4661728940659223,0.6983598950061092,0.4297035146569405,0.5907535290435286,0.8911564625850286,1
0.2607765943144754,0.46756073676650667,0.7009315678412379,0.5523080746115592,0.5957848127402818,0.8911564625850286,1
0.25802852421528477,0.46580252643715286,0.7001924924783589,0.48298075777005534,0.5932693347666911,0.8979591836734588,1
0.260463060554847,0.4633938523847793,0.6974131925369088,0.43127894549780604,0.5974619073058665,0.8979591836734748,1
0.254996299909932,0.45958033362082623,0.6951264208927956,0.5604305594208766,0.5936881987211227,0.897959183673473,1
0.2586511150497409,0.4602449905695072,0.6943231358106154,0.5064241262988649,0.5970427156018632,0.8979591836734659,1
0.2565072498409622,0.45533160791972616,0.6940670811860948,0.425645924964654,0.596204004444284,0.8911564625850268,1
0.2604183988079596,0.45898268446480883,0.6952916646393694,0.5469598139393558,0.5962040044442842,0.8911564625850339,1
0.2559657907925035,0.4570765541808849,0.6923565870089831,0.5015672484360856,0.5957848127402814,0.8911564625850357,1
0.2578973369467561,0.4578568973780778,0.693663574415393,0.4382984726865008,0.5945269098787014,0.8911564625850286,1
0.2564265991282453,0.4569858954690228,0.692669754330844,0.5565298616550978,0.5945269098787,0.8843537414965876,1
0.25711785294331313,0.4598393973579831,0.6931490690560727,0.4794744689894155,0.5928498153131156,0.884353741496593,1
0.252502534538378,0.45687481585230133,0.6917501482909907,0.42158250916431494,0.593688198721122,0.8843537414966054,1
0.25720496794041015,0.460030012384868,0.6920113638989949,0.5547770731323559,0.5920111041555376,0.884353741496593,1
0.2525712195489135,0.4566672649217866,0.6884721520041701,0.5027892856740271,0.5936881987211202,0.8911564625850126,1
0.25488419944252516,0.4602538347517934,0.6886977409742829,0.4277899155984234,0.5924306236091137,0.8911564625850339,1
0.2506989178106922,0.456421174300316,0.6873317933337943,0.538611280097291,0.5920111041555371,0.8911564625850286,1
0.2532450222181287,0.46053231429439595,0.6880706352500388,0.5490041157181477,0.5920111041555365,0.8911564625850321,1
0.2557298553074451,0.4560923216570922,0.687370139244369,0.42763302011028714,0.5903343373395264,0.884353741496593,1
0.25597987160775204,0.46095048562734325,0.6880290791099639,0.47797378497421933,0.5924306236091126,0.8843537414965876,1
0.25272217781889983,0.45546739098089306,0.6875893797293295,0.5361557102459407,0.5899148178859497,0.8843537414965983,1
0.25728837986796627,0.46263571882798094,0.6925383719638515,0.4491822294100164,0.5907535290435266,0.8843537414965876,1
0.2569022695467771,0.45764025794381485,0.6943879074169514,0.47594737349474825,0.5873993399123596,0.8911564625850179,1
0.25494961325976306,0.46498163083323985,0.6906872019211325,0.5308290860235401,0.5899148178859497,0.8911564625850268,1
0.24902921642562725,0.46583033036444954,0.6872209135485673,0.4510426119068396,0.5873993399123598,0.8911564625850268,1
0.25721567026118375,0.4680071546523249,0.6929280632579345,0.48167982117756186,0.5894956261819471,0.8911564625850215,1
0.2581025555379687,0.4608665703599068,0.6938498393288894,0.5312800533089231,0.5878185316163631,0.8979591836734553,1
0.25656638907422047,0.46952095007547134,0.6926394694550151,0.4416058783615523,0.5865606287547804,0.8979591836734659,1
0.25846394312611387,0.4622540643637412,0.694807195955933,0.4523669123578157,0.5865606287547813,0.8979591836734588,1
0.2569875847343325,0.47145060582630294,0.6913376060833835,0.5359592768984215,0.5853030536427717,0.8979591836734517,1
0.2553707923555364,0.46145960231573385,0.693876100032976,0.47627382292536724,0.586980148208357,0.8843537414965947,1
0.25758641515713,0.472649671316392,0.6933475282042667,0.4438602660940751,0.5844643424851952,0.8843537414965947,1
0.2557445053396489,0.45987585707994694,0.6948237167929463,0.5227342752069005,0.5853030536427737,0.8843537414965947,1
0.256897580337318,0.47476667159726255,0.6897691353115691,0.486790070773002,0.5844643424851947,0.8843537414965947,1
0.25372917222686653,0.4569293175749382,0.6929559700520944,0.4455563642105236,0.5827872479196092,0.891156462585025,1
0.2607959925232002,0.4790949084715378,0.6853871147659649,0.5179810575371929,0.5815293450580286,0.8911564625850392,1
0.2284121661134002,0.45105532297114265,0.7000521594093377,0.4813352039387968,0.5832064396236136,0.8911564625850446,1
0.23853955484577039,0.5360534473586737,0.7437006664220849,0.44424001743212443,0.5827872479196101,0.8911564625850286,1
0.5878204448803042,0.2968272871471552,0.774392994555708,0.5224259236945173,0.5832064396236107,0.8911564625850144,1
0.4711833429294678,0.25235865240449734,0.8690877366964349,0.4752527019041721,0.5920111041555371,0.8911564625850197,1
0.42496434435157204,0.3160504065485774,0.8122205836333096,0.4474322823196552,0.6062665718377902,0.8911564625850321,1
0.44257116861520773,0.28113506690962836,0.8100390447941892,0.5899338740476574,0.6092015692649553,0.8911564625850286,1
0.4079860227893129,0.29500526063521804,0.7848273283847654,0.5751788838484255,0.6041702855682032,0.8911564625850286,1
0.43903475373494705,0.32424468914955784,0.8340354131541572,0.5741152306461466,0.6104594721265368,0.8911564625850215,1
0.3726749747088449,0.2854478488560407,0.7720747168154634,0.466898753134012,0.6096207609689579,0.8911564625850179,1
0.3573176792997741,0.2561213312304076,0.7223576594475339,0.42473160914189995,0.6083628581073768,0.8911564625850215,1
0.38921840106011185,0.2421735166462837,0.7390016060482517,0.4433438082073595,0.6083628581073768,0.8911564625850215,1
0.29812112353255793,0.2700422909397882,0.6338773555131162,0.4043875121665255,0.6071049552457946,0.8911564625850215,1
0.2176112112065529,0.3181286255184215,0.4216522560665509,0.400193133233329,0.5962040044442845,0.8911564625850357,1
0.32232591994208104,0.29613963979702995,0.3194871648190304,0.5831078097778338,0.5769175808148501,0.8911564625850197,1
0.334482853968814,0.2996040967409631,0.311981180914361,0.48818547278206015,0.5601463074094333,0.8979591836734606,1
0.3947289746535071,0.24564774616671642,0.27950206566568336,0.3802493770507374,0.5589182297590067,0.8979591836734784,1
0.4343162855266902,0.25095244725605814,0.2995169087701687,0.38333928201636014,0.5538869460622522,0.8979591836734624,1
0.249327813057874,0.30891002705321047,0.38881997962437254,0.5486793798364761,0.5509519486350873,0.8979591836734606,1
0.3097919712720638,0.2938730613922266,0.3397646007171127,0.4852099118842736,0.568980797152512,0.8911564625850286,1
0.332074490376071,0.24776075474121073,0.3586786725118194,0.4909800318285826,0.5698191805605171,0.8911564625850215,1
0.21006511491560165,0.289347614259181,0.48274465116023,0.4393291545191579,0.5668845108829237,0.8911564625850179,1
0.3098924883928339,0.27881112930722074,0.6928473243098219,0.5774920193905801,0.571077083422098,0.8911564625850215,1
0.3031085524027416,0.24472526090594637,0.6454622101837952,0.5738219346797547,0.6016839773066205,0.8979591836734695,1
0.39267692567360785,0.30772997567110166,0.7784150471716453,0.571042560801335,0.6092310667265348,0.8979591836734606,1
0.3367265376259674,0.31149971518041203,0.7617284166032934,0.40751032221289535,0.6092310667265359,0.8979591836734553,1
0.33279538292720284,0.28713905261483497,0.724206699093415,0.5667034636404826,0.6109081612921203,0.8979591836734624,1
0.3248212176941639,0.30127456729479607,0.730358419395174,0.6827317569764816,0.6092310667265364,0.884353741496593,1
0.3214737202264123,0.2945688223728682,0.7129415939726261,0.500419231888311,0.60629606929937,0.8843537414965947,1
0.2925721354336266,0.3106149831319092,0.7042325339834166,0.42884377750752495,0.6067155887529463,0.8843537414965912,1
0.2906791023455465,0.30607835737000544,0.6868639802956409,0.399647116426681,0.6062960692993691,0.8843537414966018,1
0.2802216932332102,0.3182638166607587,0.6845381711048412,0.4141304692295246,0.6054576858913634,0.8979591836734624,1
0.28224265488174094,0.31402787272911514,0.6780627066675354,0.5266026133131211,0.6021034967601964,0.8979591836734695,1
0.2753485242631578,0.32003341424778065,0.6794597294651576,0.5396428172934111,0.6021034967601948,0.8979591836734517,1
0.2773712970900043,0.31293440361908165,0.678077260316784,0.4513042188416818,0.6016839773066194,0.8979591836734677,1
0.2775914740135703,0.31801406894707085,0.6784832477056228,0.5280884473534742,0.6016839773066192,0.8911564625850179,1
0.2791337635780181,0.3130927485205651,0.6783345914274762,0.4669803498246335,0.6008455938986146,0.891156462585025,1
0.2760513509389845,0.3192613507331262,0.6807791654967049,0.4664977775617091,0.6008455938986128,0.891156462585025,1
0.27785082496216884,0.3144506155265101,0.6789554814937938,0.5112158811472068,0.6000068827410356,0.8911564625850321,1
0.27626571639845365,0.3197581753034385,0.6807931848547739,0.4529153773619958,0.6000068827410348,0.8843537414965841,1
0.28045252868713577,0.31456706708698434,0.681406035335773,0.49983454177763165,0.6008455938986139,0.8843537414965983,1
0.2761123277234786,0.3196329584460881,0.681386676421336,0.5077625701395898,0.5995876910370317,0.8843537414965876,1
0.28157774942938496,0.31389506355094554,0.6821889040927612,0.43622262009367774,0.6004264021946106,0.8843537414965841,1
0.27953470966095983,0.3157084923851967,0.6818458665637351,0.5151711312254419,0.5974914047674431,0.8911564625850126,1
0.2808656941248874,0.30997060797855985,0.6807432746826428,0.5065868964856818,0.597491404767444,0.8911564625850215,1
0.2791746942640835,0.31507538329502294,0.6796240771893174,0.43804315295727275,0.5916214099131147,0.8911564625850286,1
0.27879516805247373,0.3091178828067558,0.677639742288598,0.49856255571919134,0.5945564073402789,0.8911564625850179,1
0.2763160765446403,0.3150420824959105,0.6793106337756176,0.5201354193827676,0.5945564073402794,0.8979591836734695,1
0.27918827367301613,0.30968694168130084,0.6800970471176448,0.44174883227659223,0.5945564073402791,0.8979591836734659,1
0.27688598733223424,0.3171243110731214,0.6813221819175935,0.4835833893345615,0.5941372156362767,0.8979591836734624,1
0.2803382212922829,0.3100388216991894,0.6802897982506964,0.5277718921136169,0.5928793127746965,0.8979591836734695,1
0.2770690074198555,0.31476016449003674,0.6775506043494604,0.4548777352466188,0.59581431020186,0.8911564625850286,1
0.2808975699647601,0.3122281391625971,0.6793632428810016,0.48361668087631876,0.5937180239322737,0.8911564625850321,1
0.27666578540713516,0.31416055266414167,0.6791808818164573,0.548096419721121,0.593298832228272,0.8911564625850286,1
0.2799065133582893,0.31089523428833754,0.6794140184838272,0.4617441098285084,0.5920409293666895,0.8911564625850286,1
0.2767253045582023,0.3139611619540568,0.6811415059829733,0.4646037050073449,0.5899443153475288,0.8911564625850286,1
0.2804092630753847,0.3081228038450701,0.679876938842987,0.503325950146087,0.591202218209111,0.8911564625850339,1
0.27775658768661393,0.31208368322541175,0.680058505758554,0.41445541620781284,0.5907830265051066,0.8911564625850286,1
0.28035762371171014,0.3077762598192986,0.6804153890113167,0.4896107933444822,0.5907830265051077,0.891156462585025,1
0.27900642758014194,0.3126209692965158,0.6791990314353507,0.5490985066846266,0.5891059319395231,0.8911564625850215,1
0.281960055899648,0.30958784394702166,0.6791465001443999,0.4623662304706955,0.5907830265051086,0.8911564625850215,1
0.2776992678064676,0.3132973616104918,0.6795028743110879,0.490172887754819,0.5882672207819466,0.8911564625850357,1
0.280208769067799,0.30943237384260996,0.6799213708875776,0.5550892137396793,0.5891059319395242,0.8911564625850286,1
0.27799382714896603,0.3109634445771223,0.6792517275585008,0.4559122282044338,0.5903638348011067,0.8911564625850286,1
0.2791673378437308,0.3075733402060686,0.6800415762743369,0.4750894907572026,0.5874288373739398,0.8911564625850339,1
0.27738731325123533,0.3101204573003319,0.6776338316556955,0.5389477188335583,0.5874288373739387,0.8911564625850357,1
0.27940108504342664,0.3074829036853144,0.6794026329958969,0.4615033405259841,0.5853325511043521,0.8911564625850392,1
0.2785605320686385,0.3101753768339012,0.6768775718386726,0.4802462415221897,0.58742883737394,0.891156462585041,1
0.2791602291248364,0.3084779750434719,0.6777227464932081,0.5296325709116272,0.5849130316507778,0.8911564625850339,1
0.27737816140757166,0.31022582967772244,0.6741397435453031,0.4423121526877276,0.5861709345123576,0.8911564625850339,1
0.27957780593625114,0.307344765734444,0.6776069308312722,0.5005928333344138,0.5853325511043521,0.8911564625850215,1
0.27768352019978004,0.31062032960275276,0.6745523049790108,0.5316173256523791,0.5861709345123576,0.8911564625850357,1
0.27837561535932,0.3107143678495354,0.6780515284395051,0.43669329288175923,0.5857517428083543,0.8911564625850286,1
0.27804973630920615,0.31096038757348776,0.6761078235554014,0.49795637829182027,0.5853325511043521,0.8911564625850286,1
0.2786314144415949,0.309443091512752,0.6756570918936973,0.5559109743412552,0.5844938399467732,0.891156462585025,1
0.27810744942639376,0.31534085253366584,0.6765854284005438,0.45692193160030403,0.583236264834766,0.8843537414966018,1
0.27838136184725704,0.31111554678216014,0.6772220365315693,0.4838472287935252,0.583655128789194,0.8843537414965841,1
0.27623817111956983,0.3118391386078295,0.6774919963694918,0.5204456759462773,0.5803012674075998,0.884353741496593,1
0.28424017525702316,0.30809713164733055,0.681688008411119,0.47330094677125123,0.5832362648347655,0.8843537414965947,1
0.2839183666204439,0.3066866641649487,0.6807988690588531,0.44769194880773977,0.5807204591116024,0.8843537414965983,1
0.2839463040562308,0.3031405432148672,0.6823797295566533,0.5146316645289603,0.5836551287891956,0.8843537414965947,1
0.28504700535570326,0.3015781837706567,0.6778795550567323,0.5264481434707421,0.583236264834766,0.8843537414965983,1
0.28521115558652965,0.30022402362678924,0.68112280556274,0.4579952579965856,0.5832362648347651,0.8843537414965752,1
0.284006462467598,0.30032126328574116,0.6736568405496264,0.4887413608184711,0.5823975536771868,0.8979591836734659,1
0.2797889663786358,0.30234081318592615,0.680377095377155,0.5225948113653791,0.580720459111604,0.8979591836734624,1
0.28311236483506985,0.3016613804200762,0.6723154077764378,0.46279551725888807,0.5815591702691805,0.8979591836734802,1
0.2750060846238386,0.31285821766025085,0.6868904465726255,0.46278628306161,0.5803012674075998,0.8979591836734802,1
0.42221278326846445,0.33557603646719775,0.7666343272642554,0.5045759738433807,0.5811396508156035,0.8979591836734482,1
0.4363819010379371,0.4005512937934157,0.7808599150920361,0.4751748724182842,0.5849130316507765,0.8979591836734695,1
0.22142212370865444,0.6072201558390731,0.7618853773523238,0.4691374415059282,0.587009645669937,0.8979591836734695,1
0.28338856905245835,0.636284178232456,0.7006494115661794,0.5431954980798621,0.5857517428083556,0.8979591836734588,1
0.27319257187886314,0.6084119073871388,0.693132451410744,0.5466618362279428,0.5823975536771866,0.8979591836734606,1
0.27601276941179675,0.6152287324863293,0.6886323425847615,0.4459088614267837,0.5815591702691807,0.8979591836734624,1
0.27073128350974485,0.6160146983532788,0.6905687059082081,0.4312383913461434,0.5815591702691805,0.8979591836734553,1
0.27646048379230326,0.6155533262418112,0.687261513468569,0.4283798771147212,0.5815591702691798,0.8979591836734517,1
0.27674403509279843,0.6204600823129152,0.6909628338136632,0.4187448722095429,0.5811396508156048,0.8911564625850286,1
0.2804647602585576,0.6244030439123823,0.6908641533726737,0.5269262382723585,0.5844938399467732,0.8911564625850215,1
0.2787210748608949,0.6251187773086311,0.6932730350025001,0.5196891616008015,0.5819780342236105,0.8911564625850286,1
0.2818142500433056,0.6239354318134244,0.6936239343979164,0.4403666821466599,0.5828167453811888,0.8911564625850268,1
0.27846632821095985,0.625384631437231,0.6942935716757738,0.523875617559782,0.5803012674075989,0.8911564625850215,1
0.28165447193634585,0.6237484652741514,0.6927819932706741,0.5405909957935578,0.5823975536771884,0.8911564625850392,1
0.2788572746366206,0.625538669365765,0.694284853026726,0.44948214446311163,0.5819780342236114,0.8911564625850286,1
0.2826524453417938,0.6235977208586784,0.6935526252904294,0.50804354840451,0.5803012674076007,0.8911564625850357,1
0.2798503186423895,0.6257249026926748,0.6943875839765662,0.5519009847321674,0.5807204591116018,0.8979591836734624,1
0.2839563063177788,0.6232662244702973,0.6941661140664971,0.4654024439000788,0.5794625562500211,0.8979591836734535,1
0.2845085288353877,0.6281995687532846,0.6963063113104465,0.4898970346783257,0.579462556250022,0.8979591836734606,1
0.2897095091780939,0.6285262324568501,0.6984346562006165,0.5366844207692704,0.5782049811380119,0.8979591836734517,1
0.286103593418627,0.6278053263678682,0.7000784904084034,0.458889134744763,0.5794625562500206,0.9047619047618998,1
0.28938616166319486,0.630685685457659,0.7002096076220561,0.5015439275922523,0.5798817479540237,0.9047619047619051,1
0.28624857007791094,0.630516696458638,0.6992266889134521,0.5390174254670839,0.5790433645460167,0.904761904761882,1
0.28930186198195484,0.6296464814480911,0.6983451276980843,0.4575103253048267,0.5765275588228553,0.9047619047618944,1
0.2863044968062979,0.6339767009107735,0.6983850956520551,0.48787587321156933,0.5782049811380121,0.8911564625850357,1
0.2892618286815649,0.6318780638733346,0.6993076525418986,0.5358198523337316,0.5782049811380126,0.8911564625850215,1
0.28633448621244517,0.6339717862605491,0.6981633303500014,0.46492327063975364,0.5761083671188505,0.8911564625850215,1
0.2892387664706453,0.6318235395463427,0.6991523054368316,0.4783596892622707,0.5782049811380121,0.891156462585025,1
0.28635244284311345,0.6340903124491364,0.6962486028340195,0.5169014085531147,0.5761083671188523,0.9047619047618998,1
0.2892247728361831,0.6315145991147277,0.6968586400902372,0.47372194697460895,0.5782049811380119,0.9047619047618944,1
0.28636323154997756,0.6331798969281953,0.6972993902472645,0.4568593805194624,0.5740120808492639,0.9047619047618856,1
0.28921666223084375,0.6315131921327961,0.6973672076100013,0.5167450443585436,0.5769470782764317,0.9047619047619087,1
0.2863690451166039,0.6319679899948927,0.6990772752563743,0.48136034924210325,0.5765275588228544,0.8979591836734659,1
0.28921285980740696,0.6323025265229499,0.7007018060627856,0.46254220514747857,0.576527558822856,0.8979591836734677,1
0.2863710587733559,0.6337863249091563,0.6996332811615688,0.513151211013645,0.5744312725532672,0.8979591836734677,1
0.2892124551089147,0.6315378018267042,0.7006402429925445,0.48117358575305763,0.5744312725532676,0.8979591836734624,1
0.28637000655955336,0.6330144051465347,0.6996199336912626,0.4582714140226196,0.5744312725532676,0.8979591836734695,1
0.28921482859453695,0.6323532774767092,0.7006820591050811,0.5242149207778825,0.5731733696916863,0.8979591836734624,1
0.2863664407048452,0.6335889392176284,0.6995575336102934,0.48229144164982174,0.5673037025869281,0.8979591836734802,1
0.2892194553482178,0.6321934642638898,0.7007723361536169,0.4480544672356061,0.5714962751261019,0.8979591836734659,1
0.28636089725354597,0.633674395868419,0.6993942112902758,0.5032171318390887,0.5723349862836808,0.8911564625850286,1
0.28922574614464236,0.6321371481788638,0.7001098921632587,0.5120669565512748,0.5735928891452624,0.8911564625850339,1
0.28635407020244075,0.6337157420557267,0.699131121630919,0.4451396865381915,0.5731733696916852,0.891156462585025,1
0.2892328329190478,0.6321046470305947,0.7002318034265986,0.48673221931751903,0.5727541779876837,0.8911564625850357,1
0.2863471014302583,0.6337425617635144,0.6975881136507569,0.5210798769359895,0.5723349862836793,0.8843537414965912,1
0.28923914818079854,0.6320816763201508,0.70037461285085,0.4633945745189136,0.5706578917180971,0.8843537414965983,1
0.28634222697975675,0.633762832820092,0.6996057679947929,0.4784093596352432,0.5719157945796778,0.8843537414965983,1
0.28924137792184346,0.6320633417813597,0.6991066598560454,0.5261638741159343,0.5731733696916856,0.8843537414965805,1
0.28634457043356876,0.6337797577433629,0.6996714924107239,0.46028877044102967,0.5710770834221011,0.8843537414966107,1
0.28923118468200604,0.6320474551486526,0.7006806175492226,0.48964831648936674,0.5735928891452615,0.8843537414965947,1
0.2863686400801546,0.6337948660579036,0.6995520322089004,0.5319518669990958,0.5719157945796782,0.8843537414965947,1
0.28918081616432467,0.6320329540271556,0.7007524983986803,0.4529469341771435,0.5719157945796771,0.8843537414965734,1
0.2864759318051542,0.6338088491436371,0.6995115146020436,0.470986917884014,0.5714962751261023,0.8979591836734677,1
0.28891161365088447,0.6320194897464461,0.7007334993651404,0.5409130828854473,0.5719157945796773,0.8979591836734588,1
0.2878418548431305,0.6338216767640621,0.699946619903556,0.4626221285192911,0.5710770834220995,0.8979591836734535,1
0.2907215188261202,0.6320075925815761,0.7013429631064755,0.4656777975848227,0.5693999888565136,0.8979591836734464,1
0.2857791355718071,0.633832053347732,0.6991176012523976,0.5357920915540635,0.5685616054485096,0.897959183673473,1
0.29094173803939727,0.6319998787622965,0.7011465165078373,0.4756774351856528,0.5685616054485079,0.8979591836734588,1
0.28580163190339847,0.6338348162069061,0.6991098689473625,0.45933854650310063,0.5689807971525129,0.8979591836734624,1
0.2910268557254101,0.6320070896035044,0.7011982432706815,0.5371638557179649,0.5689807971525116,0.8979591836734606,1
0.2855957696620126,0.633804572491343,0.6990381082643777,0.48010723382596315,0.5693999888565149,0.8843537414965841,1
0.28993254677087554,0.632107775996042,0.7012830341624198,0.46562856176698136,0.5706578917180967,0.8843537414965876,1
0.28565779893116183,0.6331523325507162,0.6989428195709013,0.5294109644545473,0.5689807971525112,0.8843537414965859,1
0.2899311235430605,0.6313598381204678,0.7013878418051862,0.47512552960135435,0.5693999888565151,0.8843537414965912,1
0.2856518845369568,0.6341956955893743,0.6988290061377198,0.4556246357931528,0.5693999888565142,0.8843537414965947,1
0.2898858092797093,0.631687104160083,0.7015097843802327,0.5389133859214585,0.5693999888565162,0.8843537414966001,1
0.2861342482458987,0.6341422758326491,0.6987017788805943,0.4836029138547471,0.5673037025869276,0.8843537414965912,1
0.2910272366193952,0.6316809891792414,0.7016317524887421,0.4460680549892749,0.5660457997253461,0.8843537414965947,1
0.2850049429750139,0.6341761482119197,0.6986412485970015,0.5191452100763407,0.5677228942909294,0.8911564625850197,1
0.2920960605800841,0.6316280213486588,0.701939969475902,0.5163916485564041,0.5677228942909305,0.8911564625850321,1
0.28585969170795533,0.634246235835648,0.6980150896591272,0.44061533319752566,0.5677228942909296,0.8911564625850215,1
0.2906232221816124,0.6315393812625388,0.7023115149183253,0.49016178828666757,0.5673037025869265,0.891156462585025,1
0.28474791866267835,0.6343584352960845,0.6978243525892878,0.52833731654404,0.5673037025869276,0.8911564625850339,1
0.29103235417575046,0.6303520908135518,0.7026382040032921,0.46406056935806483,0.5660457997253456,0.8911564625850268,1
0.28432857201590334,0.6345875539555413,0.6974049244055742,0.4659266319578051,0.566045799725347,0.8911564625850286,1
0.2915202290305877,0.6306162423191664,0.7031605276640758,0.5376335647910367,0.5664649914293483,0.8911564625850321,1
0.28373644512889706,0.6338419011294866,0.6967494502928138,0.4729800912034294,0.5664649914293476,0.8979591836734535,1
0.292260473495182,0.6303229125722694,0.7040038297912715,0.45537193372695156,0.5656266080213423,0.8979591836734606,1
0.2827776184920958,0.6349529823403642,0.696388013770187,0.5167745035426756,0.5631108022981792,0.8979591836734624,1
0.29484942684077586,0.6312361918486232,0.7058924131471787,0.5124067036271569,0.5652074163173393,0.8979591836734588,1
