wrist_ACC_1,wrist_ACC_2,wrist_ACC_3,wrist_BVP_1,wrist_EDA_1,wrist_TEMP_1,label
0.8966780377189826,0.5859123969484866,0.48629765284067306,0.5191766227858176,0.28200763297051135,0.15853658536586046,1
0.8418982879594392,0.6597212153321959,0.3540272463799086,0.52202179195682,0.28026614422702656,0.15853658536586757,1
0.8569186779424629,0.5751168016724885,0.4979799954801989,0.6033841880946345,0.2830793828095185,0.15853658536587112,1
0.8908365911126189,0.5368850477691415,0.5533646483270982,0.5500020172515663,0.2821416017003879,0.1646341463415002,1
0.878047724088189,0.4802690147462392,0.5486653303274586,0.5238506339070044,0.28307938280951844,0.16463414634148243,1
0.8588727495739134,0.49826098044072475,0.6123507938540917,0.5695804279159368,0.28267747661989084,0.16463414634147533,1
0.5965254814928821,0.5458478023928138,0.8544230573706542,0.536226202390587,0.28120382059125587,0.16463414634147355,1
0.49689015847564416,0.505820539604495,0.9372389016624514,0.46727540681759233,0.27959630057764784,0.1585365853658658,1
0.48025541231620483,0.46271265473543804,0.9192788789959101,0.5319328012577068,0.27437172960229195,0.1585365853658658,1
0.44768887562007603,0.47325954009423815,0.932823210654649,0.4685448644732667,0.27343405323806336,0.1585365853658658,1
0.47124786361741616,0.4589866829498739,0.9218444149123122,0.4771740665849874,0.27182642847955263,0.15853658536586046,1
0.45341018613645667,0.48207182123628983,0.9315495608001516,0.6139736711426935,0.27088875211532365,0.15853658536587645,1
0.46370468299799145,0.44785146324639835,0.9214014428473141,0.5839769426632075,0.269147158626937,0.15853658536586934,1
0.3970108935458733,0.5117351283212569,0.9669278970593411,0.5486709859353661,0.2690131898970617,0.15853658536587112,1
0.7050844566037711,0.470732663878748,0.7110422190044157,0.5367600701417394,0.2684774197224596,0.15853658536587112,1
0.897828846147366,0.4029466476724195,0.5889112823038692,0.5131027153195568,0.2694150960866887,0.16463414634146467,1
0.7749569695299228,0.4704462052729334,0.686431921308861,0.5312228057006251,0.2647264000308372,0.16463414634146822,1
0.7608969866913735,0.3519525931352593,0.7525184748518718,0.5159296596152746,0.28080201914652975,0.16463414634147,1
0.8613992118352045,0.4764970418040741,0.5396996424610404,0.4945788862971321,0.2817396955107596,0.16463414634148243,1
0.8497104670598143,0.5205361197797698,0.5662341886002841,0.6546822277653184,0.2771849681847837,0.15853658536585336,1
0.8396897609409191,0.5634116126762336,0.5975066863534865,0.5863622914406189,0.27343405323806375,0.15853658536587112,1
0.8487034972844828,0.5274837751662951,0.6139761900560821,0.40496253905747126,0.2708887521153239,0.15853658536586757,1
0.8266199099308782,0.5206517927313811,0.6315515341592541,0.5850222931453825,0.26887932591208713,0.15853658536585513,1
0.8354640727894612,0.51808476079073,0.6306595714032278,0.5818577246732382,0.2678075760730795,0.16463414634146645,1
0.8262926208149423,0.5180919361905784,0.636386508385336,0.4991175465330528,0.2678075760730801,0.16463414634147178,1
0.8372690295175413,0.5165318250284278,0.6260576651592125,0.5039482660151773,0.26620005605947217,0.16463414634148243,1
0.8283757077124048,0.5209694579046665,0.6325362082575783,0.5315929439443343,0.26633402478934814,0.16463414634146112,1
0.8400737790015835,0.5160426340925551,0.6217077417866477,0.5092053876242705,0.2659321185997202,0.17073170731707776,1
0.820628736971078,0.534833024253802,0.6411266456936466,0.5385438750573655,0.2651283062204642,0.17073170731708665,1
0.8085633473806515,0.5193190058502395,0.6786486563418419,0.541103751606354,0.2641906298562356,0.17073170731709553,1
0.8132654407021201,0.5241521997111409,0.6750972264199377,0.5161253725849779,0.2620472349231237,0.170731707317076,1
0.8110417281863295,0.5182699631362565,0.6767800268278961,0.5309181729187327,0.2599037352451095,0.17073170731708487,1
0.8118770152686907,0.5218494188612087,0.6758134962161225,0.5299730433413505,0.2588320901510042,0.17073170731707066,1
0.8104096231361286,0.5168379600088026,0.6742645541225001,0.5229244588067111,0.25843018396137707,0.17073170731708487,1
0.8135436873413775,0.5218770443824543,0.6721562870924711,0.5386637116965123,0.25709049666261796,0.17073170731707776,1
0.8174260125851686,0.517346403336944,0.6658327101857947,0.5398704237419188,0.2569566326776442,0.17073170731707954,1
0.8108019612400288,0.5214347917729529,0.6714529062369032,0.5288714159216679,0.2558848828386376,0.17073170731708487,1
0.8125447016843896,0.5162949685283094,0.67055886736445,0.538209860715118,0.25575091410876105,0.17073170731707066,1
0.8107941380919872,0.5206848647157363,0.6755792491615427,0.5552919915432911,0.25508107045938205,0.17073170731708132,1
0.8124767165285829,0.5164838722424793,0.6701562360953347,0.514884962199355,0.25414339409515285,0.18292682926829507,1
0.8108492667382771,0.5205874047471969,0.6785431212529762,0.5248168541543042,0.2541433940951523,0.18292682926829684,1
0.8124291743464135,0.5165240644144758,0.67750246567526,0.5607228526977781,0.25333958171589743,0.18292682926829684,1
0.8108931559065122,0.5206197956979187,0.67874107358486,0.530660323356762,0.2529376755262699,0.18292682926829862,1
0.8123874370842403,0.516188889364263,0.6733549721405976,0.5201411138974968,0.2518660304321651,0.17682926829269086,1
0.8109324014106862,0.5208918789288665,0.6766971738211807,0.5510688983751374,0.2518660304321652,0.17682926829269974,1
0.812354343421916,0.5164178122734975,0.6741165775202334,0.5427219245577765,0.24972263549905271,0.17682926829268375,1
0.8109387149414373,0.5209739837419001,0.678613868607942,0.5188417279771729,0.2503923744035305,0.1768292682927015,1
0.8130660697352772,0.5108742915966809,0.6728399490474648,0.5294675632930406,0.24945469803930098,0.1829268292683004,1
0.8112803772360289,0.5149279423585302,0.6791793334825307,0.5556451865113232,0.24999046821390258,0.18292682926829684,1
0.809555436425068,0.5084582106218916,0.6784910169705649,0.5384124171180906,0.2493207293094254,0.1829268292682915,1
0.8078857930313269,0.512734049281252,0.6829574914318981,0.5178338604842396,0.24851691693017003,0.18292682926829862,1
0.8099316468002431,0.5061917557749367,0.6806197899275239,0.5407500657784381,0.24851691693016997,0.18292682926830395,1
0.810406557083047,0.5132507275791993,0.6799138582966271,0.5457593142033875,0.24784707328079014,0.1829268292682915,1
0.8108832403575763,0.5104034854505369,0.6757939256412517,0.5244923960698158,0.24744527183606485,0.18292682926828974,1
0.8085573865800386,0.5118406102574896,0.6804540054568988,0.5324940606408122,0.24677542818668574,0.18292682926830572,1
0.8114023219167277,0.5016319207018101,0.6774133973352634,0.5448020851624458,0.24650749072693384,0.18292682926829507,1
0.8081487240234037,0.5075678652623472,0.686248969891009,0.5482283524889026,0.24597161580743016,0.18292682926829862,1
0.815650822813488,0.5062716605243183,0.6736821779716979,0.5145147049995183,0.2457036783476781,0.18292682926829684,1
0.805904197871499,0.5034887237895566,0.6843941719193232,0.5365502243000343,0.24489997071332575,0.1829268292683075,1
0.8177226896202416,0.503952897053421,0.6736331501624602,0.5436329375158416,0.24516780342817546,0.17682926829269086,1
0.7979069105802234,0.505973138537591,0.6846435659568045,0.5280006997460241,0.24476600198344972,0.1768292682926873,1
0.859008762333338,0.49959284867444786,0.681052779785168,0.5223875984556596,0.2443640957938214,0.17682926829269086,1
0.8523941928116201,0.6135758823706523,0.749614453621145,0.5458634591150963,0.2458376470775544,0.1768292682926944,1
0.5069224567467944,0.7768956314845119,0.6965858619144455,0.5390592309239065,0.24503393944320118,0.18902439024391526,1
0.53911565672398,0.8941712658549639,0.7170836979392634,0.5514272134689229,0.24396218960419397,0.18902439024390638,1
0.32674699536746027,0.9502745262788481,0.642929396324031,0.6039223833417471,0.24155085721133018,0.18902439024391704,1
0.3419385616943376,0.966956063760371,0.6115212241417116,0.5756622775478498,0.23632628623597562,0.18902439024390816,1
0.34115705250573186,0.9529258452553784,0.6498775204510594,0.49231068630497055,0.232173465099627,0.1890243902439117,1
0.3535107524113543,0.943015272051372,0.6671336024862624,0.46846070367500964,0.23337907892360799,0.1890243902439117,1
0.3402161453387018,0.9401492457517372,0.6729062526132685,0.4087603909831668,0.23364701638336044,0.18902439024391526,1
0.3396569731731522,0.9296369913684263,0.6759662236962793,0.5378869703825266,0.2351206724119948,0.18902439024390993,1
0.4181352444918731,0.9356815828029534,0.6929343704088542,0.6207762148913616,0.23619231750609954,0.1951219512195248,1
0.5395144137624847,0.9407548521220672,0.6748183328701933,0.5581031050366034,0.23619231750609937,0.19512195121951592,1
0.49958079653458093,0.9060928095168046,0.736804727433988,0.581036766110883,0.23538860987174626,0.19512195121953013,1
0.37834998517297147,0.8899936114394063,0.7592207975488534,0.44065131439860766,0.23619231750609987,0.19512195121953013,1
0.3328005113402689,0.9132423233819683,0.6852335920845445,0.5594825635506825,0.23565654733149854,0.19512195121952836,1
0.2523165124109392,0.9169095753082771,0.6475433442140248,0.6226658022922007,0.2347187662223666,0.19512195121951414,1
0.2925319481949016,0.9163837447328522,0.6654780990290163,0.507881413940949,0.23538860987174626,0.1951219512195248,1
0.26413668265599344,0.9249938367721816,0.648470180591262,0.4910533732332779,0.23512067241199436,0.1951219512195248,1
0.2946282025609368,0.9277170119427807,0.6573264312282097,0.5683105359495998,0.2348527349522428,0.19512195121951947,1
0.2903339559463606,0.9361955823047627,0.6389616499176203,0.480177534330121,0.22962816397688773,0.19512195121952125,1
0.31170120722130723,0.9397189500417182,0.652853053657003,0.5119562473904272,0.2269488941242725,0.19512195121951592,1
0.296611506038703,0.9420703624774108,0.6361326446744116,0.5386025292746753,0.2261131345498547,0.19512195121951592,1
0.3032883552038796,0.9358521192188625,0.6466330219742309,0.5614721085348487,0.2250414894557498,0.1890243902439117,1
0.29061558324915365,0.9390525233718459,0.6353664557029264,0.5832165354020948,0.22490752072587394,0.1890243902439046,1
0.30185135230243965,0.934756660760023,0.65121242617857,0.5236322899554444,0.2237018021569911,0.1890243902439117,1
0.29541836162142915,0.9335805038834597,0.6475225225637862,0.5032731928721073,0.2237018021569911,0.18902439024390993,1
0.3028425805994618,0.9280305507914903,0.6613462008249433,0.5396877656024647,0.22316603198238905,0.19512195121951947,1
0.3083666465816488,0.9253007916333162,0.6714061621154166,0.5243760227795027,0.22356793817201748,0.19512195121952658,1
0.35153955961143807,0.918646582581264,0.7029932395757316,0.5115414906375716,0.22343396944214133,0.1951219512195248,1
0.42922460231875903,0.906934531754781,0.7368356168048877,0.549499414597705,0.22303206325251368,0.19512195121951947,1
0.5182453590528602,0.9154551593573943,0.7204460431853688,0.5519484649445607,0.22463958326612232,0.19512195121952125,1
0.5573475934232905,0.9179199788798427,0.6996541886946859,0.5094001360076174,0.2275867905784893,0.19512195121951414,1
0.5754075831686737,0.91530559828837,0.7023247098465657,0.5607132886549419,0.2289263731323462,0.19512195121952303,1
0.5504134130665312,0.917329772422848,0.6894107523762054,0.6001038924945844,0.22370180215699115,0.1951219512195248,1
0.6189216016802556,0.916721906702088,0.6932369478729813,0.5910613811362063,0.22370180215699137,0.19512195121953724,1
0.4721189097706268,0.8982121200366213,0.74327375037687,0.5057187881695714,0.22718488438886175,0.19512195121951947,1
0.41107769212087875,0.9773717738434544,0.6103296884534615,0.47205302352467277,0.22785472803824103,0.19512195121950882,1
0.4088989572609885,0.9569342599468158,0.6610037413734934,0.5315255998239161,0.22731885311873734,0.19512195121951414,1
0.37596437278802813,0.9021506818917799,0.7437587660820889,0.5420863738511933,0.22865843567259458,0.20121951219511658,1
0.40531696388743416,0.9213465918284993,0.7169167076066255,0.504076272564152,0.2266490094693583,0.2012195121951308,1
0.4259737208584112,0.9139808938739163,0.73519962889051,0.5406888595798404,0.22758679057848963,0.20121951219511836,1
0.44716864143609086,0.9213743372729482,0.7220175897572276,0.6039451763035029,0.22758679057848963,0.20121951219512724,1
0.4611948426509097,0.9151248834783348,0.7323843362529086,0.5040795818730239,0.2271848843888622,0.20731707317074388,1
0.45375667976085887,0.913619668881996,0.729222413319531,0.5420673563430856,0.2265150407394823,0.20731707317072612,1
0.45862459474652656,0.9098329028154475,0.7352724115169058,0.5547831454157538,0.22624710327973008,0.20731707317073678,1
0.4437420404453395,0.9133023952968004,0.7320489064613188,0.5355618556942481,0.22544339564537724,0.20731707317073678,1
0.44464148650538377,0.909145047543338,0.7298938391569914,0.49141151680943723,0.22490752072587394,0.2012195121951219,1
0.46361049356716855,0.910852577267292,0.7318075984588531,0.4916255231098158,0.22450561453624718,0.2012195121951308,1
0.4845538549610534,0.9001495947340041,0.755947412826967,0.5740788613614729,0.22423767707649372,0.2012195121951077,1
0.478498357069077,0.9039548468032511,0.7363632152221566,0.5395984480053049,0.22289809452263787,0.20121951219512546,1
0.47197647771051127,0.900663396625018,0.7440572057812302,0.4565785802161473,0.22330000071226602,0.20121951219514322,1
0.47368669993563134,0.9044402997848837,0.7425711961924268,0.49365729120839236,0.2234339694421416,0.20121951219513434,1
0.4767657933288019,0.9009128451480543,0.7412639215514653,0.4968062022800485,0.2231660319823897,0.2012195121951308,1
0.47315505913973505,0.9077413614005424,0.7391173010180854,0.49507713822475163,0.2231660319823902,0.20121951219513612,1
0.47389033058688174,0.9045207828676108,0.740017228322736,0.47801192021597794,0.22356793817201748,0.20121951219513612,1
0.47475384273515153,0.908673169796709,0.7370934221066983,0.6168050403417382,0.22571133310512936,0.20121951219511303,1
0.47219582984605396,0.9048776244965244,0.7389732768730682,0.6115509382800682,0.225845301835005,0.201219512195129,1
0.46811501214307283,0.9043085056985898,0.7380293406706895,0.517908721887814,0.2241037083466187,0.20121951219512368,1
0.46238026098128854,0.9008404237209254,0.7471965721932641,0.5241495186656921,0.2231660319823896,0.2012195121951219,1
0.46251375813131385,0.9027192956909655,0.7427531887915098,0.6159456545966837,0.2227641257927619,0.20121951219512013,1
0.4666201624351954,0.9001020392581707,0.7500433420950299,0.5424113577706149,0.22196031341350647,0.201219512195129,1
0.4664486639214118,0.9037422548927823,0.7440741431536091,0.4877597775941897,0.22115660577915336,0.2012195121951379,1
0.47712291030414417,0.9006069514114097,0.7459449738105548,0.5814847650518209,0.22062073085965028,0.2012195121951379,1
0.4716933827175412,0.9029298309185994,0.7443059857724543,0.5902118041706574,0.22008485594014643,0.201219512195129,1
0.4722655019077138,0.8999021025360743,0.7451762960169377,0.530117756589704,0.21820939846678594,0.2012195121951219,1
0.471646681658638,0.9039699746787353,0.7442854904028207,0.5321056339431854,0.21861130465641393,0.2012195121951148,1
0.4699067177802751,0.9002295396859092,0.7462284417143599,0.577162775219317,0.21820939846678583,0.20731707317073855,1
0.47440828376241645,0.9045772300458044,0.7428769950757789,0.5444963267840257,0.21767352354728314,0.20731707317075454,1
0.4635941772674729,0.8996140971117735,0.7482426112266153,0.5056785842384381,0.21740558608753124,0.2073170731707492,1
0.45479934107901193,0.8892186002229837,0.7737651793907458,0.5255566510225522,0.2171376486277793,0.207317073170735,1
0.48168168614837686,0.9398109371153315,0.676876955947081,0.5642676919357444,0.21686971116802692,0.20731707317072967,1
0.4775902609461671,0.9564478193484102,0.6487860643297801,0.525688350255017,0.2174055860875308,0.20731707317074033,1
0.47610374168212716,0.86707742072835,0.800085280478529,0.5091826239740302,0.21673574243815139,0.20731707317074566,1
0.47329483108650655,0.8851657243404281,0.7692790606782511,0.5638853977931919,0.2157980660739226,0.20731707317073145,1
0.4780250092364953,0.8817084792105307,0.7605500106092333,0.5623176932327798,0.21526219115441872,0.20731707317073855,1
0.47694926150385897,0.8888133064187118,0.7588591276287997,0.47559177251148194,0.21472631623491525,0.20731707317072967,1
0.46839707037569855,0.8804657912040452,0.7657668121552681,0.49011299053926066,0.21445837877516377,0.20731707317073678,1
0.45729361886469344,0.8840073637924932,0.7672883403992805,0.5685732542287637,0.21392260860056253,0.207317073170751,1
0.4519441841273194,0.879218343641003,0.7663316331166794,0.5437020230841658,0.21325276495118278,0.2134146341463552,1
0.44989141967123636,0.8821008969267378,0.7666384999379423,0.49666815013581517,0.21298482749143058,0.21341463414634454,1
0.45635841199743993,0.8808459785285356,0.7676933074893418,0.5450007350722008,0.21258292130180337,0.213414634146341,1
0.4381082531508765,0.8857108270713298,0.760550123116196,0.5767249339846147,0.2123149838420509,0.21341463414633388,1
0.4475247422536378,0.8821852028239691,0.766791984359879,0.5351089328892302,0.2117792136674506,0.21341463414635164,1
0.4341730000222407,0.8768201027975151,0.7748637032491212,0.5160924815128601,0.21151127620769858,0.2134146341463552,1
0.45048731208352455,0.8789620106366847,0.7715382580207608,0.5579005930145876,0.21030555763881545,0.21341463414634632,1
0.43234660342929293,0.9095152752983426,0.7373529823714358,0.5347795666868003,0.21204704638229985,0.2134146341463552,1
0.4344907487408726,0.9204558306577562,0.7136686862024446,0.5088742078896406,0.2121810151121757,0.21951219512196118,1
0.4245551339037868,0.9259604569432224,0.7207547928821515,0.5601090116940405,0.21231498384205158,0.2195121951219523,1
0.43663439170222273,0.9133010894527337,0.7236901812943667,0.636535753363076,0.21164514019267208,0.21951219512195053,1
0.40328448650788307,0.9313196904161414,0.7134951567177186,0.4885579564849324,0.21137730747782238,0.2195121951219665,1
0.43187472488324713,0.8218760931016263,0.6798656789630038,0.441639604669336,0.21097540128819503,0.2134146341463552,1
0.6851071494212263,0.5492130027668456,0.9004610023123194,0.5423619911253832,0.2109754012881951,0.21341463414634632,1
0.6132110262938647,0.500426854889766,0.9610039915199187,0.5620462949906988,0.21231498384205116,0.21341463414634632,1
0.6557826771549773,0.4932154786827925,0.8575339727168252,0.505408875476361,0.2128508587615556,0.21341463414636763,1
0.6139040915733895,0.5232752586924583,0.8776119921752539,0.5022820968444759,0.2135207024109346,0.21341463414634987,1
0.5197495805077419,0.5152712690468452,0.9055791890349154,0.44400334532957075,0.21298482749143105,0.21341463414634454,1
0.5118226028555192,0.47366155598051896,0.9267999570774641,0.5629307129733333,0.21419054606031435,0.21341463414635164,1
0.5242597147162481,0.48182441987084457,0.9140282362573886,0.6954317970868812,0.21419054606031357,0.2134146341463321,1
0.5115804100933629,0.4858088305758826,0.9222944474732737,0.47713225581461743,0.21539615988429486,0.21951219512195053,1
0.5080213322995238,0.4619670307749066,0.9146681919073989,0.4250241018842893,0.21807542973691085,0.2195121951219665,1
0.5088811578200605,0.47529477748842086,0.927885857736034,0.5183134716382313,0.2212904697641272,0.21951219512195408,1
0.5019644364316391,0.4778793504776447,0.9226809984787387,0.5834994262922715,0.22115660577915347,0.21951219512196296,1
0.48001995226799954,0.5009171806817128,0.9334071022974175,0.5523943688532318,0.21995088721027062,0.21951219512196118,1
0.4394724061298165,0.43887513182817045,0.9224341766420769,0.5675126043495203,0.21874527338628907,0.21951219512194875,1
0.6417187746985523,0.4498479153004249,0.8304347437904751,0.554521747156661,0.21700367989790334,0.21951219512196296,1
0.869114703784021,0.5502063036789083,0.5860074970828797,0.5642188037084906,0.2152621911544188,0.2195121951219665,1
0.9577826946433767,0.6352335623217027,0.6741198011095406,0.5936797760493656,0.21633394099342568,0.21341463414634454,1
0.5841844455420659,0.7512880369806941,0.6595576908884153,0.5412720859246996,0.21686971116802742,0.21341463414635342,1
0.41881990329478924,0.859493030561723,0.7216024780025698,0.44189095829488356,0.21767352354728287,0.21341463414635342,1
0.5836787662513402,0.9680153285745736,0.6637192056372354,0.6087929319199588,0.21874527338629002,0.21341463414634987,1
0.5306571996173945,0.9311505507947746,0.6522738251357314,0.6071298459357989,0.21633394099342612,0.21951219512196296,1
0.5403403318046955,0.8840668581063309,0.6134908502116467,0.44713011274784376,0.21579806607392255,0.21951219512195053,1
0.5891541647914389,0.525095366753256,0.8957863301925162,0.5279649982308506,0.2111093700180703,0.21951219512195053,1
0.7508364994906311,0.38526995321144075,0.7966113433598894,0.659493948617064,0.21834336719666197,0.21951219512196118,1
0.8651927838068355,0.37765749046362185,0.6056732998595832,0.39592979874167145,0.22410370834661875,0.22560975609757072,1
0.724891281214176,0.3540761031528661,0.7449859659689346,0.5050068627007098,0.2318735804447133,0.22560975609757605,1
0.7451969751530818,0.3206326864280075,0.7423190892873817,0.3511821141699806,0.23589243285118539,0.2256097560975654,1
0.6763474480405658,0.3308109023585878,0.8103685961946645,0.596634801478386,0.23656227650056494,0.22560975609757428,1
0.6655831875826139,0.33173774172550174,0.8071084112301384,0.7194712168408223,0.24245669112529977,0.22560975609757072,1
0.6600289547404812,0.3464945933492733,0.826778307129243,0.28673784900790894,0.2444661173285358,0.22560975609756007,1
0.6342440573911429,0.32307348789515067,0.8089325859089129,0.48885657064669735,0.2450019922480396,0.22560975609757072,1
0.6853871221501457,0.2517927694746868,0.8385071593333036,0.6296123166316779,0.23857170270380085,0.22560975609756007,1
0.8190365483096568,0.4396751424514453,0.5781489759417711,0.6650059019762301,0.24526982496288924,0.21951219512195408,1
0.867134665573375,0.5257219795875515,0.5047047152031863,0.596735067457654,0.24352833621940456,0.21951219512195408,1
0.7977731375835528,0.47109716135031143,0.7125596159323666,0.5764767957604164,0.24071509763691368,0.21951219512195408,1
0.7531390780538352,0.4673717103812434,0.7550225134746769,0.5493325995815479,0.22919431059209816,0.21951219512195408,1
0.7500174646292278,0.4726070996084772,0.7751632217676286,0.5406967316703889,0.22772075930836538,0.2195121951219594,1
0.7438249548279228,0.46218166794021326,0.770818371817041,0.46822772048965144,0.22691694692911035,0.2195121951219665,1
0.7461002625561015,0.4693527554804911,0.7758801729118419,0.5359284349445245,0.22678297819923426,0.21951219512195053,1
0.7462079865554144,0.4656622046250667,0.7705370615284362,0.5257978785598098,0.22597916581997907,0.21951219512196474,1
0.7454584904279626,0.4687696361139133,0.7744697434795035,0.49494759482246914,0.22530942691550193,0.22560975609755474,1
0.7468652098805834,0.465338471000775,0.7680175453713121,0.5142831847886916,0.22490752072587372,0.22560975609756362,1
0.7412547996831141,0.46924518216835426,0.7812088529017134,0.5667280277742388,0.2242376770764944,0.22560975609756362,1
0.7789471826416215,0.4800152038237598,0.7222766637444404,0.5281525826449289,0.22410370834661864,0.22560975609757605,1
0.8447324789431028,0.5189316498039,0.6101500939580502,0.5282620905540701,0.22410370834661897,0.23170731707317138,1
0.8390516174251279,0.5129685536073776,0.6039403935744049,0.5533784014225974,0.2246395832661227,0.23170731707317493,1
0.8456327799492739,0.5113866045173746,0.6096800093644508,0.5705759417318111,0.22263015706288614,0.2317073170731856,1
0.8378193703690582,0.5110761195614557,0.6089606895687334,0.5305000103820499,0.22289809452263798,0.23170731707318382,1
0.8393568736181983,0.5106971839442462,0.6188689021203845,0.5324660041051151,0.221826344683631,0.22560975609756895,1
0.8457703899621427,0.5167692846642026,0.5983688917008598,0.5345287338347874,0.22182634468363066,0.2256097560975654,1
0.8398966115609356,0.5292766213825445,0.6154578899304735,0.49523796289934324,0.22115660577915325,0.22560975609755474,1
0.829909442913576,0.5336494095914286,0.6231646801635469,0.5022710222811472,0.22008485594014665,0.22560975609756362,1
0.8378929666478662,0.526838361634792,0.6302909480973822,0.558267343432238,0.2195489810206428,0.2317073170731696,1
0.8302813165265335,0.5260177091351212,0.6244046973088766,0.5463145250545082,0.21914707483101492,0.23170731707316783,1
0.8338356586415212,0.5189337900351524,0.6349478040349048,0.515692883881669,0.21753955481740728,0.2317073170731767,1
0.8359665784363998,0.5244359864463312,0.6192101685082061,0.5476501272265791,0.21794146100703415,0.2317073170731767,1
0.83657741622161,0.5257608890701181,0.6253935792711192,0.5584492219593551,0.21794146100703415,0.23170731707316072,1
0.8409723222416454,0.5311435886143279,0.6093645149832545,0.5267168619936188,0.2171376486277783,0.23170731707317138,1
0.8410578113173568,0.524514778768582,0.6227161914106127,0.5262125004591915,0.21686971116802742,0.23170731707318382,1
0.852840457159188,0.5421625382220854,0.5813678383637545,0.5448629277876352,0.21619997226355012,0.2317073170731785,1
0.8278277274053761,0.5394615990476956,0.6322699342185343,0.5239693570188718,0.21619997226355014,0.2317073170731696,1
0.7990369449027555,0.5357414425924185,0.6720309401399966,0.5255903088775745,0.2152621911544189,0.23170731707319447,1
0.8217633365263088,0.5102884778253696,0.6798002241552192,0.5379076135143408,0.21526219115441894,0.23170731707318026,1
0.8051817223101294,0.5130277955527734,0.6884968105643436,0.5702684611108584,0.21553012861417128,0.2317073170731856,1
0.8370004565154213,0.5454446505330006,0.6663096799449872,0.5177622224220857,0.21512822242454305,0.2317073170731856,1
0.8461791985434459,0.6361493307525283,0.49402155419569155,0.5142901761923137,0.2143244100452876,0.23170731707317493,1
0.8493168197008721,0.5041239193720526,0.5281200996026587,0.5965837933372777,0.2159320348037982,0.23170731707317138,1
0.870118344870253,0.5209034503015416,0.5424497744523966,0.5437033246961986,0.21901321084604147,0.23170731707316428,1
0.8751108107361594,0.5933972340511698,0.30486756637640444,0.49845196457660434,0.2172716173576551,0.2378048780487898,1
0.8891479061590157,0.582691865983651,0.21132388237875968,0.5428892239016367,0.21686971116802733,0.23780487804879336,1
0.8648132184113576,0.6009921822043963,0.158635107819028,0.5838129233528885,0.21606600353367353,0.2378048780487827,1
0.8574328551629322,0.5876931841486382,0.18290357669860852,0.5617363954975327,0.21553012861417095,0.23780487804879336,1
0.8684998272058915,0.5983856466824865,0.17700878028770073,0.536462656064164,0.21405647258553592,0.2378048780487898,1
0.8596937611765065,0.5930588954751781,0.18445911353434846,0.5540232756777087,0.214190546060314,0.23780487804879158,1
0.8666931743504944,0.5985658495012447,0.17360358453071406,0.5617535345997401,0.21352070241093465,0.2378048780487827,1
0.8576895832459711,0.5924734425548366,0.18491057050736626,0.4277458023095876,0.21285085876155527,0.23780487804878447,1
0.8658082041744777,0.5974039276161974,0.17554848417343416,0.5245825610245013,0.21258292130180298,0.2378048780487898,1
0.8582720896044709,0.5941269819608916,0.17975323024059053,0.5319529946085535,0.2117792136674504,0.23780487804879158,1
0.8640353784141661,0.5983329794375015,0.16744719943319206,0.504092212571255,0.21137730747782305,0.2378048780487898,1
0.8552657378497954,0.595565150478451,0.17187750265355636,0.5113605043542354,0.21110937001807062,0.23780487804879336,1
0.8634067190863828,0.5983109506419619,0.1613878970811894,0.5600279195011025,0.21030555763881584,0.24390243902439934,1
0.8568833705066741,0.5958748510546672,0.17023031786216797,0.5519314958008005,0.20950174525955984,0.2439024390244029,1
0.8620452101486417,0.5979244069834753,0.1579818727163701,0.5642904460963264,0.20950174525956042,0.2439024390243958,1
0.8560833042790543,0.596338598898218,0.16576019146509194,0.5595483421328304,0.20896597508495884,0.24390243902439757,1
0.8641053928502311,0.5973038358672514,0.16393555734271606,0.5423009146437934,0.20923380779980857,0.23780487804877914,1
0.8553635287420446,0.5976790978561916,0.1687922803941741,0.45749072682741915,0.20856406889533124,0.23780487804878092,1
0.8622967582116643,0.5994915811738055,0.16359512568513865,0.5282484116519249,0.20856406889533047,0.23780487804878092,1
0.8540848708041819,0.5974502336780876,0.17236562397238755,0.5442487924278687,0.20749231905632395,0.23780487804879158,1
0.8674028248097883,0.596431076764118,0.16604771372553662,0.48317366845424486,0.2078942252459517,0.25000000000001066,1
0.8506689000971684,0.6014080372223964,0.17308105014945488,0.4600025205372574,0.2078942252459515,0.2500000000000018,1
0.9068715128438891,0.5733002753956891,0.20340908135538782,0.5785534667454031,0.20722438159657236,0.25000000000001243,1
0.8974559054949541,0.5711370101946535,0.2565446236434118,0.5314570499515116,0.2070905176115983,0.2500000000000071,1
0.8000189258464458,0.5947881220449516,0.21681866614456397,0.5350659663241465,0.20896597508495918,0.23780487804879513,1
0.9152809146809199,0.48868727449990107,0.42931545413943534,0.45459998879165214,0.21124333874794685,0.23780487804878092,1
0.8800369545577076,0.4325707357868139,0.5045855303129057,0.524760296344584,0.2168697111680278,0.2378048780487969,1
0.8492375266009156,0.46077354615104293,0.5711468640697503,0.5273343524602427,0.22249618833301038,0.2378048780487827,1
0.866607551713972,0.5011416758673704,0.5319130998809476,0.49211364585510753,0.21727161735765538,0.24390243902440467,1
0.8649870362110972,0.5005622367113052,0.536411582319287,0.5061112666265833,0.214190546060314,0.24390243902439934,1
0.8691663094621085,0.4998484126499348,0.5280490076416958,0.686137014166574,0.212850858761555,0.2439024390244029,1
0.8604955038748341,0.4906971789377494,0.5472011575705845,0.6791251680933844,0.21218101511217585,0.24390243902439934,1
0.8680590907498544,0.5011062957736964,0.532146898951489,0.47765908516231337,0.2119130776524241,0.2500000000000018,1
0.8602749511568445,0.4947867286432603,0.5452474301160204,0.5035540714019401,0.21124333874794637,0.25000000000000355,1
0.8683751697169032,0.5021861841466071,0.5297205534091444,0.5002043336982146,0.21084143255831905,0.25000000000001066,1
0.8642641487688156,0.49840100584507696,0.5421250654574785,0.5127669660668077,0.21003762017906344,0.25000000000000355,1
0.8721748483106257,0.50862740808339,0.5101743935330975,0.6054349277825803,0.20990365144918777,0.23780487804878447,1
0.8686021421192982,0.5088935316597537,0.5061448785745036,0.5795758678844732,0.20936788127458666,0.23780487804879336,1
0.8717483692236632,0.5111376397658904,0.5107959694285856,0.5085283130230847,0.2095017452595603,0.23780487804878092,1
0.8657885286656539,0.508296324709892,0.5174804610451729,0.5707989859563831,0.2086980376252069,0.2378048780487756,1
0.8689919000437746,0.5117039308972752,0.5144578751308834,0.5920656335038943,0.2084301001654555,0.24390243902441355,1
0.8640195026358126,0.49979441777207395,0.5309520808642874,0.537144704984095,0.20735835032644837,0.24390243902439934,1
0.8692513404603375,0.49916938928797916,0.5149622428705305,0.5144546011039192,0.20735835032644823,0.24390243902440112,1
0.8726342906098691,0.5017446540641276,0.49517238990030044,0.5665725504559839,0.2069565488817229,0.243902439024394,1
0.8705539169892383,0.5012052746122003,0.5080394312965071,0.5385718893401277,0.2064206739622189,0.25,1
0.8727250578578889,0.5008649931558387,0.5060715124463576,0.5100416146403904,0.20615273650246735,0.2500000000000071,1
0.8711776776773821,0.501356407327784,0.5103304973495181,0.5414796346436354,0.20508098666346056,0.25000000000001776,1
0.86957882536342,0.5016688888116086,0.5112424162932819,0.5627077934420021,0.2044112477589832,0.25000000000001066,1
0.8697387418628505,0.501774908305551,0.5105835218867519,0.501959855403279,0.20441124775898328,0.25000000000001954,1
0.8691647463131404,0.5011859341255661,0.5132566878921985,0.5038716836306517,0.20454521648885915,0.2500000000000231,1
0.8692492383465931,0.5049568432579867,0.5124171406018536,0.5526901606491367,0.2037414041096039,0.25000000000001776,1
0.8690399089992084,0.49949305443026226,0.514584559548123,0.5414430836294144,0.20347346664985186,0.25000000000001954,1
0.8706717599503975,0.5038330793174017,0.5120589536781999,0.5090994224932275,0.20307156046022387,0.2439024390243958,1
0.867659540798779,0.5014744875375006,0.5146550116686304,0.5262579952512353,0.20266965427059627,0.24390243902440467,1
0.8697373160679815,0.5026577431699556,0.5119584447587606,0.5564810076970113,0.20240171681084485,0.243902439024394,1
0.8687411757503893,0.5024060425249458,0.5148332502095809,0.5372413341706705,0.2017319779063674,0.24390243902438868,1
0.8696266119921693,0.5018521653197722,0.5113552766662692,0.5174761251159915,0.20146404044661567,0.25000000000001066,1
0.8690010599036981,0.5016790000059315,0.5134304327926565,0.5413474168207097,0.2005262593374848,0.25000000000001066,1
0.8710973717323138,0.5038629676392359,0.5096296829739051,0.5582119921337916,0.20052625933748458,0.25000000000000355,1
0.8703806796831788,0.49930203772411225,0.5144549752696486,0.51991180154029,0.19999038441798134,0.25000000000001066,1
0.851455499662142,0.496733214991127,0.5720258863272626,0.5053872431040093,0.19972255170313133,0.2560975609756184,1
0.8491044351720778,0.4904396865851447,0.5838104771999802,0.5386868245229437,0.19905270805375178,0.25609756097560066,1
0.8530169921547318,0.4871909375422447,0.581242097814052,0.5530388089488062,0.1983828644043723,0.2560975609756042,1
0.850803152168355,0.48485974494770256,0.5824929072876316,0.503280053039705,0.198114926944621,0.25609756097562375,1
0.8527379860121261,0.48632955966394115,0.583232231436167,0.47918771322942233,0.19784698948486903,0.2500000000000089,1
0.8468266778220325,0.4854207106371478,0.5975441358716878,0.5463612993324148,0.19757905202511716,0.24999999999999645,1
0.8465747517544036,0.48468616269236203,0.5982956094517548,0.573014874439635,0.19610550074138444,0.25,1
0.8448214629784259,0.48814239497527145,0.5976845346756607,0.5201360291642928,0.1965074069310121,0.25000000000000533,1
0.8486539078582488,0.4874868289002954,0.5929735819075168,0.5097591632360904,0.19610550074138472,0.2500000000000089,1
0.845369521464308,0.48841428646352175,0.5959817274729815,0.5482732310417191,0.19650740693101215,0.2500000000000018,1
0.8504051085543336,0.4900215302158086,0.5901830760858845,0.5649719812043269,0.1955696258218811,0.2500000000000071,1
0.8444163569865938,0.4882118743661716,0.5950448117801406,0.5272386064320395,0.19570359455175668,0.25000000000000533,1
0.8558307665723128,0.4920324713917675,0.5816103518816508,0.5384260300832027,0.19449798072777638,0.2500000000000089,1
0.8314258189643884,0.48815975074838036,0.6286669458018586,0.5561040270381203,0.19489978217250162,0.25000000000000533,1
0.8049925578909074,0.48349493094807316,0.6835841402724986,0.5334721411317479,0.19436401199790024,0.25,1
0.8153149778208704,0.482820240125495,0.6694045386733722,0.5153528605094339,0.19382813707839663,0.25000000000001066,1
0.8098658007062671,0.4825512617198608,0.6709038443233819,0.5545091695289828,0.19356019961864515,0.25609756097561487,1
0.8128414959392958,0.4802598398935654,0.6688124741327479,0.5507943766779961,0.1930243246991413,0.25609756097560776,1
0.8108056724872109,0.4789997016965817,0.6705593517426724,0.5310650714307544,0.19275638723938968,0.256097560975622,1
0.8122534306324531,0.48057344405403163,0.6687306564410389,0.5217948134323019,0.19208664833491243,0.25609756097561664,1
0.8112896739464053,0.47810731934257683,0.6764301073741626,0.5500237554131221,0.192086648334912,0.25,1
0.8103302303765789,0.47502894769324705,0.6784581974191545,0.5393450313992796,0.1916847421452849,0.25000000000001066,1
0.8087916327789471,0.47980101984057316,0.6774835378171298,0.5237081384602122,0.19168474214528475,0.24999999999999467,1
0.8084980468927582,0.4725678007081719,0.6838513899033405,0.534675103053363,0.19114886722578142,0.25000000000000533,1
0.8087846326235569,0.4776964789088659,0.6795263623977257,0.5547944930459733,0.1908809297660297,0.25,1
0.8061499758404487,0.4736318839890298,0.6848333967004111,0.5278514577999891,0.18980928467192434,0.2500000000000071,1
0.8051982475889705,0.47613344251017947,0.6832521330536716,0.531813921104954,0.190345159591428,0.25000000000000533,1
0.8058857706240048,0.47392049144146325,0.6832385511685276,0.5439043883714674,0.19021119086155247,0.2500000000000018,1
0.8061618872594075,0.47592424927303834,0.6849880547191061,0.5386613044046445,0.18980928467192487,0.2560975609756184,1
0.8074238339871951,0.47409617074442223,0.6835222416256166,0.5141227236942378,0.189407378482297,0.25609756097562375,1
0.8072495005049724,0.47575129658660875,0.6830914477252911,0.53756264762552,0.1890054722926694,0.25609756097562375,1
0.8072834982046324,0.4742926068412887,0.6840778197311136,0.5523111300358822,0.189005472292669,0.25609756097560954,1
0.807489234212094,0.47686506235066123,0.6813213875411794,0.5338310728943426,0.18820176465831587,0.256097560975606,1
0.814880596665702,0.4895421258831482,0.6720544723932622,0.5119110824405909,0.18793382719856433,0.2560975609756202,1
0.8291327033604978,0.4991435233301191,0.6341020158059197,0.5426049599071382,0.1868620773595572,0.2560975609756042,1
0.8397757652986793,0.49869182037204846,0.6191488667498357,0.5454903710233275,0.1863262024400533,0.25609756097560954,1
0.844867478033714,0.49811646199319365,0.6102011047796239,0.5330724134509555,0.18592429625042614,0.25000000000001776,1
0.8455077980929029,0.500666579385113,0.5943337067199371,0.5265656597174225,0.18565635879067444,0.2500000000000089,1
0.858132306063325,0.4914502520452646,0.5704186040267367,0.5720125641553246,0.18579032752054997,0.2500000000000018,1
0.8628824397924773,0.4989943398727922,0.5205420137297887,0.5544186000118321,0.1856563587906741,0.24999999999999467,1
0.8867569432791846,0.5056064966231538,0.44382040046110705,0.4856503374297427,0.18699604608943293,0.25609756097563086,1
0.8835761327959799,0.5060810171065094,0.43507679318531467,0.5071943056758904,0.18873753483291725,0.2560975609756291,1
0.8811693029724705,0.5035710363989344,0.45088301740417447,0.562228032419878,0.18887150356279356,0.2560975609756255,1
0.8816246673814325,0.4990311202827752,0.4555860432736785,0.5349492018043559,0.18954134721217303,0.25609756097562375,1
0.8848421081205392,0.4977100495983686,0.4507594275063176,0.529344706052709,0.1899432534018004,0.2560975609756131,1
0.8834776661668754,0.4977727997416606,0.4487819728740218,0.5833929772379353,0.18994325340180027,0.25609756097560776,1
0.8832235723309834,0.5021893435525401,0.45097175196209655,0.5685064241246013,0.18980928467192426,0.25609756097560954,1
0.8822717806625002,0.5039440710547098,0.4467447868098847,0.5134459929447368,0.18927340975242107,0.2560975609756202,1
0.8829887318373255,0.5046325410376322,0.4474968427127072,0.4993057563948747,0.18927340975242116,0.26219512195122796,1
0.8819738434314148,0.49287776714313014,0.45857503760162044,0.5323039122851387,0.1892734097524215,0.2621951219512244,1
0.8776110192752824,0.4947091654781761,0.46221392407259204,0.5261722345095544,0.1888715035627925,0.26219512195122086,1
0.8786246923166667,0.4933485767902067,0.46232337546224733,0.5141430946229928,0.18846959737316588,0.2621951219512333,1
0.8799277650745201,0.4907328037640096,0.4595698737423585,0.5421008421206315,0.18806769118353778,0.2621951219512244,1
0.8798020534520965,0.4917578790103601,0.4597630296512225,0.5138934715435952,0.188067691183538,0.26219512195123507,1
0.8799910549649793,0.496042353006472,0.45820911597320346,0.5177006851845357,0.18726398354918533,0.26219512195123684,1
0.8829685620064276,0.4971733641236346,0.452297195502622,0.5375905692351284,0.18713001481930905,0.2621951219512173,1
0.8787659004455057,0.49995708960244273,0.4549935439370941,0.5198205589018051,0.18672810862968145,0.26219512195122796,1
0.8805550656620575,0.4952061969605315,0.46126311834958605,0.5213864229219977,0.1865941398998052,0.26219512195122974,1
0.8819525481675808,0.49465826923590656,0.45656251910206036,0.5593528238299089,0.18592429625042592,0.2621951219512173,1
0.8801473834581783,0.49482604473726,0.4594127432350666,0.5318479820004575,0.18579032752055,0.2621951219512191,1
0.8806071472012693,0.4950284423684201,0.4569865819789373,0.5200273583316867,0.18565635879067452,0.2682926829268304,1
0.8813087337372503,0.49351552369359747,0.4592320933665781,0.5580043591083589,0.18538852607582526,0.2682926829268393,1
0.8802034484559416,0.4932133279787349,0.45706313965827017,0.5482534984074584,0.18498661988619639,0.2682926829268375,1
0.8792783615611459,0.49581376603494476,0.45930758019049034,0.5181253967472825,0.18458471369656898,0.2682926829268375,1
0.881063978522902,0.4932566363168384,0.45870681302631977,0.5487861454384193,0.1844507449666931,0.2621951219512191,1
0.8814305009612893,0.4929054943481798,0.4597877065048572,0.553711370968734,0.1844507449666935,0.26219512195122086,1
0.8814912759899352,0.49407459915405494,0.45803831739751033,0.5240451613218035,0.1843167762368175,0.2621951219512244,1
0.8806524775963892,0.494339886911826,0.4594678259769692,0.5310369835134042,0.18431677623681764,0.2621951219512244,1
0.8814698524253102,0.49594664536878763,0.45689446928456556,0.5541415373959986,0.18445074496669325,0.2621951219512173,1
0.8811488568118169,0.4953088362795411,0.459418590529955,0.5279919068695551,0.1844507449666935,0.2621951219512333,1
0.8805663578787807,0.4950897685192527,0.4595216561523586,0.5186991154472518,0.18445074496669359,0.26219512195122796,1
0.8799713022055546,0.4929266313909485,0.4670201580244223,0.5515029133870152,0.18445074496669359,0.26219512195122263,1
0.8805158899636311,0.49274082125466456,0.46372899190282113,0.5504262627247238,0.1841828075069415,0.26829268292681974,1
0.8794559088822638,0.4922668473587743,0.4671076876059305,0.5157093309155018,0.18378090131731425,0.26829268292684283,1
0.8794801251458289,0.4929445437111903,0.4649032052501184,0.5259679277624859,0.18351296385756272,0.26829268292683217,1
0.8762088056217963,0.4871387398997118,0.47283517493374716,0.5451448119562379,0.18324502639781023,0.26829268292684105,1
0.8794893968918216,0.47872024367298044,0.4726294525752551,0.5505951231395325,0.18270925622320905,0.26219512195122796,1
0.8782985954054147,0.48520224433253817,0.4658423447239348,0.5174719346133079,0.18257528749333324,0.2621951219512173,1
0.8790912881870737,0.4799821784390404,0.46898929881923296,0.5457236302045383,0.18177147511407768,0.26219512195121375,1
0.8779525184872028,0.4808501647107859,0.4702593519661238,0.541147447156862,0.18163750638420204,0.2621951219512173,1
0.8769525407975924,0.481253162402899,0.46632531875945393,0.5244474324049324,0.18110163146469865,0.2682926829268357,1
0.8796615651736559,0.4776736880406583,0.46973176426902485,0.5321664637920726,0.18096766273482257,0.26829268292684283,1
0.8804270275020929,0.48290088046511054,0.46544689580346443,0.5553236047252803,0.18056586129009697,0.2682926829268233,1
0.8792758198376279,0.48057975195885266,0.4699157397337117,0.531749621644167,0.18016395510046943,0.26829268292683395,1
0.879891479879226,0.48315253167201405,0.46596242770574603,0.5274822572106772,0.17962808018096604,0.26829268292683395,1
0.879570605832777,0.4795340783105661,0.470912872674956,0.5394834048412046,0.17936014272121387,0.2682926829268393,1
0.8771981248642278,0.4854931026720227,0.46859361159465623,0.5429148466123518,0.17828849762710874,0.26829268292683217,1
0.8786418686862003,0.4813474350710927,0.47454652122884206,0.5171106602372213,0.17828849762710894,0.2682926829268393,1
0.8754757907603563,0.48727514500827757,0.47567670318558614,0.5399871132590804,0.17815452889723268,0.2682926829268286,1
0.8767470321278552,0.48719269894545963,0.47649227335716915,0.5443696787795357,0.17815452889723293,0.2682926829268304,1
0.8775447071945941,0.4898307811542567,0.4754611949801303,0.5297560328784842,0.17775262270760553,0.2682926829268286,1
0.8748229667983003,0.4931196392884075,0.47791793824122153,0.523133224745937,0.17748468524785374,0.26829268292682507,1
0.8804855779504301,0.4893313958230784,0.47614524855260987,0.5546021002427235,0.17708277905822623,0.27439024390244526,1
0.8699743768470389,0.49078319289414235,0.5080332753900311,0.5341686210672483,0.17694881032835,0.2743902439024364,1
0.8692607467813507,0.49647055235658943,0.51521053377824,0.5246170597422888,0.1766808728685985,0.2743902439024346,1
0.8515753636022774,0.48767734521018147,0.5770547994426487,0.5416822532175706,0.17614499794909472,0.27439024390244526,1
0.8310865160200867,0.46447338488328416,0.6269343463719486,0.549788429654982,0.17587716523424557,0.28048780487806013,1
0.8507044381031048,0.48091646094017754,0.5651570468070937,0.5082787321328478,0.1766808728685984,0.2804878048780495,1
0.8890095702365415,0.48267745103350246,0.4317282881907879,0.519716993639034,0.17815452889723357,0.2804878048780637,1
0.8787411142999924,0.44546283240561,0.46355874407557907,0.5277386464014183,0.17761865397772975,0.2804878048780477,1
0.8759552082565296,0.4869329321548778,0.47113852912760157,0.5535937289626072,0.17775262270760567,0.2682926829268304,1
0.8853997547384891,0.49055069575923366,0.4603523003248672,0.5698687157771738,0.17775262270760636,0.26829268292684993,1
0.8765318132671445,0.5499843587234123,0.44680809270214383,0.5640124869763821,0.17614499794909494,0.2682926829268304,1
0.8770512433357174,0.5689487354724561,0.4469109635741524,0.5693388029819759,0.171724239352995,0.26829268292684283,1
0.8786113209105091,0.5710081460266825,0.4470782064082074,0.5810477362167807,0.17177870670212378,0.26829268292682684,1
0.8780310578816517,0.5681209550826155,0.4505193341879859,0.5180626866228307,0.1713769052573983,0.2682926829268446,1
0.877458139377859,0.5606321507477066,0.45547501832248743,0.5464752244949993,0.17070706160801913,0.26829268292684283,1
0.8768116882949488,0.5588377874528525,0.4631686547413577,0.5285997004257351,0.17017118668851516,0.2682926829268393,1
0.8744288376108286,0.5546437137901762,0.46727543907485203,0.5206526517073861,0.1703051554183909,0.28048780487804414,1
0.8746890475271707,0.5542735684852813,0.46901999130033756,0.5156550564612847,0.1703051554183911,0.2804878048780548,1
0.8745913344766061,0.5528222581643908,0.4701924346546134,0.47843493152249245,0.16976928049888734,0.2804878048780459,1
0.8745833088046245,0.5539727704138199,0.4728669355518019,0.4859990821906592,0.1695013430391357,0.280487804878053,1
0.8737346992144779,0.5528784568910116,0.47033963104226445,0.5421777384969805,0.16923340557938407,0.28048780487806013,1
0.8755339059777245,0.5530952211380717,0.4751684109024077,0.5275197779817181,0.16909954159441018,0.280487804878053,1
0.8739654405591846,0.5477795990962698,0.47111197890301615,0.5150624216730323,0.16869763540478264,0.2804878048780619,1
0.8748167702723789,0.5469263524308504,0.475287917104484,0.5510430071047419,0.16842969794503093,0.28048780487805836,1
0.8735727402293827,0.5458519267118549,0.4759438259333272,0.5382051602554268,0.16802779175540303,0.2682926829268446,1
0.8751848485595093,0.5450942472854228,0.47565032490031867,0.5092652144929236,0.1676258855657752,0.2682926829268464,1
0.8732936757697092,0.544130049592542,0.47855705256978415,0.5380383348954259,0.1672239793761479,0.2682926829268393,1
0.8766526362117218,0.5422627097919488,0.48588393230805604,0.550653940365366,0.16709001064627188,0.2682926829268233,1
0.8638418856950192,0.5215551109869093,0.533406480671129,0.5198706200112481,0.16695604191639615,0.27439024390245415,1
0.8489678481201272,0.5054929753089237,0.5949898696262943,0.5276068620395503,0.16615233428204265,0.27439024390243993,1
0.8179767356715404,0.49083680345561775,0.6541166124228893,0.551036979071483,0.166018365552167,0.2743902439024364,1
0.8101327154638627,0.5000259186935976,0.6794529746507689,0.5134533229381503,0.1654824906326631,0.2743902439024435,1
0.7991551219866676,0.47485429238737425,0.6910207478278019,0.4667928836056951,0.16534852190278762,0.27439024390244704,1
0.793840872458542,0.4657341101429492,0.7081569201666825,0.5155859178538011,0.1644107407936568,0.2743902439024559,1
0.7844121313585739,0.4711416632028328,0.7129145636224471,0.5650396140626724,0.16508058444303633,0.27439024390245415,1
0.7771701487566773,0.4650623263274068,0.7245485841043353,0.5528649821655961,0.16494661571315974,0.2743902439024293,1
0.7870819560370348,0.45283375866497605,0.7166127228048047,0.587106388282256,0.1645447095235323,0.2743902439024595,1
0.7782047445555221,0.4501717116022231,0.7287777946700486,0.5725669840491722,0.1638749706190553,0.2743902439024417,1
0.7775635467965851,0.4509933923840388,0.727874802679505,0.5125557534541189,0.16374100188917892,0.2743902439024417,1
0.778415572617239,0.44645043308063764,0.7280974948972618,0.5399986315444624,0.16333909569955182,0.2743902439024595,1
0.7757977755124896,0.45198919482219263,0.732364354687405,0.55485340775264,0.16293718950992409,0.28048780487806013,1
0.7782829699055758,0.45072469159541195,0.7320008098159452,0.5225602891334493,0.16280322078004825,0.280487804878053,1
0.7736881499586598,0.45659843315936305,0.7320276916457292,0.5567868319627285,0.16226734586054414,0.2804878048780495,1
0.7751577691750522,0.4569791384205958,0.7361012017032418,0.5528578871284839,0.1619994084007928,0.28048780487805836,1
0.7722149996270953,0.4583403610687298,0.7336814848571712,0.534015588250314,0.1614636382261913,0.28658536585366257,1
0.773146150357592,0.4566431842044252,0.7350785947349925,0.542353988026734,0.16159760695606784,0.28658536585365546,1
0.773288315692704,0.45846189373980406,0.7330684547677553,0.5747824132867342,0.16025791965730823,0.28658536585365546,1
0.7745975947165225,0.4565925516805106,0.7352681094264335,0.5156043574271418,0.16079379457681156,0.2865853658536732,1
0.7742840133472721,0.4584825255708276,0.7329418949054853,0.5063807369579192,0.1599899821975565,0.2804878048780637,1
0.776283754984679,0.45658638093681814,0.7353772040599728,0.5476609160378427,0.1601239509274325,0.2804878048780459,1
0.7756538507274752,0.4584808705047709,0.7328329352305762,0.5334266007882718,0.1595880760079288,0.2804878048780406,1
0.7771657325232495,0.45659316555721674,0.7355039849828316,0.5141112210434403,0.1593202432930791,0.280487804878053,1
0.7752047855876802,0.45846941261744706,0.7326367924772497,0.5491502673480111,0.15918627456320408,0.28658536585366967,1
0.7737488233926552,0.456610696791912,0.7362953996172079,0.543180646547649,0.15865039964369992,0.2865853658536519,1
0.768862427971202,0.45844196687248834,0.7334322225654203,0.5208381836148145,0.15851643091382445,0.2865853658536679,1
0.7710039826209962,0.4566565709663876,0.735051503142022,0.5314680656815532,0.15798055599432045,0.28658536585366434,1
0.7688145611757563,0.4583572792723744,0.7341360889005145,0.5539240138391833,0.1579805559943202,0.2926829268292668,1
0.7729363813577247,0.4568425231856085,0.7387597577627046,0.5225870506084769,0.1574446810748169,0.29268292682927033,1
0.7703944257475397,0.45770286070116173,0.7328645743706185,0.5189115966096218,0.15731071234494065,0.29268292682925257,1
0.7728780249423466,0.45478264381953487,0.7358455973103291,0.5562240097147373,0.15664097344046338,0.2926829268292739,1
0.7696779352230949,0.4579220344243525,0.7366266743338217,0.5502108751857941,0.15690891090021536,0.28048780487805836,1
0.7732725572762567,0.45413421344855603,0.7370994852560414,0.5124817895579244,0.15637303598071245,0.28048780487806013,1
0.768777253190994,0.45742661872766877,0.7337100660712551,0.5307412867187893,0.15610509852096052,0.28048780487805836,1
0.7740722654235914,0.45498789690065333,0.7383180287874143,0.5495685949684537,0.15583716106120804,0.28048780487803526,1
0.7689278354047152,0.4565734554309968,0.7322003103301994,0.5342393002454969,0.15570319233133237,0.286585365853659,1
0.7736861879818068,0.45502634397857894,0.7363641347940089,0.516356569434378,0.15543525487158077,0.28658536585366257,1
0.7733287646018334,0.4579866977797423,0.7289060439735495,0.5413470153957789,0.15503334868195348,0.28658536585366434,1
0.847018076924638,0.5164101900438378,0.6187885745763682,0.5506724672721266,0.15476551596710325,0.28658536585365546,1
0.841547634226693,0.5595394393534653,0.5843888361659694,0.5308001268409471,0.15342582866834412,0.28658536585365546,1
0.8483102574157675,0.5477299300089296,0.6053714754946888,0.5190130362261125,0.1530239224787168,0.28658536585365724,1
0.8365856137314451,0.5586088297367111,0.5888239160593387,0.5556185419755535,0.15155037119498424,0.28658536585366257,1
0.8534813850446915,0.5310032346590127,0.6080687268357933,0.5961758791918425,0.15222021484436335,0.2865853658536395,1
0.8145651466068917,0.47098454500692655,0.6274694118635364,0.5653837598269794,0.15248815230411597,0.2926829268292881,1
0.8571551638133872,0.4405608217466069,0.7282602563243694,0.50791182221574,0.155301286141705,0.29268292682927033,1
0.7786034346578583,0.5753157428861688,0.8017408597876782,0.5186383205489552,0.15771261853456878,0.29268292682926855,1
0.49433334669266626,0.762322723216224,0.7214402043747448,0.4897645978376552,0.15503334868195345,0.2926829268292739,1
0.5600367560017678,0.9048447003274191,0.735518034519713,0.41187534295748196,0.1532918599384689,0.2926829268292668,1
0.36050025179283,0.9388645083497966,0.6582536449501406,0.49134237407071446,0.15235418357423963,0.2926829268292792,1
0.3469120539768798,0.9452877020571764,0.6630761057080985,0.6981080231229457,0.15034465262610122,0.292682926829265,1
0.355022597971584,0.950471754705128,0.6627080212258074,0.6133335316490123,0.14820125769298964,0.2926829268292739,1
0.34527328095005494,0.9373377966577157,0.6766771167562696,0.48437382779165333,0.1451201863956492,0.29268292682927743,1
0.3598991205467818,0.9342261284567313,0.6852318146439688,0.4305650183994961,0.1455219878403736,0.29268292682927033,1
0.3109496915592744,0.9202828099885756,0.6807096143195959,0.5730952125556557,0.1452540503806225,0.2926829268292668,1
0.32251075788771455,0.9135545703679786,0.6949438685309082,0.5394863304184863,0.14512018639564853,0.2926829268292739,1
0.39189453905735083,0.9189343686640147,0.7124337352243768,0.5172625904527677,0.14471828020602076,0.29268292682926145,1
0.4860520307075906,0.9164780767687526,0.725691880030975,0.5603661790304095,0.14351256163713808,0.29268292682927033,1
0.5148495781994982,0.9063727179106903,0.7306502173696694,0.48192294198130364,0.14485224893589677,0.29268292682927743,1
0.3903207522978342,0.886376194400282,0.7633779064162731,0.5551678345087069,0.14431637401639302,0.29268292682925967,1
0.34815951193210515,0.893200611172984,0.7268607126497146,0.6062208016634337,0.14351256163713783,0.2987804878048834,1
0.28216728793455037,0.9121123580104518,0.6679797938239447,0.578628379205844,0.14337859290726188,0.29878048780487276,1
0.2739248117048604,0.9020858869604541,0.6793997673412387,0.49273927150340174,0.14217297908328136,0.2987804878048923,1
0.34991892094784627,0.8961628702300264,0.7403665957195045,0.5393174391125912,0.1421729790832812,0.2987804878048834,1
0.36814832163443634,0.8991263604963167,0.7256040573109608,0.5572401976942202,0.14110122924427387,0.3048780487804983,1
0.3612878489245699,0.9087628415028021,0.7313324162286519,0.48468030431414333,0.14163710416377745,0.30487804878049296,1
0.33072593617010565,0.9094034437228523,0.6894806149607657,0.4585856230870481,0.1408332917845225,0.30487804878048763,1
0.3926692275143218,0.899299296367567,0.7639218116304939,0.558313937143712,0.14056535432477016,0.3048780487804752,1
0.34706438690886526,0.828585773648909,0.7304065620660753,0.5942261780965231,0.14002958415016914,0.3048780487804965,1
0.6405429280105215,0.5268023164836279,0.8237262222276442,0.5122919077112409,0.14337859290726204,0.30487804878049474,1
0.8064380237438439,0.4084408592260468,0.8883407783150654,0.5526234804879526,0.1457899253001261,0.3048780487805054,1
0.6553928474967294,0.3766124582385653,0.8090893872706583,0.5305848771617896,0.14900507007224562,0.3048780487805054,1
0.7332300307460061,0.38339585963437367,0.8025844247227956,0.5911120529897449,0.15623906725083594,0.29878048780487276,1
0.6659473391925681,0.3354382379196652,0.8009917235119124,0.5622479502833017,0.15342582866834462,0.2987804878048852,1
0.6974781759903987,0.3311316357523896,0.8145381793467099,0.5074196967404098,0.15757864980469288,0.298780487804887,1
0.7514054561400334,0.38231821575566466,0.7325486968879722,0.45579253505907896,0.16320512696967532,0.29878048780487276,1
0.8206278334119619,0.39482503477643754,0.66452401631851,0.6039098178368786,0.1650805844430357,0.29878048780487276,1
0.8134160773793855,0.4070777217283482,0.632022298262965,0.24899327087195744,0.16347306442942758,0.29878048780488875,1
0.8355369584608365,0.4126851536943004,0.6286665306129231,0.5227013816315136,0.16333909569955124,0.2987804878048781,1
0.8196349941225604,0.42208671083943816,0.627059390881672,0.7862207471342785,0.16199940840079258,0.2987804878048692,1
0.8346446211181278,0.41352923614390946,0.6271708764213473,0.5965936017507938,0.16119570076643921,0.3048780487804912,1
0.8253962237668111,0.40454936872653374,0.6175854006203156,0.5686992268561356,0.1614636382261913,0.30487804878049474,1
0.8368990144614961,0.40683826641083914,0.6105833688122084,0.5019779473844403,0.16253528332029626,0.3048780487804894,1
0.833029083386192,0.4117304641483795,0.6010085110474054,0.47768189801168126,0.16240131459042043,0.3048780487804805,1
0.8394222674264227,0.41400282508221103,0.6106506676482893,0.45393681515971906,0.16213337713066878,0.3048780487804894,1
0.8323989817607831,0.4117215762878208,0.6036057204259646,0.5797780648982436,0.16146363822619147,0.30487804878049474,1
0.8392886157750412,0.4097589789950334,0.6069522884962759,0.6321647527199269,0.16119570076643974,0.3048780487804894,1
0.8322591350217041,0.41807047052118,0.6055605607399135,0.5034928705298712,0.16092776330668762,0.3048780487804823,1
0.8394325149361803,0.41160909426200454,0.614882527095612,0.4778156658270245,0.16065982584693592,0.3109756097560954,1
0.8301622573025643,0.4139868423165314,0.6132239373539119,0.5562707001082146,0.16065982584693606,0.3109756097560954,1
0.8361272734550014,0.41388389121411184,0.6155493032807757,0.553259582938271,0.16039188838718416,0.31097560975609184,1
0.8283780919247503,0.41323947142438755,0.6152601975016452,0.5228629849164856,0.15998998219755672,0.31097560975610605,1
0.8337958651514078,0.4127760931464833,0.6180161118170977,0.5409167822158005,0.15972204473780505,0.3109756097561185,1
0.8412720346364702,0.43159863231489826,0.5831926354580772,0.557936989393485,0.1602579196573087,0.3109756097561096,1
0.8768673202731774,0.462519431748393,0.4880308609618925,0.5316292108654568,0.1599899821975567,0.3109756097560954,1
0.8886751502009165,0.46639614834024773,0.4389290469626107,0.5272590486926882,0.15932024329307923,0.3109756097561025,1
0.8746824713301546,0.4526514852558013,0.49500688973380247,0.557775892498675,0.15878436837357557,0.3170731707317138,1
0.8617203477584238,0.44840335815401117,0.5173153245794061,0.5532411885999777,0.15851643091382378,0.3170731707317156,1
0.8623463081029449,0.44152804192417877,0.5373692960698525,0.507844802214532,0.15878436837357568,0.31707317073169783,1
0.8700074442019896,0.47186715866403023,0.5116269701789613,0.5010031785824842,0.1583824621839483,0.3170731707317138,1
0.86810900361185,0.480788155957494,0.5204814713245269,0.5030169535220549,0.15704277488518917,0.31707317073171737,1
0.8671948114833787,0.48341079305776735,0.512160088090622,0.551729488178404,0.15650700471058773,0.3170731707317067,1
0.8707370814912531,0.47827488500940374,0.5192675315149543,0.6044722777134207,0.15610509852096033,0.3170731707317067,1
0.8639559161227942,0.4815036308390304,0.5222373989432239,0.6215453985589139,0.15583716106120835,0.3170731707317227,1
0.8708350599729546,0.4778638661489496,0.5189432876906119,0.509593652215633,0.15570319233133237,0.31097560975610605,1
0.864165515675074,0.4778426596388864,0.5183865014101199,0.46296566425931235,0.15530128614170496,0.3109756097560936,1
0.8698041065361672,0.4746553480876344,0.5271813849185704,0.5104550837624161,0.155167317411829,0.3109756097560883,1
0.8656445136165658,0.471634460523643,0.5227692318083111,0.536460882260363,0.1547655159671039,0.31097560975609895,1
0.868917464447267,0.47422715490957323,0.5236812138338476,0.5097343665925989,0.15422964104760048,0.323170731707334,1
0.8650529120410345,0.4743869858060571,0.5259849464241118,0.533744944424763,0.1543636097774756,0.3231707317073127,1
0.8695874678781871,0.47065631385646745,0.5271908592408376,0.5493744585135896,0.15409567231772392,0.3231707317073269,1
0.8650315721949937,0.4723496958205136,0.5228141849930159,0.5244275151693998,0.15369376612809693,0.323170731707318,1
0.8694448845711422,0.4711943847311294,0.5239679813562187,0.5192326316063984,0.15342582866834456,0.3231707317073056,1
0.8625824568744258,0.4680273507943652,0.5247801860297798,0.5568365400317244,0.1531578912085924,0.32317073170730914,1
0.8684019300071714,0.472548905346344,0.5236312491317549,0.5388974972918068,0.15275598501896553,0.3231707317073287,1
0.8645196373089228,0.46842729816963125,0.5241639434822881,0.5160292539129475,0.1526220162890897,0.3231707317073269,1
0.8694102281733038,0.471764123805828,0.5242685411279748,0.5471015151068057,0.15235418357423977,0.32317073170732336,1
0.8638161460987009,0.46879406062808127,0.522908035397056,0.5561522347488566,0.15222021484436346,0.323170731707318,1
0.8703918533915931,0.47493011767799287,0.5218038128059321,0.5178032172791489,0.1515503711949844,0.3231707317073216,1
0.8661668979210397,0.4728086419048871,0.5113481938021338,0.5378425530765628,0.15128243373523204,0.32317073170730914,1
0.8807272438640998,0.4768700488495348,0.4982041637244882,0.5591776422770306,0.15114846500535656,0.329268292682924,1
0.8662898726272602,0.46794616556986723,0.48687116006161113,0.5276029442258595,0.15074655881572926,0.32926829268292934,1
0.87175896573416,0.4690639012537309,0.5082068283729846,0.5200514864004077,0.15396170358784786,0.32926829268292757,1
0.87310474032408,0.5163501237513792,0.541176566841679,0.5725983147575151,0.16307115823979954,0.329268292682924,1
0.8472891271154483,0.5318716039234732,0.5436761473659069,0.5319242816196837,0.15958807600792901,0.32926829268292224,1
0.8587711925220493,0.5859323619383228,0.5435807715015089,0.5246410914805382,0.1561050985209598,0.32926829268292934,1
0.8602082502112915,0.571968483001187,0.554570358589595,0.5235186373317241,0.15329185993846847,0.3292682926829258,1
0.8575730967880617,0.5567438615210334,0.5391118770881228,0.6346173409408087,0.15181830865473606,0.32926829268292224,1
0.8584761452464771,0.5549304331772122,0.5541977826245242,0.5071560198509897,0.1510144962754803,0.3231707317073056,1
0.857381586131551,0.5566126397684182,0.5490351833483965,0.4592036085766029,0.1500767151663494,0.3231707317073127,1
0.857945661355396,0.5589099368877497,0.5541326768778508,0.5079985149944408,0.14927300753199677,0.3231707317073287,1
0.8597904055024406,0.5502121432692982,0.5480606446267179,0.5305369144514958,0.14887110134236864,0.323170731707318,1
0.8609299526935372,0.5489919631467725,0.5520031384904829,0.5154799594103883,0.14860316388261677,0.3292682926829382,1
0.8587832481063257,0.5485182644311928,0.5493783702274005,0.555182698973006,0.1483352264228648,0.32926829268290625,1
0.8611885814373947,0.5474545227589591,0.5535751800047748,0.5527162981460051,0.14793332023323766,0.32926829268292757,1
0.8595534352010119,0.5469432556652283,0.5478108876451862,0.5172945849818245,0.14753151878851228,0.3292682926829329,1
0.8611765194218541,0.5450011982896598,0.552187005439124,0.5431905636905631,0.1471296125988845,0.32926829268293645,1
0.8593281836796813,0.545102166882003,0.5485669633022516,0.5504324701381645,0.14699564386900849,0.32926829268292934,1
0.8602327330771358,0.544353304538266,0.552317457939326,0.519260710991885,0.14659373767938103,0.32926829268292934,1
0.8600631339592046,0.5450161430051946,0.5471902679193456,0.5392460946440376,0.1461918314897532,0.329268292682924,1
0.860605935185472,0.5444121562677121,0.5528725303677905,0.5508306495768441,0.1457899253001257,0.3292682926829258,1
0.8602716744778094,0.5449819306612966,0.5475150709165287,0.5208951662882241,0.14552198784037393,0.3292682926829329,1
0.8597926637702886,0.5444403252921748,0.5590159296785322,0.5365382733085031,0.14512018639564872,0.32926829268292757,1
0.8520870082846084,0.5441096225087898,0.5738543121167587,0.55408179169621,0.14485224893589663,0.3292682926829329,1
0.8347277439192287,0.5406942390987095,0.6210745387416575,0.5293997520791147,0.14458431147614492,0.3353658536585371,1
0.8237621996209146,0.5357373979527867,0.6422628427964494,0.5306058604689088,0.1443163740163931,0.3353658536585371,1
0.8274282478778652,0.5361104749106957,0.6423383206222297,0.5540165252567981,0.14364653036701353,0.335365853658546,1
0.8239990636149543,0.5358374386776307,0.6414020311828688,0.5534654011688367,0.14337859290726218,0.3353658536585584,1
0.8269451240391189,0.5348921382775234,0.6434363803172745,0.5372594160698527,0.1429766867176345,0.3414634146341591,1
0.8234681295526067,0.5361585811696851,0.6441589885092209,0.5538383141409021,0.14270885400278474,0.341463414634152,1
0.8265677051189158,0.5358400996978275,0.6438077502811627,0.5313023712797525,0.1423069478131565,0.3414634146341413,1
0.8235792815817435,0.5361851440170914,0.6430768782449765,0.5056551541524517,0.14177107289365343,0.3414634146341502,1
0.8268800425392614,0.5352360202971778,0.645746651560513,0.5354980410406637,0.14150313543390178,0.33536585365853355,1
0.8243606878541451,0.5350929809508023,0.6442529867662558,0.5427455890205205,0.1412351979741504,0.33536585365854776,1
0.8267115606487385,0.5348610743060396,0.6454014247962263,0.5117777352279111,0.1409672605143989,0.33536585365854776,1
0.8244647194100209,0.5342846171797047,0.6446421171140475,0.5270843418163872,0.14043138559489435,0.33536585365853355,1
0.8266316282983989,0.531579066397053,0.6427671221257497,0.5521361510488755,0.14029752160992057,0.33536585365853,1
0.8245325105499489,0.5319341879003106,0.6425059005564,0.5329896010985751,0.14016355288004492,0.3353658536585389,1
0.8265704479364703,0.534858215049215,0.6431019718268209,0.5145178515773943,0.1398956154202932,0.3353658536585371,1
0.824590495540946,0.5323237470566649,0.6423243440487972,0.5458276721015265,0.13935974050078997,0.3353658536585389,1
0.8265129167563198,0.5309104983890984,0.6437266848270125,0.5493661542482882,0.139225771770914,0.3353658536585282,1
0.824650458343168,0.5329554996832572,0.6434850857299624,0.5208565276546068,0.13842195939165816,0.33536585365854243,1
0.8264465554038115,0.5320842423626803,0.6451004990759158,0.5253827971544973,0.13868989685141067,0.3353658536585389,1
0.8247302332599763,0.5327019769772591,0.6439572424781259,0.5518024872674123,0.13815402193190718,0.3353658536585531,1
0.8263370920759863,0.5313644972273273,0.6455537711175681,0.5389065245970361,0.1378861892170572,0.34146341463416086,1
0.8249266518679608,0.5319574476122376,0.6432157832332888,0.5205407233344667,0.13761825175730555,0.3414634146341573,1
0.8250935405577957,0.5323191134154073,0.647030384513658,0.5413521329404823,0.13735031429755365,0.3414634146341502,1
0.8236035262461225,0.5272022257445458,0.6491116366087113,0.5539163373918594,0.13708237683780156,0.3414634146341431,1
0.8253401622285287,0.5274651336976054,0.6495504980601716,0.5271647381552397,0.13681443937804996,0.34756097560975086,1
0.8235178711805162,0.5288311892354562,0.6489598419818506,0.5193666899479092,0.13681443937805043,0.34756097560976684,1
0.8267358843715638,0.5279168290768121,0.6476786522730099,0.5579165660988571,0.1361445957286704,0.34756097560976684,1
0.8245364194444365,0.5269071252184523,0.6483002759380943,0.5680115948611644,0.13614459572867085,0.34756097560975796,1
0.8265619914518763,0.5279241967892646,0.6475815245883819,0.5103126389348549,0.1356088255540695,0.3475609756097544,1
0.82416787471454,0.5278975998798622,0.6474350936959155,0.5016392257240864,0.13493898190468992,0.3475609756097544,1
0.8257274589774457,0.527940452979198,0.6404118265934606,0.5424344202253535,0.13507295063456584,0.3475609756097704,1
0.8434108292581006,0.5359270310536595,0.6030350291869815,0.5403110136768045,0.13507295063456592,0.3475609756097544,1
0.8518752263229693,0.5358308002404683,0.583047209802507,0.5181938309037032,0.1341351695254348,0.3536585365853764,1
0.8477849119384053,0.5361762591866271,0.5857847319483017,0.5308703052192824,0.13413516952543453,0.35365853658537105,1
0.8515426909270669,0.5357174330523713,0.5883509720922049,0.5480480540383036,0.1337332633358072,0.35365853658537816,1
0.8450318821577032,0.5367084916266531,0.5928243138288495,0.5284388744533309,0.1333314618910812,0.3536585365853657,1
0.8477728106920733,0.5366472608278258,0.593494546642094,0.5192825985318207,0.13212574332219787,0.35365853658537816,1
0.8451095279054454,0.5358346399648617,0.592878968028129,0.5395267490896346,0.1326616182417021,0.3536585365853693,1
0.8442718260459103,0.5356571036661347,0.6002699873633506,0.5494435861254858,0.1323936807819502,0.3536585365853675,1
0.8375270109592505,0.5351834852179612,0.612661740164046,0.5283181950036592,0.13212574332219856,0.3536585365853675,1
0.8334037894950554,0.5346202218949063,0.6280489370304392,0.5395089123630656,0.13185780586244678,0.35365853658537105,1
0.8293624970466202,0.5390662269563076,0.6292752120672707,0.5602462335011364,0.13145589967281845,0.3536585365853533,1
0.8370098293505193,0.5504989697405412,0.6232441383357176,0.538406910105505,0.13158986840269452,0.3536585365853746,1
0.8294014824713516,0.5438376276438943,0.6316608805499331,0.5291977227511412,0.13105399348319127,0.35365853658536395,1
0.8232916071867579,0.5453003055393153,0.6454301751182875,0.5580286755411746,0.1307861607683416,0.3536585365853675,1
0.8235141663284671,0.5434739853721466,0.6485626162755856,0.5532495059488471,0.13011631711896207,0.35365853658537105,1
0.818901407409609,0.5457915361127519,0.656633220715773,0.5216387645918373,0.12944647346958296,0.3536585365853693,1
0.8156981028331374,0.5463369772489428,0.6604883363557983,0.5329323544740427,0.12837482837547823,0.35365853658537816,1
0.8196996175320506,0.5437012968243908,0.6609357874466852,0.5530778764672005,0.12824085964560208,0.3475609756097686,1
0.816193643262801,0.5469236354185173,0.6614908440548863,0.49078200692892665,0.12837482837547798,0.34756097560975086,1
0.8184607922553362,0.5452398353088069,0.6607024082320508,0.5049181519419552,0.1277049847260986,0.3475609756097615,1
0.8175012631463132,0.5446264165419725,0.6612532679949639,0.5480950880028481,0.1277049847260989,0.3475609756097562,1
0.819450185802298,0.5446727269221517,0.6623330778261425,0.5424596389100313,0.12743704726634658,0.35975609756097704,1
0.8167110184172708,0.5447909911714272,0.6596913039303919,0.5136967535442708,0.12730307853647033,0.35975609756096816,1
0.8163912820719474,0.5445523369375429,0.6612938842170935,0.5509201033234542,0.12690117234684317,0.3597560975609877,1
0.8174649487602976,0.5450270805763776,0.6605973961238398,0.5564400007441307,0.12663323488709144,0.3597560975609735,1
0.818585179934992,0.545824494095832,0.6632773455428028,0.5226984866664742,0.12623132869746373,0.35365853658537105,1
0.8179856734745491,0.5457472718817268,0.6587456450966411,0.5174971389513777,0.12623132869746356,0.3536585365853604,1
0.8191101299883309,0.5442546366672697,0.6626849253327423,0.5519630792225456,0.12582952725273805,0.35365853658537105,1
0.8179583984722463,0.5432870785450039,0.6583903868418526,0.5507005087968934,0.1256955585228623,0.3536585365853586,1
0.8110078329913334,0.5360281676325777,0.6710445090903778,0.5243467783069494,0.12582952725273816,0.35975609756097526,1
0.811623632598401,0.5316721254384951,0.6763989534785033,0.5167160748049253,0.12596349598261364,0.3597560975609735,1
0.8100299292586537,0.5344082191366044,0.6766526516383494,0.5578127243144971,0.12515968360335902,0.3597560975609895,1
0.8035400950392352,0.5306496952368426,0.6852648951216869,0.5485929374822329,0.1251596836033591,0.3597560975609788,1
0.8058229297992052,0.533043394758391,0.6835129720599891,0.5764389834996535,0.12489174614360671,0.35365853658536217,1
0.8037684090164516,0.5317485440401397,0.6849866550600556,0.5152143514374119,0.1248917461436071,0.35365853658536395,1
0.8060594222865742,0.5306614700580374,0.686318750647303,0.49417875482007195,0.12475777741373098,0.3536585365853764,1
0.8058268559622634,0.5300760153509868,0.6852470413297922,0.5412994131348072,0.12462380868385536,0.35365853658537105,1
0.8060630713573139,0.5286794022054794,0.6872439157091648,0.5239683286133694,0.1235521635897506,0.35975609756096283,1
0.8053544519554727,0.5277777750613409,0.6850856721596833,0.5270099483003936,0.12422190249422771,0.35975609756097704,1
0.8061329571771392,0.5270962179200896,0.6884782192007488,0.5536572117319025,0.12395396503447614,0.35975609756098237,1
0.8050479952218279,0.5275761875795034,0.6841171549804563,0.5454436279948633,0.12381999630460006,0.35975609756096816,1
0.8055109453846272,0.5252654684263297,0.6868334282451626,0.5052359153471686,0.12341819485987457,0.368902439024394,1
0.8047581903801159,0.519796385513255,0.6886837589208303,0.5303744906458323,0.12301628867024703,0.3689024390243869,1
0.8076382243927862,0.5185176130162492,0.6881723090947006,0.5602789686853517,0.12261438248061926,0.3689024390243869,1
0.8039172146233352,0.5208147785137555,0.6879131714063136,0.5210011765076095,0.12248041375074317,0.36890243902438336,1
0.8054696593539274,0.5211150406213987,0.6884503062727916,0.502739601041757,0.12194453883124012,0.36585365853659724,1
0.803924214052035,0.5177326556419474,0.6877560806487654,0.5323295792931635,0.12194453883123998,0.3658536585365866,1
0.8054534239665562,0.5212983837240394,0.6885570946576667,0.5472572308150774,0.12181057010136395,0.36585365853658836,1
0.8039385144198741,0.5207151658018015,0.6876752819354447,0.5249721379329372,0.12140866391173646,0.3658536585365777,1
0.805440854275357,0.5203668449639496,0.6886227197191013,0.5375384307534609,0.12127469518186029,0.36890243902439046,1
0.8039498571863342,0.5202851219382657,0.6876192142899868,0.5578416231975913,0.12114083119688723,0.36890243902441533,1
0.8054304077062889,0.5203994547712107,0.6886724768730399,0.5284215980401333,0.12087289373713492,0.368902439024394,1
0.8039596032881946,0.5192524544235183,0.6875737312017712,0.5270460424177021,0.12272750697496296,0.3689024390243887,1
0.8054212532013751,0.5193629679583328,0.6887150502411589,0.5616670221153448,0.12259353824508745,0.36585365853659724,1
0.803968216360303,0.5199600763523252,0.6875331002927938,0.5506984543125266,0.12125395569123018,0.365853658536583,1
0.8054131769048345,0.5192423299067578,0.6887544602225706,0.5113648990521286,0.12219163205546013,0.3658536585365795,1
0.803975717544001,0.5203940905797159,0.6874943468032022,0.5383157089385103,0.12178972586583173,0.3658536585365777,1
0.8054063394742896,0.5183692494864861,0.6887930193542213,0.5613100199672968,0.12152189315098239,0.36890243902439046,1
0.8039817321812515,0.5191915129524759,0.6874555865729706,0.5365795209565999,0.12152189315098258,0.3689024390243887,1
0.8054014190075609,0.5204456346651005,0.6888323338183315,0.5070706112226759,0.12125395569123096,0.36890243902437625,1
0.8039850887759765,0.5180127303146221,0.6874153894886968,0.536570784492445,0.12098601823147878,0.3689024390244011,1
0.8054004806193542,0.5190663061701793,0.688873730625813,0.5587331669093084,0.12071808077172697,0.3658536585365848,1
0.8039819248833009,0.517995241590238,0.6873724760908583,0.5317178145667621,0.12071808077172647,0.3658536585365759,1
0.805411489004,0.5211396853331637,0.6889184870105584,0.5178903589806307,0.1201822058522233,0.3658536585365848,1
0.8039530436231808,0.5182730163253302,0.6873255314770224,0.5479324437829046,0.12018220585222325,0.36585365853658125,1
0.8054961078509568,0.5188965115871097,0.6889679934894328,0.5541425499495921,0.11951236220284397,0.368902439024394,1
0.8034138861960722,0.5182585201805759,0.6872730506917464,0.5237954602580535,0.1199142683924716,0.3689024390244082,1
0.8039756966718139,0.5211618543724454,0.6890239117667949,0.5088099081199503,0.11937839347296844,0.368902439024394,1
0.8043648314269902,0.5179853240022284,0.687213166752014,0.5486022553164204,0.11951236220284381,0.368902439024394,1
0.8047083449929517,0.5190014717750988,0.6890883720402704,0.5546655449385209,0.11911056075811913,0.36890243902439934,1
0.8035457510320965,0.5185574480706844,0.6871434148847797,0.5295252304920306,0.1191105607581183,0.36890243902439046,1
0.8054822596950624,0.5199501897423022,0.6891642637947746,0.5100340338804109,0.11803881091911125,0.3689024390243869,1
0.8039713742823915,0.517607900723381,0.6870603645766391,0.5433648567696809,0.11857468583861511,0.3689024390243887,1
0.8053824484373817,0.519377626602388,0.68925571162609,0.5518303442848133,0.11844071710873952,0.37804878048780033,1
0.8040287424386549,0.5181217339185211,0.6869589919098287,0.5326108918719146,0.1179048421892358,0.37804878048781276,1
0.8053088199914622,0.5224419379874596,0.6893689193818688,0.5101386475988725,0.11777087345935952,0.37804878048780033,1
0.8048289776810413,0.5173739719121153,0.6868315214135645,0.5410531539828896,0.11736896726973231,0.3780487804878163,1
0.8055294545214094,0.5197891837686561,0.6895137935787032,0.5553019835921748,0.11736896726973303,0.3841463414634241,1
0.8039121170322625,0.5172455036096906,0.6866650955402773,0.533152915475782,0.1169670610801051,0.38414634146341164,1
0.8054664816305859,0.5199531004796434,0.6897073814203868,0.5171487783823577,0.1168330923502284,0.3841463414634223,1
0.8039086743703332,0.5170327510949424,0.6864365384117225,0.5418938500307616,0.11656525963537914,0.38414634146340276,1
0.8055026081725385,0.5202227648235377,0.6899821579740233,0.5527230952126474,0.11643129090550325,0.3689024390244011,1
0.803821237475792,0.5166907467002279,0.6860985989525887,0.5258271925186002,0.11616335344575116,0.3689024390243798,1
0.8063419450578615,0.5206639177779859,0.690410323788844,0.5207482295488937,0.11616335344575168,0.3689024390244011,1
0.8039799157849126,0.5161028296896857,0.6855331779557148,0.5474534721197802,0.11522557233662051,0.3689024390244011,1
0.8055062225379372,0.5214934591526093,0.6912067337973413,0.5491020408922689,0.1156274785262475,0.36890243902439224,1
0.8038438554916477,0.5147835864283393,0.6842552290777226,0.5173003295477797,0.11535954106649599,0.368902439024394,1
0.8053149502118233,0.5259822930041732,0.6924471312939575,0.5171329702585373,0.11482366614699269,0.3689024390244029,1
0.8067077021266201,0.5177592206526341,0.6791198744087965,0.5574776035083494,0.11495763487686825,0.368902439024394,1
0.8248661310136258,0.5492364704442468,0.67245045786045,0.5499544516496068,0.1145557286872406,0.36890243902439046,1
0.8082183098076741,0.5046822333773834,0.6386459612662871,0.5182889596096408,0.1148236661469921,0.36890243902439046,1
0.8222011799526661,0.49159062347759186,0.6589674994284713,0.5131316728018978,0.11428789597239108,0.368902439024394,1
0.8181861135715169,0.5065419589478257,0.6873122216819156,0.5604117952452484,0.11428789597239122,0.3689024390243887,1
0.7891785435065444,0.4786526222559554,0.7033433020131217,0.5786823301248264,0.11388598978276385,0.3780487804878163,1
0.7839038188332651,0.4837641068480039,0.7233995065147029,0.5626864490030208,0.11401995851263919,0.37804878048780743,1
0.7834352702103042,0.4714269972334589,0.7226256475958975,0.495012719463758,0.11388598978276385,0.37804878048780743,1
0.7842550823978667,0.477994817877031,0.7266992057332484,0.46510358838850707,0.11361805232301231,0.3780487804878092,1
0.7833647771901138,0.4724221369525374,0.7234370048424129,0.5177920559038998,0.1126802712138803,0.3841463414634134,1
0.7842958527219354,0.47716369914734547,0.7230594643795285,0.5303166479406938,0.11308217740350812,0.38414634146342763,1
0.7833050761983978,0.4730377069900919,0.7209691004844018,0.55662441951674,0.11294820867363226,0.384146341463417,1
0.7843918357152131,0.4766931365743705,0.7215298367607147,0.5636263241662358,0.11281423994375639,0.38414634146341164,1
0.7831554265557692,0.47340819627699576,0.7226867363145925,0.538832896428608,0.11268027121388016,0.378048780487811,1
0.784638714325709,0.47639477259997903,0.7230186183961484,0.5309736116578381,0.11241233375412812,0.3780487804877968,1
0.7825162151874501,0.4736522665313405,0.7256005782336615,0.5565041790599345,0.11227836502425267,0.37804878048780033,1
0.7841886741962746,0.47619359643754205,0.72415106137944,0.5422512879697778,0.11201042756450136,0.3780487804878092,1
0.7812844672541174,0.47381726375260663,0.7260061971403028,0.5194983053278768,0.11174259484965168,0.3780487804878163,1
0.7848235412538549,0.4760624624180742,0.7232212163825746,0.5339974820660552,0.11160862611977534,0.3780487804878021,1
0.7823943598196563,0.4739107660982232,0.7256359605930953,0.5566439619201409,0.11160862611977543,0.3780487804878092,1
0.7856966827238852,0.47602298096179235,0.7229216000288923,0.531857191951592,0.11120671993014813,0.3780487804878092,1
0.7798545675304035,0.4738422658416534,0.7281705550666306,0.5164394809304325,0.11093878247039657,0.3841463414634205,1
0.7886972240412198,0.4764408182317013,0.7170912013664046,0.5464146073830917,0.11026893882101702,0.3841463414634152,1
0.775215520520985,0.46838911216684914,0.7296168549158655,0.5418250983682152,0.11013497009114115,0.3841463414634241,1
0.8281409771881465,0.4812950706985668,0.6206066558203136,0.5164395443566683,0.11053687628076822,0.3841463414634152,1
0.8918422800181423,0.4987228096778598,0.4679490404357887,0.5214143819445666,0.11120671993014775,0.3841463414634152,1
0.8746755710477041,0.48458107112461524,0.4705585781988816,0.5571705670352218,0.11281423994375625,0.3841463414634134,1
0.8816141454940327,0.47448412577179977,0.4760475962997729,0.5453738319000814,0.11281423994375639,0.3841463414634241,1
0.8731898193665895,0.4776370126180709,0.48432208777337366,0.5276700277198687,0.11281423994375628,0.3841463414634134,1
0.8765986683281723,0.4752619154795135,0.48831936502246126,0.5182773034559194,0.11281423994375628,0.39024390243901763,1
0.8719406516634804,0.4761392771862713,0.49776396038172455,0.5452379099100303,0.11281423994375661,0.3902439024390354,1
0.8764953321477458,0.4737861775061319,0.4922717138500667,0.5641550674636611,0.11241233375412879,0.3902439024390265,1
0.8715979124659939,0.47615116576316674,0.4989895932245483,0.5068538242616819,0.11227836502425254,0.39024390243902296,1
0.8756616064775482,0.4737365589933259,0.4964855020733848,0.5183054962877067,0.11214439629437711,0.3902439024390212,1
0.8714210696432299,0.476383949894295,0.5013135522650853,0.5495815237127318,0.11227836502425292,0.39024390243903007,1
0.8732635044332516,0.47234098837787875,0.50257158321078,0.5300728535611844,0.112010427564501,0.3902439024390194,1
0.8682909841656751,0.47294022455573437,0.5055294390138698,0.5132237502109277,0.11187656357952697,0.39024390243900875,1
0.8735060680309573,0.47127574870476796,0.49970108646171674,0.5454551154774275,0.1109387824703961,0.39024390243901763,1
0.8687055758753073,0.47334501945879104,0.5054314860639525,0.5537744952995226,0.11160862611977615,0.3902439024390354,1
0.8733739242680609,0.47290537560585666,0.5011065767252856,0.5310306301887887,0.11134068866002406,0.3902439024390265,1
0.8693048015980017,0.4723210317009189,0.5046576729241381,0.5159130504664864,0.11107275120027182,0.3902439024390212,1
0.8734259802388478,0.47130072277008095,0.49920466464760826,0.5467612738081108,0.11093878247039651,0.3902439024390265,1
0.8686268987796018,0.4732868753028977,0.5003558499728201,0.548853471642825,0.11093878247039596,0.3902439024390283,1
0.8762135573826688,0.4823477574716618,0.4921289897015595,0.5268129412349835,0.11067084501064398,0.3902439024390194,1
0.8696490981955427,0.49248219676595484,0.5003438955573528,0.5249064063836453,0.11067084501064406,0.3902439024390194,1
0.8721831597037527,0.48893734098526476,0.504625424933052,0.5517730246123336,0.11013497009114079,0.3902439024390194,1
0.8695066029849962,0.4899363017989035,0.5121508469104914,0.536551256566064,0.10986703263138906,0.39024390243901763,1
0.870109657971537,0.49145001390740667,0.5126896342076362,0.5327927154112416,0.10973306390151327,0.3902439024390283,1
0.8679722808987438,0.49259319270931257,0.5141391483931357,0.5602850955041342,0.10946512644176146,0.3902439024390212,1
0.8685874288204445,0.4883852373494365,0.5124087937898939,0.5145270898453811,0.10933126245678765,0.3841463414634241,1
0.8673904688488765,0.4892227934058969,0.5143979342026872,0.4851520110343913,0.10906332499703539,0.3841463414634152,1
0.8700973614440939,0.4870021920865095,0.5121315521978088,0.5356771129340161,0.10906332499703583,0.3841463414634063,1
0.8694466026558351,0.4881909677636179,0.5145749343462596,0.5607365300382603,0.10879538753728452,0.3841463414634134,1
0.8700107740545748,0.48583078640432875,0.5095375500042707,0.5311664245692987,0.10866141880740798,0.40243902439024737,1
0.8671626023285642,0.483574259670087,0.5126053568481082,0.5247437057737374,0.10825951261778027,0.40243902439024914,1
0.8715537172699191,0.4837459567883004,0.5073345760903273,0.5598237980696847,0.1082595126177803,0.40243902439023316,1
0.8609148782062869,0.4821316680841509,0.5397015800204374,0.5383145872845753,0.10785760642815301,0.4024390243902385,1
0.854248266630028,0.47896622765270486,0.5693086439434323,0.5222404758039004,0.10799157515802854,0.3963414634146254,1
0.8609608965955258,0.4810588185604233,0.5566529719985195,0.5435294126366566,0.1071878675236761,0.3963414634146325,1
0.8568935809142532,0.48254897279750053,0.5619622480224444,0.5544393081140845,0.10758966896840075,0.3963414634146325,1
0.8593878292883532,0.480720614793876,0.5585803729392571,0.5145143262957901,0.10745570023852488,0.3963414634146307,1
0.8595542013003347,0.4834173847007456,0.5596149688215166,0.5348200269568103,0.10705389879379976,0.3963414634146254,1
0.8602379382845698,0.48007327480873063,0.5579815571788005,0.5647074186199715,0.10718786752367584,0.39634146341463605,1
0.8595537709516585,0.48004593010651864,0.5572961192559811,0.534930509746165,0.10691993006392408,0.39634146341463783,1
0.8650823369758883,0.48463972729718163,0.5494330897823665,0.5144395771460939,0.10678596133404758,0.39634146341462717,1
0.8735139076865179,0.5182429073305608,0.5000477787357632,0.5503766302767824,0.10584818022491702,0.39634146341464493,1
0.8736512079014194,0.5611952938121194,0.4689403725946398,0.5472224110177926,0.1061161176846685,0.3963414634146343,1
0.8763574019084361,0.5724448005920895,0.4734790003074625,0.5315737901452818,0.10611611768466853,0.3963414634146343,1
0.8721035192280153,0.5728716045107657,0.4714285211746918,0.5527122123267486,0.10638405514441968,0.39634146341463783,1
0.8722013095984049,0.577021544249706,0.47087511618571326,0.6787608459663228,0.10611611768466889,0.3963414634146414,1
0.8752550996561514,0.5752393392673181,0.47126308935683425,0.6581172344537164,0.10611611768466903,0.39634146341463783,1
0.866890929187586,0.5911533885416511,0.4738460252531151,0.4791872223250219,0.10558024276516492,0.39634146341463605,1
0.8730810074798248,0.587081698079037,0.47441804541209986,0.4302958458652883,0.10531230530541288,0.39634146341464493,1
0.8693240522423469,0.5902018742296677,0.47683066393844076,0.47990705752373475,0.1053123053054133,0.39634146341463605,1
0.8726506589130898,0.5859175263559544,0.4743147232189665,0.4716240787612726,0.1051783365755371,0.3963414634146236,1
0.8720979498329637,0.5881030822606644,0.4731933961996768,0.48469160513201726,0.10491039911578576,0.39634146341464493,1
0.871531687258897,0.586264173442115,0.4760486201569608,0.5223128369503326,0.10464256640093653,0.39634146341463783,1
0.8705590933410384,0.5875475080168172,0.47588280202675226,0.5205305418865975,0.10450859767105952,0.3963414634146414,1
0.8705375418696767,0.5836394059521416,0.4758152134438106,0.5153117006490266,0.10410669148143256,0.3963414634146254,1
0.8709570325181052,0.5769706613117722,0.4807496673999393,0.5352293449536377,0.10410669148143231,0.3963414634146254,1
0.8705661324915024,0.5711603864884531,0.4811481355674886,0.5619766271822886,0.10370478529180466,0.39634146341463605,1
0.8718248948199578,0.5711735859952813,0.4805199489964129,0.5290350486221149,0.10357081656192879,0.3963414634146325,1
0.871751861961219,0.5694210553384799,0.4807470864003699,0.5066333415985647,0.10343684783205337,0.3963414634146343,1
0.8737517835142691,0.5666754548568048,0.480498628408241,0.5183284872189959,0.10316891037230164,0.39634146341463783,1
0.8725647530540726,0.5649269641207677,0.48025803281282387,0.5406242986641335,0.10303494164242594,0.3963414634146343,1
0.873376980141068,0.5633461239258833,0.4800262107935901,0.5232037020796801,0.10290097291254932,0.40243902439025625,1
0.8723877559070023,0.5672708735087064,0.4759980617125416,0.5190374318019615,0.10276700418267368,0.40243902439024737,1
0.8747968600310738,0.5673122521496992,0.4770648428908655,0.5638415767689818,0.10223123400807185,0.40243902439024204,1
0.8729202108899118,0.5633070922201436,0.4769676118554939,0.5615451561997291,0.10209726527819624,0.40243902439024204,1
0.8746592711861494,0.56441227569364,0.4790619829171603,0.506141974327279,0.10196329654832051,0.39634146341464493,1
0.8729447103964504,0.5622755022084778,0.47912304159767727,0.5439093224522553,0.101159484169065,0.3963414634146325,1
0.8747533507396008,0.5622989255998353,0.4793253765430172,0.582888969285749,0.10169535908856886,0.3963414634146414,1
0.8724246573659674,0.5642824164341268,0.47894823734198355,0.5327516104030512,0.1014274216288166,0.39634146341464316,1
0.8744660260050076,0.5618092262205496,0.48030888528280846,0.5077787642858642,0.10115948416906481,0.39634146341463605,1
0.873834370814508,0.5625250107547722,0.4793683393136003,0.5625712220625233,0.10089154670931397,0.39634146341463783,1
0.8742333825004853,0.5629719376069461,0.4815632300977869,0.5730364547080667,0.10075757797943843,0.3963414634146325,1
0.8724503767330462,0.5622585260757119,0.4778097731113375,0.5243713550530889,0.10048964051968523,0.3963414634146343,1
0.8729814946665072,0.5618801688444183,0.47777177418804323,0.5087800597126164,0.10035567178980936,0.3902439024390212,1
0.8731488446527615,0.5643601818830548,0.47844747457349324,0.566294091670493,0.09995387034508443,0.39024390243903184,1
0.8745744853256205,0.5644112062232685,0.47759859425238005,0.5573206194348493,0.09995387034508466,0.3902439024390194,1
0.8739217246087856,0.5640511771031846,0.4784462210301405,0.5170914985385602,0.0998199016152091,0.39024390243903895,1
0.8747167816131685,0.5645511209266264,0.4766466013730559,0.5453396017530843,0.09955196415545661,0.3963414634146307,1
0.8730273540119151,0.5633359159988965,0.4785010861738409,0.5711297682125106,0.09955196415545645,0.3963414634146325,1
0.8745816960103654,0.5565257746072809,0.48305061293363966,0.5309842564683985,0.09861418304632552,0.3963414634146467,1
0.8735234695204741,0.5629744746515297,0.4782818728933131,0.49805644598826815,0.09888212050607659,0.3963414634146183,1
0.873619031672433,0.5583261893116372,0.4802306222425917,0.5500582605606321,0.09861418304632583,0.3902439024390283,1
0.8747904119194678,0.5609337116933831,0.4754281763518532,0.5374679941083912,0.09888212050607775,0.3902439024390425,1
0.8740921789603464,0.5605261898087986,0.47811687515754486,0.48253500708861785,0.0979443393969461,0.3902439024390283,1
0.8737932864248097,0.5576996673672768,0.47789604133604835,0.5279480366874049,0.0983462455865737,0.3902439024390283,1
0.8724504680695371,0.5573254819603702,0.47786827095172424,0.5776490781724866,0.0979443393969458,0.3963414634146414,1
0.8756818901956661,0.5542629267529224,0.473364562986352,0.5544025478704251,0.0980783081268222,0.3963414634146343,1
0.8734516303268373,0.5554852619433418,0.47837156364223554,0.5176574224539675,0.0976764019371944,0.39634146341464493,1
0.8775894358784828,0.5529904564140127,0.4666340504389158,0.5314994686592743,0.09767640193719415,0.3963414634146254,1
0.8782840271007006,0.5592849377804496,0.46306742995387595,0.5652991777570092,0.09740856922234475,0.3902439024390265,1
0.8794582240903703,0.5628666040695235,0.45550170055038186,0.5328203961994723,0.09714063176259252,0.39024390243901763,1
0.8752205103287929,0.5639933254224823,0.45753067916907253,0.5022487480886919,0.09714063176259297,0.3902439024390283,1
0.8785485032757419,0.5600000624488388,0.45475384165915633,0.555558072809422,0.09687269430284126,0.3902439024390194,1
0.8781537242320692,0.5608108929769584,0.46021141463189097,0.5842303554736734,0.09700666303271685,0.4024390243902456,1
0.8829687869741081,0.5592672297616895,0.458355919196726,0.5407702144025792,0.09660475684308925,0.40243902439024914,1
0.8634312138291933,0.5524657638611099,0.5246147469719536,0.5345415884313728,0.09660475684308917,0.4024390243902509,1
0.8335303504273621,0.5190334964425821,0.6179541978837617,0.5601428396184954,0.09566697573395835,0.40243902439024737,1
0.8458612180233198,0.519450358826622,0.6076482057703821,0.5035709846727126,0.09580094446383464,0.4024390243902509,1
0.8394435298574705,0.5191936409777214,0.6126957398392523,0.4469613625748307,0.09513120555935664,0.40243902439024026,1
0.8501993406173762,0.5307257913199147,0.5914968521982643,0.4144876237659888,0.09513120555935645,0.40243902439024026,1
0.8373437455440914,0.5366601677575342,0.6149671453076857,0.5019172819166862,0.09499723682948075,0.4024390243902456,1
0.8389361225763982,0.5471081922285783,0.6157134472748704,0.5790134176784374,0.094997236829481,0.39634146341463605,1
0.8294923479218529,0.5397729178250764,0.6373384592274777,0.5497209440866385,0.09499723682948094,0.39634146341463783,1
0.8158217133187904,0.51768882439485,0.6683781053805258,0.5847783613335429,0.09459533063985295,0.39634146341464316,1
0.8146990254377866,0.5337134218991191,0.6684133100937879,0.5730665308582449,0.09472929936972907,0.39634146341463783,1
0.8197532699891308,0.5241201714991348,0.6608259194472896,0.5585981213000629,0.0941934244502256,0.4024390243902456,1
0.8131919553721436,0.5337850841729515,0.665891889596266,0.5774790558122067,0.09405945572034982,0.4024390243902509,1
0.8135584321052971,0.5269992942286789,0.6723667736101763,0.5826590554719991,0.0936575495307217,0.4024390243902527,1
0.8071181575307111,0.5278429917544579,0.6767457067950438,0.5409056805514807,0.09352358080084566,0.4024390243902385,1
0.8126947255823955,0.5267269210581845,0.6756437818820616,0.5114250070093794,0.09285373715146678,0.4024390243902527,1
0.8101090176274366,0.5277482531271439,0.6773236994240308,0.5383701870356193,0.09312167461121831,0.4024390243902456,1
0.8120460671469516,0.5268513608216793,0.6791244807439244,0.5276466729430942,0.09258590443661732,0.4024390243902509,1
0.81087740860398,0.5276491395220089,0.6788910889148303,0.4926491041737963,0.09245193570674093,0.4024390243902456,1
0.8110465026774778,0.5267088238437593,0.6790067904497126,0.557233306457451,0.09205002951711344,0.40853658536586046,1
0.8061090875977263,0.5197537429084873,0.6904948836048292,0.5643234973522778,0.0920500295171138,0.4085365853658516,1
0.8013793985043991,0.5181219903567261,0.6920338458374814,0.511730658233369,0.0917820920573624,0.4085365853658658,1
0.8030920899527212,0.5185894783102994,0.6892550721341062,0.5023459121873028,0.09138018586773494,0.40853658536586046,1
0.800904357602619,0.5170806365706073,0.6963550363970209,0.550487606153569,0.0915141545976094,0.4024390243902367,1
0.7998715615839609,0.519760249742963,0.6928614978564814,0.5155631010821174,0.09138018586773392,0.4024390243902385,1
0.7983476833924222,0.512173427283545,0.6995698833246962,0.500744516794153,0.09057647823338151,0.40243902439024914,1
0.7936472031901368,0.5055305803390492,0.7041545024832597,0.5625536060618986,0.09111224840798267,0.4024390243902314,1
0.7944709293970853,0.5072243796435925,0.7053936618655683,0.5710182275592847,0.0909782796781066,0.4024390243902509,1
0.792877971247687,0.5077817880603663,0.706337508901631,0.5152231546095791,0.09097827967810686,0.4024390243902456,1
0.7911710551533409,0.5087798719443973,0.7085436560218124,0.5104050325250055,0.09057647823338082,0.4024390243902509,1
0.7916472919000915,0.5096578245217626,0.7056203571997663,0.5542460616845244,0.09044250950350506,0.40243902439024026,1
0.791569233830995,0.5086611170996472,0.7139580433221933,0.5445557493961412,0.09030854077362925,0.40853658536585336,1
0.8107705434526249,0.5188914777227698,0.6735625184246773,0.5061850450391864,0.09017457204375305,0.4085365853658445,1
0.8408827669089771,0.5327225365370944,0.6163666325557742,0.5375410044019076,0.08923679093462177,0.4085365853658409,1
0.8319938001312288,0.5241010948654397,0.6332106519587162,0.5689296409131108,0.08655752108200666,0.4085365853658516,1
0.8264195605296127,0.5269757267712601,0.6411893239644937,0.5327527497474059,0.0864235523521309,0.41463414634147,1
0.8318166403759848,0.5224925816187003,0.6387880638200389,0.5210496189375798,0.0862895836222551,0.4146341463414718,1
0.827590287489077,0.5232786134583738,0.6407586824104974,0.5646733791948761,0.08575381344765316,0.41463414634144513,1
0.8347394138241224,0.5189267920045485,0.6321432186206468,0.5493341512306016,0.08548587598790129,0.41463414634145757,1
0.844525541361861,0.5350835724624678,0.5968642218052105,0.4935986001070521,0.08588767743262739,0.4176829268292721,1
0.8625282529735465,0.5746947578048047,0.5161372703671143,0.5248339984007973,0.0862895836222549,0.417682926829265,1
0.8738259639994268,0.5609146399327979,0.49297234624864417,0.5605396431728975,0.08682545854175847,0.41768292682927743,1
0.8710466947926396,0.5540253973068192,0.49340350082669954,0.5113865529591786,0.0868254585417586,0.4176829268292632,1
0.8769228821152816,0.5422121491383788,0.48965285497128885,0.5548410931763254,0.08669148981188299,0.41768292682925967,1
0.8697018714591513,0.5462223661746193,0.4978053270463729,0.6108528883497166,0.0866914898118824,0.41768292682926855,1
0.8729989771983075,0.5443377334314639,0.49780452239852346,0.5381129461278795,0.08628958362225465,0.41768292682926855,1
0.8686971309623477,0.546514439048158,0.5047002324737541,0.48092677614230256,0.08588767743262746,0.417682926829265,1
0.8694655109750855,0.5430207111679914,0.5045528281869499,0.5059680858669713,0.08575381344765377,0.40853658536586046,1
0.8663745862087369,0.5461207967225077,0.5086540352037558,0.5463903944541758,0.0856198447177776,0.40853658536586224,1
0.8694003313406538,0.5433711305761189,0.5099178661001735,0.531073025708946,0.08548587598790171,0.4085365853658569,1
0.8672325046635557,0.5461244390241696,0.5123166672840811,0.5148289100745501,0.08521793852814999,0.4085365853658569,1
0.8673939843099108,0.5422477337092475,0.5148937887360919,0.5440865718700117,0.08508396979827369,0.41768292682926145,1
0.8675825383797136,0.5442899747131508,0.5073921416542275,0.5431262277974019,0.08521793852814963,0.41768292682925967,1
0.8695258294276444,0.5378721967718428,0.5252142210405213,0.5196344415205759,0.08535190725802615,0.41768292682927033,1
0.8351855979769326,0.5224509805115592,0.6128767155347354,0.5361510139118891,0.08561984471777749,0.41768292682925257,1
0.8325752560040804,0.5259632147453156,0.6240650664904586,0.5422154370088917,0.08468206360864612,0.417682926829265,1
0.8346944170195787,0.5250832442685976,0.6241930536465996,0.5165382421728407,0.08508396979827362,0.4176829268292792,1
0.8366969845956184,0.5243100874099087,0.6226396511221248,0.521317709415441,0.08495000106839816,0.4176829268292721,1
0.8338876529655852,0.5281296176502158,0.6246643886970685,0.552768248465346,0.08454809487877107,0.41768292682927033,1
0.8404207747193485,0.5294248882391264,0.6158992607935998,0.5518446330042591,0.0845480948787706,0.417682926829265,1
0.8384361165080846,0.536699895182762,0.6135425679800446,0.5247569749072749,0.08428015741901827,0.417682926829265,1
0.8412683885720056,0.5351991916838844,0.605832367031552,0.5444320689882229,0.08401221995926647,0.41768292682925434,1
0.8412661429793138,0.5366985185850454,0.6016265841126455,0.5905296789421473,0.08387825122939122,0.4176829268292739,1
0.8554216122252214,0.5385010017035456,0.5731546593293284,0.5526917040851222,0.08374428249951543,0.41768292682926855,1
0.8512282612211963,0.5430516664039244,0.5788724830135596,0.518454600045367,0.08361031376963901,0.4176829268292632,1
0.8514427189286657,0.5394317042021096,0.5812166742109102,0.5314401665961381,0.08267263740541025,0.4176829268292579,1
0.8495492122350139,0.5418654685544414,0.582700155332055,0.5110133171984743,0.08294057486516189,0.41768292682925434,1
0.8501524169576425,0.5384787616439916,0.581962437902295,0.5036457626514689,0.08267263740541024,0.41768292682926855,1
0.8486128405181059,0.5360782163717539,0.5854754814062962,0.5371210464953143,0.08240469994565879,0.4176829268292721,1
0.8527886872660566,0.5362240558597233,0.5858890066096807,0.5320679659739506,0.08240469994565845,0.417682926829265,1
0.8494277395377663,0.5377845223654215,0.5875951877608936,0.5024815437793834,0.08186882502615528,0.4176829268292721,1
0.850572382556186,0.5360106889630822,0.583258000894334,0.5414821872591971,0.08186882502615464,0.42378048780487454,1
0.8467191114681425,0.5361764980278897,0.5855425953461326,0.5482251592325877,0.08173485629627901,0.42378048780488875,1
0.8519124905440921,0.5357849397380932,0.5863603115262583,0.5076052023800812,0.08160088756640314,0.4237804878048781,1
0.8491011430001412,0.5372320460120786,0.5837010320228242,0.5337411700235561,0.08146691883652735,0.42378048780487987,1
0.8524052346191137,0.5360225020949567,0.5846732788129447,0.5708307114383162,0.08133295010665154,0.4237804878048781,1
0.8488829479687139,0.5372419635273897,0.5863997325076252,0.528475729905757,0.08133295010665195,0.42378048780487454,1
0.8530000961409145,0.5355484497693169,0.5865581487765217,0.5245648031236781,0.08079717993205046,0.4237804878048692,1
0.8493239744398562,0.5362490553949573,0.5848452036501784,0.5601057773337197,0.08066321120217383,0.4237804878048781,1
0.8503905484056589,0.5365423983388535,0.5848538628397947,0.5262985882827623,0.08026130501254616,0.42378048780487987,1
0.8498023229485675,0.5367193516698844,0.5834312549374798,0.5212606489050174,0.08026130501254629,0.42378048780487987,1
0.8507055297194973,0.5354518498424501,0.5850538257316984,0.5613174571675646,0.07985939882291931,0.4237804878048781,1
0.8483137430127108,0.5364602122393696,0.5865982973449287,0.5387517938258451,0.07972543009304263,0.4237804878048692,1
0.8531613046372784,0.5355473871313678,0.5791320948817115,0.5179021609774819,0.07959146136316704,0.4237804878048692,1
0.8501453128078824,0.5363792787000488,0.584372677104246,0.5512501915313408,0.07959146136316696,0.4237804878048852,1
0.8538409814361927,0.5358550390256135,0.5814045404378043,0.5526827032604226,0.07932352390341496,0.42378048780487454,1
0.8480670917081505,0.5406260633840565,0.5859331328301282,0.5151542638984443,0.07918955517353968,0.42378048780488875,1
0.84906442041189,0.5409812036987125,0.5899050460831831,0.5251108592507191,0.07918955517353991,0.4390243902438993,1
0.8434863551950622,0.5415695905215914,0.602256178587852,0.5537660463533189,0.07878764898391137,0.43902439024388507,1
0.8305323275776466,0.5403863563690684,0.6321645917815809,0.5261310634396706,0.07851981626906179,0.4390243902438957,1
0.8312353528461236,0.5386312405642255,0.6324259664230457,0.5370721350441441,0.0782518788093102,0.4390243902438993,1
0.8310640357485752,0.5394912751557268,0.6333489380661667,0.5710478385879126,0.07825187880931049,0.4237804878048692,1
0.832213356436802,0.537551637117492,0.632624252429225,0.5257937352529938,0.07718012897030359,0.42378048780487987,1
0.8314673571696289,0.5357166651189784,0.6331690325607962,0.5193563414114913,0.07784997261968245,0.42378048780486033,1
0.8308574079975748,0.5362333325252534,0.6327581297393099,0.5407698515318649,0.07758203515993067,0.4237804878048692,1
0.8313518992107196,0.5357424165216905,0.6330689101610352,0.5211979681411084,0.0775820351599306,0.4329268292682915,1
0.8313904516398533,0.5362307398734893,0.6328352618903574,0.4979943125430777,0.07731409770017954,0.43292682926829684,1
0.8333161727205527,0.5357390751416725,0.6330069368993352,0.5467101705562734,0.0773140977001794,0.4329268292682915,1
0.8312664289185853,0.536237790446309,0.6328888034118688,0.5507686457010451,0.07718012897030331,0.4329268292682915,1
0.8326962124766238,0.5357263105181936,0.6329523239615453,0.5139581559444945,0.07704616024042735,0.42378048780486566,1
0.8320843756990428,0.5362637514004353,0.632976139711823,0.5275906857340706,0.07677822278067575,0.4237804878048834,1
0.8330438910056017,0.5356556162497761,0.6319143434218297,0.5632246023504479,0.07677822278067559,0.4237804878048781,1
0.8319530512941399,0.5383474717636605,0.6325972315930144,0.534020184992152,0.07664425405079964,0.42378048780487987,1
0.8331407976753527,0.5359308738527179,0.6319012331166962,0.5091400040393644,0.07624234786117232,0.4390243902438957,1
0.8318538764084422,0.536119383037008,0.6330029332006577,0.543821487374051,0.07637631659104771,0.4390243902438904,1
0.8332835381785766,0.5358314819724558,0.6329106474698053,0.5564310483227084,0.0762423478611722,0.4390243902439064,1
0.8313951991156023,0.5361495828334075,0.6329473078098882,0.5152857383846923,0.07624234786117197,0.4390243902438993,1
0.8324519708216838,0.5358190547705687,0.6329287093926159,0.5211718284528887,0.07610848387619863,0.4329268292682915,1
0.8310920158478707,0.5361545707969304,0.6329373932020874,0.5589386430464677,0.07584054641644676,0.43292682926828085,1
0.8336097255037073,0.5358179669341083,0.6329368679040721,0.5452202320059989,0.07570657768657067,0.43292682926828263,1
0.8298546882533813,0.5361532815288077,0.632928791172642,0.504386623272939,0.07570657768657078,0.43292682926828974,1
0.8319586456366367,0.5358209472353739,0.6329469523204706,0.5525730711763914,0.07543864022681875,0.4329268292682915,1
0.8308562941592075,0.5361487638564005,0.6329165438471379,0.566344509905678,0.0753046714969433,0.43292682926829684,1
0.832582135764758,0.5358275437150708,0.63296198029905,0.5413411635464309,0.07503673403719138,0.43292682926829684,1
0.8290562352375661,0.5361377349253373,0.6328980200063717,0.49493331244703925,0.07503673403719106,0.4329268292682915,1
0.8294754059368781,0.5358531234349093,0.6329849570411636,0.5410223304825241,0.07476879657744005,0.43292682926830217,1
0.8316406961284994,0.5360163697709903,0.6328691901296746,0.5619555996961404,0.07476879657743972,0.43292682926828974,1
0.8332725947968943,0.5340643263519672,0.6330218449485884,0.5429771435604379,0.0745008591176875,0.43292682926828974,1
0.8307354118182257,0.5355656096073478,0.6328204741923305,0.49722302091550075,0.07436689038781176,0.4329268292682844,1
0.8315583376346235,0.5334158041144231,0.6330895904736218,0.5364338938832774,0.07423292165793596,0.43292682926830395,1
0.8320340133964308,0.5346114492515219,0.6327174390267876,0.5646954533389418,0.07450085911768774,0.43292682926828974,1
0.8329768497633031,0.5348962339330081,0.633276941558589,0.537873177796052,0.07396498419818397,0.43292682926828085,1
0.8320544236643732,0.5338783081134654,0.6321508360199675,0.5050196741545152,0.07396498419818404,0.4329268292682933,1
0.8330135401598798,0.5327103888411463,0.6310273525984341,0.5365166345102252,0.0736971514833344,0.4390243902438993,1
0.8320135389310439,0.5322528737700178,0.6331477478851497,0.5626090456501905,0.0735631827534584,0.4390243902438993,1
0.8330598799557485,0.5333715060143541,0.6329468719330419,0.5280727303350793,0.07329524529370711,0.4390243902439046,1
0.8319493905043638,0.533331716277225,0.6327619421548885,0.5169248316979478,0.07342921402358257,0.43902439024390105,1
0.8331889800373756,0.5294774694276863,0.6333268126819469,0.5532698114717033,0.07329524529370664,0.4390243902438904,1
0.8308850529187416,0.5312009068240849,0.6313178238552202,0.5404437687871445,0.07289333910407879,0.4390243902439046,1
0.8308056497761123,0.5258029106476022,0.63647121671932,0.5020072074310724,0.07289333910407954,0.43902439024389217,1
0.828107704029273,0.5159091444312839,0.6379801190714882,0.5381940640167434,0.07235746418457663,0.4390243902439117,1
0.8293599986055354,0.515698947407347,0.6368790950452383,0.555920134433938,0.07262540164432811,0.43902439024390816,1
0.8293331870205166,0.5161845122837394,0.6390374345827854,0.5098610760953207,0.07235746418457524,0.43902439024388684,1
0.8304838131859437,0.5163914367257311,0.6374861792608774,0.5100300229312306,0.07235746418457549,0.43902439024390105,1
0.8288186266957571,0.513085816714996,0.6413150424327189,0.5533887255681029,0.07195555799494754,0.4390243902439046,1
0.8287898216752668,0.51900347600616,0.6408569655582461,0.5355641309266037,0.07222349545469982,0.4390243902438993,1
0.8262308919635823,0.5161259513056023,0.6404791559235535,0.5284516197153446,0.07168762053519684,0.4390243902438993,1
0.8324342041816799,0.5098628020455837,0.6333313520849754,0.567450408350379,0.07182158926507222,0.4390243902438993,1
0.8294197021058781,0.513808797057907,0.6344016569747177,0.5585200088738745,0.07168762053519659,0.4390243902438975,1
0.8325417206513922,0.5093540149264433,0.6321565847913995,0.5126396288266638,0.07168762053519621,0.45121951219511836,1
0.830117213464654,0.5137231949220908,0.6347847121812447,0.5424520835625621,0.07155365180532064,0.4512195121951166,1
0.8295185560429399,0.5091143022026582,0.6361718345396284,0.5581923962992162,0.07141978782034665,0.45121951219511125,1
0.8292867190707174,0.5099427361745574,0.6387974357598134,0.524147192677753,0.071285819090471,0.45121951219512013,1
0.8305975853663257,0.510543810747366,0.6338097423364357,0.5204401042535516,0.07115185036059482,0.44512195121950526,1
0.8301377511066231,0.511806868419375,0.6355612972926307,0.5507970640749482,0.07115185036059478,0.44512195121951237,1
0.8309467814508107,0.510317632843059,0.6340285239043797,0.5398365059262654,0.07034803798133968,0.44512195121951414,1
0.8298008920933785,0.5120340616296151,0.633515421446774,0.5143815472948867,0.07074994417096792,0.44512195121952125,1
0.8307194171746146,0.509247842929732,0.634347457981254,0.5428307307595798,0.07034803798133983,0.4451219512195035,1
0.8291666994165743,0.5115451112692402,0.6329809387227534,0.5552339847310268,0.07034803798134005,0.4451219512195035,1
0.8321661965212932,0.5088386523932409,0.6333302381109815,0.5142451901076286,0.07008010052158795,0.4451219512195106,1
0.8312693774094232,0.511270761989809,0.6341229902069214,0.5240861547634695,0.07034803798133948,0.4451219512195035,1
0.8322106059712717,0.5117523752497802,0.6338455752543146,0.5593611821423229,0.0699461317917119,0.4512195121951219,1
0.8319545550371079,0.5103011950457593,0.6326440015444159,0.5397159127523053,0.07341884427826749,0.45121951219512724,1
0.8327151547200284,0.509678944103781,0.6334629916298593,0.5108425779567001,0.07328487554839216,0.45121951219511836,1
0.8302836375557298,0.5077770475755835,0.6335952379233424,0.5377914686257178,0.07328487554839161,0.45121951219512013,1
0.830435697906841,0.5097459864772307,0.6359804356792247,0.5543095120312974,0.07301693808863974,0.44512195121950704,1
0.8302350963936859,0.5109423014389696,0.6334833633462026,0.5278783285693224,0.07301693808864011,0.4451219512195159,1
0.8311160235101384,0.5083316138107074,0.6340445726220019,0.5128977988153655,0.07207915697950926,0.4451219512195106,1
0.8287066884287508,0.5099936823812934,0.634393062952975,0.543320086140546,0.07261503189901272,0.445121951219523,1
0.8311917970318897,0.5110337609324881,0.6338185264968366,0.5550850725056495,0.07248106316913623,0.4451219512195035,1
0.8287655075407773,0.5115471622843488,0.6392024894168413,0.5201783811287903,0.07248106316913688,0.44512195121950704,1
0.8307882511422072,0.5078374849321248,0.6336651980752033,0.5187224730341011,0.07234709443926106,0.44512195121950704,1
0.8297918079908255,0.5097285246556471,0.6359667869760125,0.5534814779131655,0.07221312570938461,0.4451219512195035,1
0.8303310993629119,0.5093822795643158,0.6332350338985059,0.5483580766839343,0.07207915697950902,0.4451219512195195,1
0.8314469710234236,0.5092812235534047,0.6349827846059264,0.5136418332165609,0.07207915697950888,0.4451219512195035,1
0.8333260918390714,0.5092858130221456,0.6329807278009807,0.5219609341212602,0.07181121951975707,0.44512195121950704,1
0.829943866814852,0.5076406685426672,0.6345225415473182,0.5569404476297429,0.07167735553478369,0.44512195121951237,1
0.8314578963180799,0.5091923186078519,0.6350284113880726,0.5420541159603082,0.07127544934515596,0.4512195121951219,1
0.8295995088302245,0.5135604114194283,0.6333355666122613,0.5077277118389214,0.0711414806152801,0.45121951219512724,1
0.8300030478867033,0.5087932585980802,0.6360565078829841,0.5286482022210343,0.07114148061528036,0.45121951219512724,1
0.8303744675061899,0.5107948182189878,0.6327025760339811,0.5662713639816156,0.07100751188540429,0.45121951219513434,1
0.8310448791369938,0.5094036039796647,0.6334132354075928,0.5272262133387924,0.07087354315552831,0.44512195121949993,1
0.8317134190113005,0.5101545324840274,0.6351472567595827,0.514247319395665,0.07087354315552861,0.44512195121951237,1
0.8318419249501814,0.5095684775366418,0.632529931584299,0.5475416668044194,0.07073957442565244,0.4451219512195195,1
0.8317800786967602,0.5100711164389048,0.6331997832335852,0.5574361963313145,0.07060560569577638,0.4451219512195035,1
0.8321360253361808,0.509624355289934,0.6327217253326319,0.5147396583752264,0.0706056056957767,0.4512195121951148,1
0.8309701772418167,0.5100257043443334,0.6331205661570103,0.5163861022733023,0.07033766823602508,0.4512195121951219,1
0.832472851765548,0.5096674842963194,0.6327690936707924,0.5542024498673749,0.07033766823602439,0.45121951219511125,1
0.8324773536804819,0.5099788851285464,0.6330850387088011,0.556022243374256,0.06980179331652095,0.451219512195129,1
0.8325722043103672,0.509724930611706,0.6328004165009046,0.5135863832289869,0.070069730776273,0.45121951219512724,1
0.8325273244827254,0.509898905086669,0.6330539620371107,0.5197439175144611,0.06980179331652143,0.45121951219512546,1
0.8323140363983543,0.5098553213199936,0.6328340924143383,0.5579769113338977,0.06980179331652092,0.45121951219512013,1
0.8302830652737403,0.5096228317083811,0.6330147811145486,0.5524815404514224,0.06966782458664526,0.4512195121951379,1
0.8309136286050917,0.5111346844392644,0.6328827857600039,0.5125313276275921,0.06953385585676948,0.45121951219512546,1
0.8305839032789304,0.5112894127149149,0.6329496282497776,0.523648372750886,0.06926602314192015,0.45121951219511836,1
0.8314270007860478,0.5091614083669252,0.6329793181808369,0.5576685493784341,0.0691320544120437,0.4512195121951166,1
0.8311014208694217,0.5103412994476184,0.6327783830587863,0.5472177450276542,0.06926602314191972,0.4512195121951148,1
0.8295963541879143,0.5094041894842684,0.6334802391807073,0.514676219718585,0.06886411695229225,0.45121951219512546,1
0.8313831621750929,0.5102256931219504,0.6337075551715938,0.5364470469010374,0.06886411695229229,0.45121951219512013,1
0.8297847185095695,0.5094721444867412,0.6334999449139962,0.560152782849586,0.06859617949254067,0.4512195121951361,1
0.8285988526855137,0.5101810526796186,0.6419630084927823,0.5370387063469988,0.06873014822241627,0.45121951219511125,1
0.8282991393044846,0.5095042380237466,0.6410760914109517,0.5000584757535832,0.06846221076266445,0.45121951219512546,1
0.8254690774200341,0.5101530869120092,0.6420358225546547,0.5227979680235377,0.06846221076266473,0.4512195121951148,1
0.8286645812914495,0.5095522715931262,0.6412560559340059,0.5623464751061599,0.06819427330291268,0.45121951219512724,1
0.8267963200840918,0.5092392054941016,0.6402106739925106,0.5398080277161603,0.06846221076266439,0.45121951219511836,1
0.8293392137043843,0.5088366375600102,0.6387492187644708,0.5059663498572903,0.06819427330291286,0.45121951219511836,1
0.8280609159992851,0.5081840982794461,0.639764206617044,0.5259997226461838,0.06819427330291247,0.45121951219511836,1
0.8286051308970066,0.5018179321406998,0.6399558524064388,0.5556959425061123,0.06752442965353314,0.4512195121951166,1
0.8249411914348308,0.5011108821212679,0.6431445016520952,0.5386242688070731,0.06819427330291272,0.45121951219511836,1
0.8299695494030084,0.501009043861323,0.641229815358924,0.5213260900984429,0.06779236711328473,0.45731707317073145,1
0.8289563962979125,0.5012833209013163,0.6378012013543448,0.5383594880301641,0.0673904609236574,0.4573170731707261,1
0.828086703090334,0.5008800028616851,0.6407202514878656,0.5421220310950187,0.06752442965353299,0.45731707317072434,1
0.8286815685721254,0.5018617886281149,0.6428921213009957,0.5007187238778678,0.0673904609236577,0.45731707317074033,1
0.827352337633317,0.5050733290180636,0.6415134724687733,0.5368971134022086,0.06739046092365744,0.4512195121951166,1
0.8270080462864159,0.5070224809423985,0.641812878405043,0.5749491052835299,0.06725649219378162,0.45121951219512724,1
0.8262157647598625,0.503584607815762,0.6403616254157734,0.5718525477071794,0.06712252346390578,0.45121951219512546,1
0.8250049903588494,0.5082679721945541,0.6412907012350626,0.5320689103876864,0.06698855473402923,0.4512195121951059,1
0.8268306804628507,0.5067676846812239,0.6416746522034997,0.5281470734210538,0.06698855473402936,0.45731707317072434,1
0.8266485625711254,0.5075039810585961,0.6419524136342245,0.5533183349205997,0.06698855473403002,0.45731707317073145,1
0.8274605659616142,0.5074883733525387,0.6354356592929107,0.534637669132603,0.06685469074905626,0.45731707317073145,1
0.8285553112639781,0.5073081074383229,0.6385164666874149,0.4992039165896689,0.06658675328930366,0.4573170731707119,1
0.8295563676028996,0.507770696172682,0.6367726398989884,0.5243770920868877,0.06631881582955235,0.45731707317072967,1
0.8289174472866321,0.5092429177078504,0.6389263119471165,0.5570049814715321,0.06645278455942849,0.45731707317072967,1
0.8276391451815002,0.5082021932590323,0.6388788130018754,0.5417596625985978,0.06631881582955282,0.45731707317073145,1
0.8272362087919088,0.507725937532471,0.6459676504469698,0.5133884842707094,0.0661848470996767,0.45731707317073145,1
0.8176173477404766,0.5007629823524827,0.6631952849201084,0.5270165698902952,0.06605087836980064,0.45731707317073145,1
0.8176603449594531,0.5013152213130945,0.6615786003415007,0.5572028579564666,0.06578294091004883,0.45731707317072434,1
0.8185479425590927,0.5035430778511192,0.6608834595245832,0.5380417767017458,0.06578294091004891,0.45731707317073145,1
0.8176831665029339,0.5030072435243502,0.6620047086989537,0.5088907585007609,0.06578294091004948,0.4573170731707332,1
0.8185471018448447,0.5057888651813147,0.6611314435118929,0.5408885777388633,0.06564897218017304,0.45731707317071724,1
0.8176254975191407,0.5085927164088992,0.6605121170469861,0.5709493584312848,0.0655150034502971,0.45731707317072434,1
0.8191999482541205,0.5065661545471281,0.6604809950134352,0.5263712428794013,0.06538103472042142,0.4573170731707261,1
0.8181012477192172,0.507340172983402,0.6606157037720906,0.5051527923383153,0.0652470659905455,0.4573170731707332,1
0.8190776648344187,0.5080498447933147,0.6604439604970118,0.5454844643419254,0.06511309726066983,0.46341463414631967,1
0.8181606282260658,0.5054949836926143,0.6606182182538078,0.5539249407786573,0.06524706599054506,0.46341463414632855,1
0.8190419317043082,0.50558272438149,0.6604989592323172,0.5093144949302083,0.06471119107104144,0.46341463414633033,1
0.8181849021344696,0.505720191565889,0.6595823487668505,0.5086632221463614,0.06484515980091805,0.4634146341463268,1
0.8190239813778067,0.5066949531578274,0.6601994350975093,0.5538077866848027,0.06471119107104135,0.46341463414633743,1
0.8181990948601489,0.5064633426853342,0.6607896979533894,0.5481884379212649,0.06484515980091786,0.46341463414633566,1
0.8190121104163393,0.5070820782441798,0.6603011673367905,0.5194909970775329,0.0647111910710423,0.463414634146357,1
0.8182095175028846,0.507574340013337,0.6607587079317108,0.5226701830183849,0.06471119107104245,0.4634146341463463,1
0.8190025697902833,0.506458406842316,0.6603155789866916,0.554920551884749,0.06457722234116575,0.4695121951219434,1
0.818218558294677,0.5061136462018746,0.6607498551860844,0.5375668567756632,0.06457722234116586,0.4695121951219434,1
0.8189937750338343,0.5043234885701325,0.6603229862982343,0.513087094843227,0.06417542089644077,0.46951219512194875,1
0.8182272397942325,0.5022233607525066,0.6607415240251809,0.541863355941039,0.06417542089644052,0.4695121951219505,1
0.8189852499273811,0.5050088368582013,0.6603343610988746,0.5615207510797421,0.06390748343668862,0.47256097560975263,1
0.8182352007256142,0.5045591737132732,0.6607243828884881,0.5232246739298827,0.06404145216656441,0.4725609756097491,1
0.8189791964576799,0.5037232124877508,0.660361645844153,0.511411601949638,0.06390748343668838,0.4725609756097473,1
0.818235150092797,0.5030768330736886,0.6606788228651739,0.5524675752569325,0.06377351470681274,0.47256097560975263,1
0.8190005760550338,0.5028359121836896,0.6604427494980036,0.555796554165787,0.06390748343668902,0.46341463414633566,1
0.8181087799777869,0.5055300608641212,0.6605182977177415,0.5181829084174695,0.06363954597693677,0.4634146341463392,1
0.8185057361148518,0.5073371194231192,0.6608366333750859,0.5184991688682923,0.06363954597693731,0.46341463414633033,1
0.8196313388556167,0.5056475757088722,0.6583362506955421,0.5620193512967746,0.0636395459769372,0.4634146341463392,1
0.818067906216488,0.5054715871255313,0.6592839957546688,0.5485382390376438,0.0635055772470613,0.4695121951219523,1
