wrist_ACC_1,wrist_ACC_2,wrist_ACC_3,wrist_BVP_1,wrist_EDA_1,wrist_TEMP_1,label
0.48055023539937475,0.28212001634743844,0.7331175964746041,0.4161041872995729,0.042823389411909746,0.07692307692304468,1
0.7570908948770388,0.587225132390965,0.9507928810418588,0.4671073888753154,0.042823389411910356,0.07692307692311573,1
0.8728265463572668,0.5236184769575152,0.9758311750819171,0.4635339441967086,0.04326480716705036,0.07692307692317257,1
1.0,0.43299438171805205,0.9477728157917814,0.39262884824909694,0.043706224922191034,0.0769230769232081,1
0.7704421488909519,0.23277521495990483,0.9161677052896139,0.37011739370123886,0.043264807167050626,7.105427357601002e-14,1
0.534079741772012,0.25800681055665686,0.8330730012386469,0.6289792450498735,0.04370622492219098,7.105427357601002e-14,1
0.34093581871749656,0.29292559981016575,0.8911409592770089,0.517855153190717,0.04194020877437761,2.842170943040401e-14,1
0.3278993553385111,0.34417296069267944,0.758365286835559,0.34299521921407766,0.04194020877437689,0.0,1
0.18912825988027337,0.41687406406452376,0.7086035739670111,0.5561238023788195,0.04061595550895594,0.07692307692310152,1
0.28447307059917815,0.5031306785476898,0.7463564614608594,0.46942746823828085,0.04105737326409602,0.07692307692311573,1
0.30810504265075944,0.4858491740366709,0.7946148231292547,0.27785108436830075,0.04061595550895583,0.07692307692315836,1
0.320478787104454,0.49349903562153175,0.781227508811748,0.43601553036459273,0.04017453775381501,0.07692307692311573,1
0.33865094276201113,0.47845124235928604,0.8218085089922231,0.43433307430011814,0.03973311999867486,0.0961538461538467,1
0.3400900094958802,0.4426655633160678,0.7937735612615309,0.4639373224397036,0.039733119998674404,0.09615384615388933,1
0.2895680557932315,0.4517096537799428,0.7812867920428551,0.4883644180758511,0.039291357116282274,0.09615384615388933,1
0.29020148576338445,0.4306983317216147,0.756131112998593,0.4031493919944858,0.03929135711628305,0.09615384615386091,1
0.3132198318505739,0.4738012427664221,0.7972869887171414,0.3404507678413068,0.03973311999867399,0.07692307692301625,1
0.35034443013831923,0.5075624487453105,0.8123572036766417,0.4235934804158321,0.037525686095720906,0.07692307692317257,1
0.3747411369599752,0.4776041375116006,0.8307319214143003,0.4806814464105042,0.03973311999867443,0.07692307692312994,1
0.36560854582898,0.48693786716795023,0.8186763356358905,0.41369918743776923,0.03973311999867496,0.07692307692314415,1
0.3620210988235478,0.5026131984021135,0.8268374608406368,0.5621182232441929,0.039733119998674696,0.09615384615383249,1
0.3677231818860976,0.5192209423392262,0.8224893414157552,0.3881493497025712,0.04017453775381509,0.09615384615375433,1
0.3567235382214242,0.4845518511629767,0.8216401482340886,0.3824683902356019,0.039733119998675195,0.09615384615391775,1
0.35860550758322957,0.48946645618177587,0.8179865876507559,0.5397652913106293,0.03973311999867411,0.09615384615383249,1
0.3592949287122371,0.48330014316143755,0.823782913550047,0.45537564862705926,0.0388499393611422,0.13461538461546496,1
0.3625177383855975,0.494306073041606,0.8163545657029316,0.33593780418108904,0.03929135711628208,0.134615384615401,1
0.3595008999300799,0.4933155403750733,0.8251896488812646,0.5207742076198036,0.03840852160600157,0.13461538461545075,1
0.3616417279185883,0.4979760261080679,0.8198627804075189,0.5335959660646652,0.038849939361141464,0.13461538461527311,1
0.36415144891252793,0.484728040481351,0.8293892036407983,0.40735212384631225,0.03884993936114203,0.0961538461538467,1
0.3669822756931917,0.4836261579716329,0.8236304577289808,0.46264697189093223,0.03884993936114162,0.09615384615387512,1
0.35823791917995007,0.4743394827551296,0.8238598156070992,0.516541068665538,0.03884993936114216,0.09615384615381117,1
0.3619717014427221,0.47309424149460544,0.8206469264105172,0.3945602630621765,0.03929135711628241,0.09615384615388933,1
0.3525089518233611,0.4666969839189218,0.823653640658807,0.46901374983536936,0.039291357116282316,0.09615384615381117,1
0.3608747489659464,0.47387724915739315,0.8209683591954315,0.5301557126048773,0.0392913571162823,0.09615384615390354,1
0.36283858960106485,0.48329995029722184,0.8261628816020715,0.4062295175759803,0.038849939361141936,0.0961538461538467,1
0.37299992996963066,0.49448678606385504,0.8299512115933623,0.4208469109006606,0.0388499393611422,0.0961538461538467,1
0.36477378848004943,0.4828055251363068,0.8271955104629354,0.5302610824955034,0.038849939361141714,0.09615384615387512,1
0.3592001565495046,0.4814782738221691,0.8204567606792643,0.3930641948188311,0.03796710385086138,0.09615384615386091,1
0.35116389420788713,0.4716494977321701,0.819449367872161,0.4205887767296574,0.03840852160600082,0.09615384615383249,1
0.3431266108572488,0.4640650068852564,0.8136871935400114,0.5158365504383888,0.0388499393611421,0.09615384615383249,1
0.3522273350379591,0.4718036928909505,0.8179557327238025,0.48278331130638247,0.038849939361141755,0.0961538461538467,1
0.3467983288310752,0.46039620670969567,0.817161889060235,0.3876096344089008,0.03884993936114162,0.09615384615383249,1
0.3510350631100782,0.4643479670213961,0.8183143961774432,0.49787169714858465,0.038408521606001514,0.09615384615381828,1
0.24330426926137372,0.4428768345381916,0.8165786564360114,0.5186911487649266,0.038849939361141686,0.09615384615386091,1
0.2625085134889016,0.27293157665303275,0.7169405276580628,0.419268540793318,0.038849939361141755,0.134615384615401,1
0.39059089940640673,0.14123634461667595,0.49709183212889274,0.3776543668006869,0.03840852160600107,0.13461538461534417,1
0.48990168013150315,0.044278364545750126,0.5146124727323074,0.5320116092738287,0.03752568609572057,0.1346153846153868,1
0.3807063067573337,0.1997950766516944,0.792667115755805,0.3882092827303693,0.038408521606001,0.13461538461535838,1
0.37398141414883235,0.21005361503535214,0.8086590929461392,0.19408036573983412,0.03796710385086097,0.0961538461538467,1
0.2844712144952807,0.210805222577578,0.624720099208348,0.34630294216283475,0.038408521606001444,0.09615384615381117,1
0.22758819764578953,0.20069572792996632,0.515268476127065,0.5923865256341783,0.03752568609572017,0.0961538461538467,1
0.24205314799111644,0.21682832386385023,0.5328746380256035,0.7269524565142328,0.037967103850861106,0.09615384615381117,1
0.24216780082308598,0.19422394589285824,0.5065016018649113,0.3882772427587501,0.035318252192765784,0.134615384615401,1
0.2266268066172643,0.18761237331066788,0.4348428403236341,0.4635553588707453,0.037084268340579804,0.13461538461541522,1
0.22282577199867803,0.18857392469501383,0.46789814116209977,0.415523988306402,0.03752568609572003,0.13461538461541522,1
0.24288012064710096,0.20013695146896157,0.547046822629918,0.50851469492252,0.03796710385086079,0.1346153846153726,1
0.2401160988824269,0.1969703534769651,0.4902322804674549,0.48913588904144223,0.037525686095720656,0.1346153846153868,1
0.23497339451777677,0.18968152657058376,0.4018419413864896,0.33140212695096516,0.037967103850860634,0.1346153846153868,1
0.25099218835576087,0.19675346223302495,0.39044811145629454,0.3443469835139572,0.03752568609572034,0.13461538461542943,1
0.22675941383846587,0.19321830703264217,0.34868741973827444,0.6885552749803602,0.03884993936114178,0.13461538461541522,1
0.2133917173455382,0.17172060932321875,0.45503622150304823,0.4651491604242243,0.03752568609572034,0.23076923076919087,1
0.4500256292861597,0.11323550802530458,0.6083345459633264,0.15167615303763338,0.03796710385086097,0.23076923076916955,1
0.3292295010664962,0.15264589248058513,0.6461555467757261,0.4873203624862276,0.0379671038508607,0.2307692307692477,1
0.22724094438489661,0.21628874454845423,0.6195773186225147,0.560439225133113,0.0379671038508608,0.23076923076929035,1
0.24875837677489465,0.19682112582696426,0.5760652653726502,0.5017781096610743,0.03796710385086105,0.23076923076927613,1
0.23905012344088372,0.20769484274522818,0.5832178430524653,0.6401000616664249,0.03840852160600121,0.2307692307692193,1
0.18650831077813013,0.19297801363183373,0.49889013724743814,0.5157158899359431,0.03796710385086062,0.23076923076916955,1
0.38027181055910325,0.11991512313770575,0.42051958399904266,0.441722131708228,0.03796710385086097,0.2307692307692477,1
0.2025136887651553,0.13915252399216282,0.40260444423460906,0.39604765383613216,0.03752568609572021,0.23076923076917666,1
0.5102199319211769,0.06530127202783809,0.2871958708227973,0.48579115977360804,0.037525686095720504,0.23076923076917666,1
0.5410385366066361,0.0,0.3654286559654219,0.38017783179505643,0.03620108770304713,0.23076923076915534,1
0.4973823949120777,0.014958988657842454,0.34776992932614775,0.3538881383069828,0.036201087703046975,0.23076923076919087,1
0.5055092325529663,0.007260661295387161,0.35045714631962915,0.4635264697604061,0.03575966994790651,0.2307692307692335,1
0.44080215627439573,0.03437756038773515,0.355069908873877,0.5145463099584234,0.03575966994790657,0.23076923076917666,1
0.4701723471211662,0.020684734655711745,0.3608794596456715,0.4573189525699973,0.03575966994790637,0.23076923076916955,1
0.4506532810597195,0.032915654233027,0.3593609392630159,0.3996439794821568,0.03575966994790648,0.2307692307692477,1
0.47604104649729473,0.01704808069721797,0.3627453186752021,0.5053845724020753,0.03620108770304728,0.30769230769237765,1
0.4778139293481623,0.02043696499037445,0.3553243747957071,0.4811325397959254,0.03575966994790625,0.30769230769222844,1
0.481135996694228,0.014443640753462383,0.35713988785339895,0.42934396924439244,0.035318252192766145,0.30769230769225686,1
0.4858137451930376,0.020090900246640953,0.3559141350676938,0.42214452826098725,0.03531825219276599,0.30769230769226397,1
0.47394684952206423,0.023783057652125628,0.3547652904264854,0.4935329113194774,0.03620108770304668,0.34615384615378986,1
0.4656895451344129,0.025895067645654746,0.34437350689943935,0.47536919442885955,0.03531825219276617,0.34615384615378986,1
0.5138304650309892,0.0113030135889573,0.34078854852443585,0.39463454623966354,0.035759669947906386,0.346153846153733,1
0.5030887071397132,0.016253283038923372,0.33975103135866463,0.4539420170027622,0.03575966994790669,0.3461538461538325,1
0.5034536932408156,0.010833469652101357,0.3514651633366729,0.5054308686118166,0.03575966994790651,0.3461538461538183,1
0.49362014193448067,0.01639048824981365,0.35412603725606695,0.44154441850153253,0.035318252192766006,0.3461538461538183,1
0.5051398008365013,0.010340347692700702,0.35780146520587414,0.4062879874027722,0.0353182521927657,0.3461538461538325,1
0.49423228674742636,0.014403479227439842,0.35456039732321554,0.4901775159611178,0.03575966994790633,0.3461538461538183,1
0.49848911655530614,0.011023209865226535,0.361447558684703,0.49242796572407765,0.03575966994790625,0.3461538461538751,1
0.4945108698400811,0.014712572877744967,0.35660059240634767,0.42947369593551865,0.03620108770304707,0.3461538461538325,1
0.4950243562239991,0.010115867630372866,0.36551815985959835,0.4018683367110074,0.03531825219276538,0.3461538461536975,1
0.4953676927248757,0.010756368790105553,0.36240493638402693,0.4954244960112961,0.03399365380009296,0.3461538461538467,1
0.4955938120903489,0.009764245888254086,0.36967368088633523,0.4790740166858634,0.03575966994790612,0.38461538461532996,1
0.49675678613121393,0.011609033076015796,0.36179156734416085,0.42261014791782847,0.036201087703047266,0.38461538461542233,1
0.4861131076621344,0.012009363427285757,0.36357477220353107,0.4457963318431535,0.03575966994790648,0.38461538461534417,1
0.5082081570628041,0.007745902547754979,0.36804673544497596,0.5008116091173777,0.036642505458187216,0.3846153846153584,1
0.6040173658987663,0.025062871053420865,0.28660758181909984,0.429961333205328,0.03575966994790657,0.38461538461532996,1
0.3736144013663769,0.10131111592215081,0.23740508132598181,0.4296748263940809,0.03531825219276592,0.38461538461531575,1
0.2950060663544969,0.139591262323702,0.3791312384679981,0.4880002690434728,0.03531825219276592,0.3846153846152589,1
0.2617767899732435,0.17114007607490478,0.44356340013997275,0.499517217778078,0.03575966994790633,0.38461538461530154,1
0.2558720695781117,0.1581688759634456,0.42016889399365054,0.45129255224936965,0.03487683443762585,0.34615384615376144,1
0.2473939476754088,0.16325447132609927,0.4147042119830827,0.41439319697618926,0.03443507155523265,0.34615384615377565,1
0.23581493815008725,0.17460667309528613,0.49455583386404683,0.4718302461960601,0.03443507155523344,0.3461538461538609,1
0.27784470844629894,0.1743939079857563,0.5205735528398183,0.4668987337628613,0.03399365380009213,0.3461538461538183,1
0.3774415105947411,0.1381267509299513,0.7030911659830936,0.36907170281965673,0.036201087703047266,0.3846153846153655,1
0.3312189268964688,0.1887300291957812,0.735348157787646,0.45533796761077483,0.03708426834057982,0.38461538461534417,1
0.3518246371965184,0.17481033685754852,0.7406382795504782,0.5464523199397306,0.03664250545818738,0.38461538461534417,1
0.27250461002470827,0.248263282101961,0.6515374103675867,0.5987779226628798,0.03664250545818726,0.38461538461545075,1
0.2926794050753183,0.21579250073840653,0.6931417721993446,0.5079242439041134,0.03620108770304707,0.3846153846153655,1
0.492143726043441,0.17901729253351972,0.8081043981133113,0.34622842062224246,0.03708426834057961,0.3846153846154081,1
0.6136889531565425,0.18587413786807652,0.8674713671901965,0.4696027656740915,0.036642505458187605,0.3846153846153655,1
0.35073614992324303,0.19946306789716192,0.6415826736365561,0.46491029827607167,0.037084268340579554,0.3846153846152731,1
0.09478565047709187,0.19467978948055922,0.44086662957450745,0.42270749502400945,0.035759669947906664,0.42307692307686295,1
0.2923560183637819,0.2242172160926537,0.5977136351501802,0.28046822805429017,0.03620108770304718,0.42307692307687716,1
0.23791273947469294,0.17393109043149924,0.5923765026711731,0.4329507143287324,0.0344350715552329,0.42307692307683453,1
0.4256613854562695,0.07171325145271462,0.38398019664642014,0.48619255470386197,0.03443507155523344,0.42307692307687716,1
0.39161997875155835,0.06400831581758537,0.3048626234745917,0.39104652124707046,0.03222798277953036,0.3846153846153584,1
0.2727603208604461,0.10478390724529829,0.4782216170445011,0.561783945254879,0.033110818289811786,0.38461538461530154,1
0.3494777480340496,0.1198097765615091,0.3700790803982307,0.5437688979779423,0.032669400534670726,0.38461538461530154,1
0.286204290408716,0.15002553425373594,0.36318782718173015,0.10820068330754917,0.03487683443762572,0.3846153846153655,1
0.31276382492690846,0.14359833073716993,0.327088311666862,0.18639481503409178,0.032227982779530526,0.42307692307684874,1
0.31288807165533405,0.17046266949005723,0.33657237597410483,0.5464892358319741,0.03355223604495225,0.42307692307687716,1
0.4149069249602958,0.16311114364696266,0.17572135230441271,0.30895540947002775,0.03487683443762536,0.42307692307686295,1
0.47199084803384467,0.18020086203303765,0.1758944917332933,0.42220881567981383,0.033993653800092505,0.42307692307686295,1
0.526574575130383,0.1689610924107645,0.10422900097251214,0.6178544268817582,0.034876834437625445,0.4230769230769056,1
0.4930787496236778,0.20117597201931037,0.1515108503782429,0.5361264235229002,0.03443507155523308,0.4230769230768914,1
0.5400209410473954,0.19988555298759228,0.08993902124146336,0.4617687227907844,0.03443507155523323,0.42307692307687716,1
0.6130753413753978,0.22207890416032586,0.07240574285719614,0.6340972771607115,0.034435071555232816,0.4230769230768132,1
0.5864559934302378,0.22807805991600688,0.061552132773020185,0.4765385860291703,0.03487683443762586,0.3846153846153655,1
0.5492110098609332,0.21985678126492553,0.10768361879966903,0.5355520715077737,0.03443507155523265,0.3846153846153655,1
0.5856381739730518,0.21901288235654184,0.07861353046301117,0.5230487790527388,0.03399365380009278,0.3846153846153939,1
0.6070184909377989,0.2225624510573525,0.07897065444433593,0.4897999430480068,0.03443507155523276,0.38461538461530154,1
0.6084788209914875,0.22024936884365648,0.06630237140071749,0.5485444857883719,0.03443507155523316,0.38461538461532996,1
0.5861601734266395,0.23307497594875748,0.07809116864328935,0.38933902033274714,0.03399365380009241,0.3846153846152305,1
0.5455943765883305,0.23297695757737832,0.07960834782825815,0.40645778524667003,0.033552236044952194,0.38461538461530154,1
0.49918492950847876,0.23491557897798507,0.08806703399849691,0.4036573770660608,0.033552236044951986,0.38461538461534417,1
0.5299968801674728,0.19728625574842015,0.10712780388707016,0.4349823279613494,0.032669400534670864,0.3846153846153655,1
0.6384513848680378,0.13104679149873288,0.1250665688340673,0.5016305306865604,0.03266940053467132,0.38461538461530154,1
0.6940709270464285,0.08518593914164713,0.14549932903898471,0.45917738559786364,0.03266940053467138,0.3846153846153939,1
0.6778349454875952,0.08158166458594507,0.1520853563425965,0.4072907273593879,0.032227982779530526,0.3846153846153655,1
0.6222075676175719,0.08706667473183555,0.17328466768444822,0.4878384518652834,0.03222798277953065,0.44230769230762945,1
0.6114776736771277,0.09800118063558205,0.15701184152012798,0.5032010119665286,0.03222798277953051,0.44230769230765077,1
0.41977054420031806,0.15242752631752304,0.19454893900867593,0.384538963861471,0.0317862198971383,0.44230769230761524,1
0.2919895468205209,0.17650110788019913,0.2938547856175774,0.3907868103023558,0.0335522360449521,0.442307692307665,1
0.30089756989749405,0.19274599108700224,0.30405305247687286,0.4347835027531537,0.03355223604495226,0.3846153846153939,1
0.30940359817595464,0.22231133731208563,0.24504384604579962,0.5391441757993742,0.03399365380009284,0.3846153846154081,1
0.3391395228320143,0.18609588513798983,0.20269651450221393,0.41341008280639296,0.033993653800092546,0.3846153846153584,1
0.3679698015108507,0.19399299484435037,0.20996017494734226,0.4225671718036299,0.03355223604495229,0.38461538461534417,1
0.368907456229086,0.15493064528121003,0.2236190524324128,0.5758214886912978,0.03355223604495232,0.4230769230769198,1
0.372531904352475,0.13901080245335146,0.2798390053464146,0.40146606066633456,0.03399365380009249,0.42307692307683453,1
0.4253112362782628,0.12404718953972016,0.30349136024632983,0.43356145181390604,0.033993653800092616,0.42307692307687716,1
0.377139136837739,0.1713875150351823,0.24434318256461615,0.45545939158229765,0.033552236044951986,0.42307692307687716,1
0.35235603024614537,0.2667921890448951,0.13714101279068852,0.46697367016278524,0.03355223604495208,0.3846153846153939,1
0.3647428640494957,0.2700288586371238,0.1389889233118109,0.4260299141552763,0.03443507155523305,0.38461538461531575,1
0.3865283682120675,0.26343074562753177,0.17468167136156854,0.44192122517913845,0.03355223604495232,0.38461538461530154,1
0.36474564682652966,0.2846843341282311,0.12577182375507628,0.4860488813853153,0.03355223604495225,0.3846153846153939,1
0.2793741495408206,0.312781047722534,0.2461798799867476,0.3212187337452358,0.03311081828981141,0.3846153846152873,1
0.2765715992327362,0.2952516177495119,0.19712730564197684,0.43097230837855666,0.03399365380009302,0.38461538461542233,1
0.35613887515029674,0.2670770302708056,0.21830617915596096,0.618108992815091,0.03266940053467075,0.3846153846153584,1
0.2364035908880623,0.30357902576432,0.30521082812989225,0.40319322609343955,0.03355223604495233,0.38461538461546496,1
0.19835554544592315,0.36057328088677143,0.260425505469537,0.39855697496637554,0.03311081828981144,0.4230769230769056,1
0.21685476393836278,0.3685966406881649,0.29860032201484343,0.5463299512925688,0.03355223604495247,0.42307692307699085,1
0.2017822162270444,0.3697817423674405,0.303797272915761,0.44842203823998694,0.033110818289811786,0.4230769230769056,1
0.20680145380991244,0.36603801560913024,0.3190804293613808,0.3996147436006963,0.03311081828981141,0.4230769230768132,1
0.2019036934950984,0.36500163572244354,0.30105823461724324,0.48827500916976674,0.033552236044952194,0.4230769230768914,1
0.204817033359864,0.3696766325388247,0.3251421180950065,0.41418073490327634,0.033552236044951944,0.42307692307686295,1
0.19265440644816068,0.388835410929469,0.287715332921892,0.4443967614495072,0.03311081828981212,0.4230769230768914,1
0.20364446021613702,0.35419363021440453,0.3344797258866008,0.5168102806946625,0.033110818289811134,0.42307692307683453,1
0.20770917608701978,0.3605474663509931,0.31879772520366684,0.4364750108081731,0.033552236044952416,0.442307692307665,1
0.20017668926892174,0.36118276552536716,0.3177969165521957,0.4425036531540637,0.032669400534671086,0.44230769230761524,1
0.18639650642934835,0.36442259440273006,0.3527650845585295,0.5085591302806232,0.03311081828981163,0.4423076923076934,1
0.18663816412465306,0.3781769416570495,0.35681136382864664,0.4981137497059548,0.033110818289811314,0.4423076923075726,1
0.1788896784735151,0.37180284278724174,0.36223419636487203,0.41426799974418105,0.033110818289811744,0.4230769230769198,1
0.18270265297102117,0.36584995971247514,0.36208396217929273,0.43316495725165993,0.033552236044952166,0.4230769230769056,1
0.1793727252033942,0.3604762794952275,0.3605031141191767,0.42269127287955366,0.03311081828981166,0.4230769230769056,1
0.18532654763265366,0.35888637673859,0.3611062357434202,0.43582597623411734,0.033110818289811966,0.42307692307686295,1
0.17858921911242331,0.37003248648733067,0.36338489946560687,0.5289660637283883,0.03311081828981155,0.42307692307686295,1
0.17924633839822413,0.37344322979541295,0.3640678214810239,0.46068489178142846,0.03311081828981166,0.42307692307687716,1
0.17716224989598628,0.37622666891468376,0.3644682394727975,0.40115145300105726,0.032227982779530595,0.42307692307686295,1
0.18370920266686974,0.37121529982883267,0.3563549699168148,0.4594550404617518,0.03266940053467107,0.4230769230769056,1
0.17866498989408164,0.36128098618694515,0.3636859557899244,0.5011887421333765,0.03266940053467135,0.4230769230769056,1
0.18341263575577105,0.36129559476276607,0.36158940474149837,0.44170705458765114,0.0326694005346712,0.42307692307683453,1
0.1796751084819842,0.3584936638895803,0.3655623238952512,0.38421697609333816,0.032227982779530345,0.42307692307683453,1
0.1828330002166828,0.35828697934030906,0.36051021364954317,0.43997616005526174,0.032227982779531095,0.4230769230769198,1
0.17864679385904614,0.3720580424870022,0.36726367840457863,0.507633116828049,0.03266940053467117,0.3846153846154081,1
0.17936034530501965,0.37512098501832064,0.36466642057407417,0.43891551315296967,0.032669400534670906,0.3846153846153584,1
0.17491530565637314,0.37571347264284155,0.3681583879769268,0.4177935172544031,0.032227982779530845,0.38461538461532996,1
0.17466941054436314,0.37479060063325925,0.3776191880393662,0.46757754376326593,0.032227982779530207,0.38461538461534417,1
0.17629555742629832,0.3673277890954817,0.37519966854988634,0.49919485426873106,0.032669400534671295,0.3846153846153655,1
0.17632046231383047,0.36698288111542193,0.3785044932793113,0.42403587485434424,0.030461966631716353,0.38461538461532996,1
0.17281895760271382,0.3664256562655108,0.3844428756776378,0.4136736574925458,0.032227982779530845,0.3846153846153939,1
0.17375420823594467,0.36700049444009186,0.38760268904011935,0.48529219801418555,0.03178621989713798,0.38461538461531575,1
0.16957310511384383,0.36792324055497866,0.39005310724292586,0.48245346863467864,0.032227982779530526,0.423076923076799,1
0.17201146087995156,0.3681541325332141,0.389617439704723,0.4124473119635579,0.032227982779530887,0.4230769230768914,1
0.17120799067478532,0.36602333083360966,0.3925502399506163,0.4207797652682005,0.032227982779530484,0.4230769230768132,1
0.17446721357489614,0.3597417667851262,0.3911607900304653,0.4990513759242485,0.031786219897138396,0.42307692307684874,1
0.17211649936175155,0.3562460889468818,0.3876452855954903,0.46805301279377964,0.03178621989713813,0.423076923076799,1
0.17490562528935005,0.35990142981662326,0.38983161861458754,0.39717838875851846,0.0322279827795309,0.42307692307686295,1
0.17212972519591085,0.35856505465511346,0.385484382429258,0.4633324974841615,0.03222798277953033,0.4230769230768132,1
0.17144206788048744,0.36718879945635163,0.38876835135325977,0.5012955598427353,0.031786219897138285,0.4230769230768203,1
0.1695026816513182,0.376858845931542,0.3906330374926768,0.403524033420399,0.03178621989713794,0.4423076923076792,1
0.17124725928494444,0.3770001617452559,0.392735227212607,0.4081408534070401,0.03222798277953107,0.4423076923076934,1
0.171664496890374,0.36656600091274205,0.3892592410399961,0.5128688794232806,0.03090338438685701,0.44230769230760103,1
0.17033608679147205,0.3682835550877991,0.39372880538177574,0.47462796248415706,0.032227982779530887,0.442307692307665,1
0.16954804372160648,0.37251106770257325,0.3936617550819866,0.39687659960978594,0.03178621989713813,0.4230769230769198,1
0.17128695018331597,0.37048270566786046,0.39826990291938114,0.4541347445925723,0.03178621989713801,0.42307692307683453,1
0.16933598199635314,0.36543288146665587,0.39467140227610464,0.5308070164727583,0.03178621989713856,0.4230769230768914,1
0.17182771828791688,0.3658862681907375,0.3928303710474367,0.43019366801030295,0.03178621989713794,0.42307692307683453,1
0.17046831290866815,0.3619069575358452,0.38982633488490287,0.43707878198034605,0.03222798277953082,0.42307692307683453,1
0.1720116913143236,0.366780833158266,0.38995621461956037,0.4952971014526325,0.03222798277953062,0.4230769230769198,1
0.17197763469886174,0.36797529153028025,0.3842088193887077,0.486976958404415,0.029579131121435953,0.42307692307683453,1
0.1725010849724381,0.3676021375435782,0.3907208403916723,0.39197921506226313,0.03222798277953062,0.42307692307686295,1
0.1725074685196567,0.3614215704756691,0.38727040051675676,0.43754911995828155,0.032227982779530304,0.4230769230768914,1
0.1727158772855215,0.365257140829814,0.38891389929336384,0.49983620229079573,0.03134480214199763,0.42307692307683453,1
0.1697098652382697,0.3662835803944955,0.38746935249792314,0.48200654335536275,0.03178621989713838,0.4230769230769056,1
0.17178293731064986,0.3660859665871764,0.3915098341368965,0.42941901481427636,0.03134480214199793,0.42307692307683453,1
0.17473586358348614,0.35892770011266983,0.3879432273739838,0.42710536916931613,0.03134480214199774,0.4423076923075726,1
0.1733084480910979,0.36390802804794853,0.3854650324897784,0.48887124201235366,0.03134480214199792,0.44230769230763656,1
0.1720376990900132,0.35985462581142796,0.38836205305673727,0.44986766731053085,0.03134480214199778,0.44230769230763656,1
0.1731755208346456,0.37079024604017236,0.3901019899682669,0.41647453026466186,0.031786219897138285,0.4423076923075726,1
0.17062412790596937,0.3714531551494241,0.39393426023741096,0.4666084457080997,0.03134480214199761,0.4423076923077218,1
0.1702624376340407,0.3790524257042583,0.39824802965394235,0.48928272875605766,0.03178621989713844,0.4423076923077218,1
0.16876530893291275,0.3763361403337644,0.3949338617841356,0.40899577718003755,0.03134480214199771,0.44230769230762945,1
0.1714435795020537,0.36721520336202884,0.39732829149366705,0.4226700215657472,0.03090338438685744,0.44230769230765077,1
0.16931824815960572,0.36651376844623296,0.3895337755144052,0.49240106152654367,0.031344802141997974,0.44230769230762945,1
0.1719160528969116,0.36705808919410493,0.39066612585924687,0.4735404131758044,0.03090338438685737,0.4423076923075584,1
0.17055744972207754,0.36632011884658855,0.3912115812626139,0.4086470698569349,0.030903384386857385,0.44230769230763656,1
0.17070600443221928,0.3672704770191539,0.39760033252673055,0.4569053174344635,0.030903384386857094,0.442307692307665,1
0.16995979952212925,0.36605063486586215,0.389652815812163,0.5028359133409064,0.030903384386857538,0.4999999999999929,1
0.17079190099147923,0.3677594086493603,0.39092043011479133,0.42403002113583227,0.030903384386857274,0.4999999999998863,1
0.16996488262912401,0.36277675226811873,0.3903266698718884,0.4203587830701988,0.031344802141997766,0.49999999999995026,1
0.17074247879358417,0.3647784155464745,0.39044916909366834,0.49074821176707756,0.030903384386857316,0.49999999999992184,1
0.17005419035162694,0.36795369516442084,0.3933308481379428,0.4588901400579238,0.030461966631717047,0.4999999999999645,1
0.17059795396371258,0.36701886297341424,0.3958320572933255,0.40155803468646145,0.030461966631716825,0.4999999999999645,1
0.17030150331060823,0.3664508754615175,0.39327254409854606,0.47562207378099963,0.030903384386857136,0.4999999999999645,1
0.17009078827783009,0.36455936294326824,0.3902802304625713,0.4976856655538897,0.030461966631716686,0.4999999999998721,1
0.17020625925783262,0.36582102446284254,0.3925700594668532,0.41593135412630433,0.030903384386857455,0.44230769230763656,1
0.17574713096050043,0.35895364360893767,0.39192740127482295,0.4295269898643745,0.030903384386857066,0.44230769230763656,1
0.17055235592311646,0.3598076071206634,0.38912744997808496,0.5069422542569861,0.029137368239043504,0.44230769230762945,1
0.1728246827656934,0.3606049018290669,0.38942054492204603,0.4534294047862718,0.030903384386857066,0.44230769230763656,1
0.16752469281095628,0.37354370549231436,0.3969480189517675,0.41084168313075575,0.030461966631716825,0.49999999999992184,1
0.16981258666896837,0.3765476374174802,0.4001626852549107,0.4839384178810562,0.030903384386857316,0.49999999999990763,1
0.16987646190951378,0.36957071425773247,0.3980313953446802,0.4892027115319961,0.03046196663171656,0.4999999999999645,1
0.1709418136789751,0.366442533797434,0.3988822006818234,0.41223762233019084,0.030903384386857316,0.4999999999999645,1
0.1698058155619664,0.36680315831178106,0.3981883606278905,0.42667736851485505,0.030461966631716575,0.49999999999993605,1
0.17090113903387505,0.3628832226793943,0.3974289591801819,0.4945259241131218,0.03090338438685772,0.49999999999993605,1
0.16989547144800576,0.362747570669496,0.3974021190800045,0.45194727737574464,0.029137368239043032,0.49999999999995026,1
0.17076221941679115,0.36690708234359976,0.39799735493453325,0.41647693928987517,0.030461966631717283,0.4999999999998437,1
0.17011472988221554,0.365107252495531,0.39809229623854037,0.4907698662051827,0.030461966631716658,0.49999999999992184,1
0.17072709246138007,0.36479477186151954,0.3927890647350558,0.46960096038011884,0.030461966631716478,0.49999999999992184,1
0.1716598319020537,0.36460653735120907,0.4024329342435666,0.4044672399487451,0.030461966631716797,0.49999999999993605,1
0.17540670503517952,0.36393058436166265,0.3754313261812481,0.462364027949771,0.030461966631716506,0.4999999999999787,1
0.1754890889363928,0.3659311449686359,0.374018142471431,0.4923714046098947,0.030903384386857996,0.5384615384614904,1
0.1724829773002915,0.3673904233941581,0.3942707444360717,0.4166231713612334,0.030461966631716214,0.5384615384614335,1
0.16992257547027811,0.3661029231550686,0.3877918596068516,0.43130544650981023,0.030461966631717005,0.5384615384614477,1
0.1750942212646016,0.36739632174251524,0.3928952492930212,0.49271351072945135,0.03002054887657632,0.5384615384615401,1
0.17312420577722765,0.3660183682765096,0.3852834707807196,0.4430831074456635,0.030020548876576097,0.5000000000000071,1
0.17559749595404672,0.3662533430587378,0.3808406442404016,0.41113770277338085,0.02957913112143587,0.4999999999999929,1
0.1721858345053835,0.3651279099928249,0.3793658613092834,0.48752279440996915,0.02781311497362146,0.4999999999999645,1
0.1735915030052223,0.36777751366773054,0.38459703672959406,0.48676181244161654,0.029579131121436106,0.4999999999999929,1
0.17598772826654863,0.36574808642280593,0.37658173463550537,0.4046966166402739,0.03002054887657589,0.4999999999998863,1
0.18983175343582748,0.3688179436215426,0.3632793764559318,0.44282482173582133,0.030020548876576264,0.49999999999993605,1
0.19847430224385654,0.3672608382487831,0.3040235282101065,0.5057444475522732,0.02957913112143594,0.49999999999993605,1
0.21063564943536617,0.37277065959750644,0.29700862799666655,0.45955118976746717,0.02913736823904317,0.4999999999998863,1
0.2286073874053267,0.3626763587130971,0.283950592528335,0.41848068856401666,0.02869595048390322,0.49999999999992184,1
0.22171895457892388,0.38299765547505643,0.2748408446745213,0.47548573361409097,0.026488516580948425,0.4999999999999929,1
0.2722714650732083,0.37521653444353853,0.23644979519500653,0.48840667150425254,0.02869595048390282,0.49999999999995026,1
0.3182368875136655,0.36077957914398767,0.16931548597359203,0.4344046784862995,0.028695950483903374,0.4999999999999645,1
0.34060295208641234,0.3790197499852302,0.15483559463132862,0.39822686535887925,0.02781311497362158,0.4999999999998863,1
0.39700466245143473,0.3697814908188643,0.1146052538613937,0.5070302803687889,0.028695950483903207,0.5000000000000071,1
0.36129453852687093,0.38364398318719306,0.14522022316133987,0.5052671256281831,0.027813114973621933,0.4999999999999645,1
0.3744807875415188,0.36469652569704736,0.11919621120574814,0.44582411896316093,0.02781311497362189,0.49999999999993605,1
0.3515022597192834,0.3616241810821292,0.15769900811706322,0.4167522178171764,0.02825453272876248,0.5384615384615046,1
0.42082505887573174,0.33354267364033946,0.0730910732756902,0.4118499360507248,0.02869595048390272,0.5384615384614335,1
0.507701278532922,0.30975140732933765,0.08416373579398845,0.4600816141202149,0.029137368239043546,0.5384615384614477,1
0.45658202340819093,0.3401344667707574,0.1011405698185503,0.48500894930623184,0.029137368239043435,0.5384615384614762,1
0.4749289882236946,0.3204104168768869,0.06688831902062259,0.41686141180616965,0.02869595048390279,0.5384615384615188,1
0.459116251921298,0.32673037052521564,0.09737949885579106,0.29430984273562194,0.028695950483903276,0.5384615384615401,1
0.47194925923796704,0.31244842545191437,0.08767068131924338,0.6242408688467134,0.02869595048390282,0.5384615384615685,1
0.4683897377828853,0.3195631801578427,0.09962161813330811,0.5729586685921233,0.028695950483902638,0.5384615384615046,1
0.4628387549308153,0.33415480340373055,0.08678370799193968,0.3097144540914704,0.02869595048390282,0.5384615384613909,1
0.4964163178224629,0.34622233322143825,0.06526885969045881,0.37958842950060456,0.02913736823904313,0.5384615384614477,1
0.48875024279300716,0.356710450325753,0.07148684632296737,0.5223103502175386,0.028695950483903124,0.5384615384614762,1
0.4776172636124532,0.359742084233438,0.07895168394844998,0.4726421022122224,0.02869595048390254,0.5384615384613767,1
0.4748982509525308,0.3581571288121308,0.0806964226690951,0.3814855112384883,0.028695950483903124,0.5384615384614762,1
0.46776558595433426,0.3595744090866415,0.08025035042134743,0.5139259928316351,0.029137368239043338,0.5384615384614762,1
0.46688952084196983,0.35824637572930285,0.08270673915717924,0.5779848971834024,0.02869595048390279,0.5384615384614619,1
0.4672235206284406,0.35950365190036593,0.08289694759625693,0.4770060159401813,0.028695950483903068,0.5384615384614762,1
0.4678449233010338,0.35830886239552645,0.0821628129365396,0.3871899019396718,0.028695950483902943,0.5384615384615046,1
0.46615744455383,0.3594460121218831,0.08624812168268364,0.43251795986976016,0.029137368239043365,0.5384615384614051,1
0.4680250467385118,0.3583637899122445,0.08314481786598199,0.4706035757805843,0.02869595048390297,0.5384615384614193,1
0.46717669665583117,0.35939181031231765,0.08479628964111996,0.4470817117085575,0.02913736823904331,0.5384615384615188,1
0.46630305955682694,0.3584195600444397,0.08199977638366518,0.3873795747341247,0.028695950483902916,0.5384615384615401,1
0.46832379362918763,0.35933140097120864,0.0835107558197028,0.4730683333224129,0.029137368239043268,0.5384615384614619,1
0.4673392241700314,0.35848929098624976,0.0825200482568888,0.500095714432816,0.029137368239043754,0.5384615384615046,1
0.4742234833821844,0.359244211608312,0.07944274527418982,0.47173481376597315,0.029137368239043185,0.5384615384614335,1
0.47250980738446174,0.358610357804628,0.08330182403419278,0.421776486074691,0.029579131121436023,0.5384615384614477,1
0.49574963466911603,0.35904864759915045,0.06910837476872445,0.39504765265404285,0.029137368239043185,0.5384615384614762,1
0.5243478495744356,0.35902351440464003,0.05680695092550886,0.4734729701429282,0.028695950483902846,0.5384615384614619,1
0.5081305072207201,0.3569314198155926,0.0682416687526316,0.482023064028722,0.02825453272876239,0.5384615384614477,1
0.5072300170987158,0.3530209737752189,0.06429232850452898,0.4313367390823663,0.028254532728762438,0.6153846153845492,1
0.49968266877373235,0.35296804466406195,0.06934262380984368,0.3653845357157675,0.028695950483903096,0.6153846153845492,1
0.5030310006408705,0.349870324464569,0.06502013578202159,0.47280982588021914,0.02869595048390254,0.615384615384535,1
0.5027863573069267,0.3521137358218211,0.06945388755362425,0.5622051745928343,0.028695950483902846,0.6153846153845777,1
0.5012071063337027,0.34905486977737543,0.06780578534793846,0.4098389575571393,0.02869595048390282,0.5769230769229878,1
0.4981405082224299,0.35069502488399656,0.07049272948906388,0.424284943083222,0.02869595048390272,0.5769230769230091,1
0.5025196003802395,0.3506656331229379,0.06852855021076842,0.49938064978080343,0.028695950483903193,0.5769230769230376,1
0.5062962119015808,0.35146871984124983,0.07041648993300076,0.4785554710149254,0.029137368239042963,0.5769230769229878,1
0.5014195045708922,0.35064405047765634,0.06860563693005511,0.44696385739649774,0.029137368239043504,0.538461538461533,1
0.498307881821016,0.3513385538916716,0.07041606542269713,0.38694589329513446,0.026930279463341145,0.5384615384614762,1
0.4997862251352212,0.35153157842039096,0.06713461579233587,0.47984753532516494,0.028254532728761952,0.5384615384615046,1
0.5001448720672688,0.35132184199402205,0.06967205191451858,0.4814304810498492,0.028695950483903124,0.5384615384615188,1
0.4980308859767474,0.34967682415563467,0.0690750428634983,0.4502259194608315,0.02913736823904302,0.5384615384614477,1
0.4988328285723291,0.351957643017196,0.06999356577552601,0.4065697920872548,0.028695950483903263,0.5384615384615046,1
0.49816107517557473,0.35021732712390063,0.06816829185631934,0.47768966773884564,0.02869595048390247,0.5384615384615046,1
0.49870487436461114,0.351849093280234,0.0698169546024816,0.49432230187145026,0.028254532728762834,0.5384615384614762,1
0.4991656102515007,0.3502165718102535,0.06907233896666115,0.43510642779048564,0.028695950483902763,0.5769230769229878,1
0.49928622121643523,0.35364226953618116,0.06851691920910441,0.4049713582461617,0.02825453272876266,0.5769230769230091,1
0.4943812662728595,0.35184602403558185,0.07432484004325246,0.5089908116774368,0.02693027946334072,0.5769230769229452,1
0.4925478350036711,0.35253654586798766,0.07158075588403623,0.47585597807590707,0.02825453272876239,0.5769230769229949,1
0.4906092514733269,0.3528871074566359,0.07259453854819886,0.430377374443781,0.027813114973621836,0.5769230769230376,1
0.4875362326182466,0.3544269212133523,0.07380282636041757,0.3968772969250567,0.027813114973621954,0.5769230769230518,1
0.48838434556582827,0.3573426966320265,0.07640374078496343,0.5015855599179697,0.028254532728762632,0.5769230769230091,1
0.48018578745264634,0.3559716526374668,0.07638574655933678,0.4836801601136836,0.02781311497362189,0.5769230769230802,1
0.49195402281800826,0.352050662004319,0.07239829862222519,0.4672389724861278,0.026047098825808204,0.5769230769229949,1
0.5080142681159665,0.35014239896148736,0.06566881815389936,0.4090360768608027,0.028254532728762265,0.576923076922931,1
0.4542747952145772,0.35084147450176173,0.08726586086035876,0.46713859758498333,0.028695950483902596,0.5769230769229452,1
0.42287892513030906,0.37096071166882183,0.1034261699424624,0.4704928536143712,0.028695950483902943,0.5769230769229878,1
0.4388244346862564,0.3670297156820485,0.09381687973547226,0.43401017471392767,0.028254532728762147,0.5769230769229168,1
0.4694177685089662,0.35689656233876244,0.08266507911488052,0.4744899555102138,0.02869595048390322,0.5769230769230234,1
0.49031639119816495,0.3511190071444013,0.07449275180001191,0.577951441729322,0.02825453272876225,0.5769230769230376,1
0.47484162403526176,0.35347455040929965,0.08415776389471952,0.4235426870174995,0.02869595048390322,0.5769230769230234,1
0.46464369822396373,0.35303735887131227,0.08197097056058866,0.3543101903565939,0.028695950483902624,0.5384615384614619,1
0.4769533789927921,0.35040262533417493,0.08342651651137922,0.336389003327152,0.028254532728762174,0.5384615384614477,1
0.474873417348345,0.35188071022031503,0.07906692080538369,0.42976455889766335,0.02781311497362203,0.5384615384614477,1
0.4894104373693921,0.35383419524784343,0.07472761936154865,0.5589307743373925,0.028695950483902596,0.5384615384614762,1
0.486438102973,0.3537369745769864,0.07024007262815879,0.4730356109761284,0.02825453272876261,0.5769230769230091,1
0.4702959987859291,0.35213021149022455,0.08360863401622054,0.4299371628514619,0.02869595048390304,0.5769230769230091,1
0.4610415365417008,0.35059943119682735,0.08680716817599166,0.4176416147098325,0.028695950483902735,0.5769230769230091,1
0.4546242381690933,0.3495303666883002,0.08753398539378371,0.46290455103326766,0.02825453272876259,0.5769230769229949,1
0.4515197710782856,0.350591236096937,0.09498036084044703,0.5389781128099167,0.02825453272876221,0.5384615384614477,1
0.461977065040145,0.3507068229297868,0.08691440416375545,0.4498760668155455,0.028254532728762584,0.5384615384614477,1
0.47301079677170277,0.35022264183500484,0.07564195364448484,0.387053555598054,0.027813114973621766,0.5384615384614762,1
0.48136907775226867,0.35169538930630606,0.08085410890269906,0.47118657094279265,0.027371697218481338,0.5384615384613625,1
0.49191781763866166,0.35041858708427065,0.07114685908187574,0.4886288841778654,0.028695950483902943,0.5769230769229878,1
0.49587527133324766,0.3517091433262126,0.07418477714083582,0.4010715856768221,0.027371697218481296,0.5769230769228741,1
0.5010962414533078,0.3490246014291042,0.06775144039161057,0.37310363139856406,0.027813114973622308,0.5769230769230091,1
0.4989449629549603,0.35076071134358117,0.06983274304012393,0.5029305913369728,0.027813114973621766,0.5769230769229949,1
0.49926570041632906,0.35107783436754353,0.0672065989580557,0.4954736358859814,0.027813114973621843,0.5384615384614477,1
0.5011521522553957,0.3502664959138533,0.07083402725595794,0.45823549296275956,0.028254532728762667,0.5384615384615188,1
0.5064872539366698,0.3470928588331694,0.06846466195888212,0.42670326137526454,0.028254532728762563,0.5384615384614762,1
0.4983040457195735,0.35193028043656477,0.06840386306141594,0.5090204764679258,0.02869595048390286,0.5384615384614762,1
0.5046965937307042,0.3480904808040296,0.06735583523090499,0.49567253043263027,0.02781311497362176,0.5769230769229168,1
0.5062249281932936,0.35044840633321994,0.0664984767885285,0.4544298698942386,0.02825453272876219,0.5769230769229949,1
0.5026209376779855,0.34881794171513464,0.06928980864188833,0.3905657278040327,0.027813114973622106,0.5769230769230802,1
0.5037975232516274,0.35052702230830063,0.06931411422779837,0.458001744152127,0.02825453272876219,0.5769230769229168,1
0.5065202100124866,0.3490388655892146,0.06457967989265911,0.4994047933117095,0.027813114973621836,0.5769230769231086,1
0.5001416057025956,0.3516501099287625,0.07015195571995181,0.46547127583051306,0.028254532728762126,0.5769230769229452,1
0.5038507503041472,0.3496491764290831,0.06790637614221184,0.45283537811629343,0.027813114973622016,0.5769230769229878,1
0.5023968193375384,0.3513437278458663,0.06918419304871459,0.390831227796526,0.027813114973621704,0.576923076922931,1
0.5102575135636827,0.35065634108942795,0.06385498229229647,0.46981019084687065,0.027371697218481268,0.5769230769229594,1
0.5079419567212793,0.35147284245440924,0.06242394086735148,0.48520523461718695,0.027371697218481296,0.576923076923066,1
0.5102920565068956,0.3505813991585723,0.06298259046316257,0.4657947460534039,0.028254532728762632,0.5769230769230376,1
0.5042101567548936,0.351430645240845,0.06294483472861262,0.3919391516265586,0.02825453272876239,0.5769230769229594,1
0.4807253751787174,0.348331329329568,0.08074379196314502,0.4626137496117677,0.027813114973622113,0.5384615384615188,1
0.461204083774172,0.3455798880504096,0.08677065327917338,0.4876965387766904,0.027371697218481213,0.5384615384614335,1
0.4628429977149991,0.3469621861879816,0.08688750757720298,0.4677877411490364,0.027371697218481254,0.5384615384614477,1
0.462981086010531,0.3455867413036966,0.08330759200739696,0.4184080760765806,0.027371697218481823,0.5384615384615188,1
0.4313013033803626,0.34485627496470694,0.10675274592452788,0.4976052603813595,0.02737169721848149,0.576923076923066,1
0.4187576693608068,0.3425370123116866,0.11127283189574572,0.4689425035126763,0.027813114973622287,0.5769230769230091,1
0.4485541253744373,0.3462581629989445,0.08893632388257328,0.42792357956100946,0.02825453272876216,0.576923076922931,1
0.4782546241268162,0.34800962315507056,0.08121194486519917,0.38655124788485423,0.02781311497362208,0.5769230769230376,1
0.5025007986620297,0.3496232009309004,0.06839181731615751,0.46065445400791943,0.027371697218481296,0.5384615384614619,1
0.5146225593049545,0.3515820631554636,0.06328399297787818,0.4736329813877354,0.02781311497362178,0.5384615384613909,1
0.5060632099914266,0.35056583916993056,0.06349658278275361,0.39851402983468265,0.027371697218481643,0.5384615384614762,1
0.5018837149404655,0.3514994954644923,0.0674762947209312,0.39114737968276975,0.02781311497362151,0.5384615384614477,1
0.4985242330638023,0.35059499645777403,0.06931765788088756,0.47751366979821397,0.027371697218481435,0.5384615384614904,1
0.4955178700548523,0.3514900465402469,0.07113231941449316,0.543239864136736,0.02825453272876218,0.5384615384614051,1
0.4959909723910876,0.3505936999037824,0.06967273309323085,0.4813960040733164,0.02737169721848113,0.5384615384614477,1
0.48991502376803636,0.3514990661626773,0.07400462972680616,0.42620115283760734,0.02825453272876243,0.5384615384614904,1
0.492473630237281,0.35057746050425326,0.07099414618890248,0.46852551649841767,0.025605681070667317,0.5384615384614762,1
0.4882901810440979,0.3515239011945043,0.07864122308573551,0.48398739764296916,0.027371697218481435,0.5384615384615401,1
0.5087656627843422,0.3505400309323726,0.06526583659561397,0.4130271523724454,0.026930279463341117,0.538461538461533,1
0.5274944085388689,0.35256468360631665,0.058219409277379786,0.41279993373034063,0.02781311497362176,0.5384615384614477,1
0.532091960016015,0.3504349536186975,0.05630241912124623,0.48222307431920375,0.027813114973621815,0.5769230769229452,1
0.523562122475757,0.3545897405289169,0.06119260317707603,0.47579257094332694,0.02737169721848142,0.5769230769229878,1
0.517779057593837,0.3544951910675139,0.061636287750150565,0.3838372556547064,0.02737169721848147,0.5769230769229736,1
0.5192196068504747,0.3562514077049101,0.06151930930587346,0.45487562395066944,0.026930279463340673,0.5769230769230091,1
0.5191928501551698,0.3569963676104599,0.06120085920837276,0.5403767264184364,0.027371697218481483,0.5384615384614762,1
0.5228923826673939,0.35954714655459624,0.05820005252206922,0.49384627646941537,0.027371697218481254,0.5384615384615046,1
0.5269629319821157,0.3547191510230592,0.059202700099399375,0.3839364608363781,0.026930279463340943,0.538461538461533,1
0.5158494109840142,0.3596116816932454,0.06323629134208508,0.43163206212000954,0.026930279463340756,0.5384615384615046,1
0.5137113846346859,0.35903987735158804,0.06287131338003882,0.5023282672339386,0.0273716972184817,0.5769230769230518,1
0.5111465486843196,0.35898595382154885,0.06261223875501654,0.4516542420128476,0.02737169721848124,0.5769230769230376,1
0.511196189966081,0.3587161596082076,0.062004395087933706,0.41239270343102363,0.026930279463340936,0.5769230769230091,1
0.5145548458750401,0.359108666180478,0.06192244259064361,0.4503581636897144,0.02737169721848104,0.5769230769229949,1
0.5099184115913125,0.3586477674316724,0.06180675430968352,0.51084604949755,0.027371697218481088,0.5769230769230091,1
0.5093779806081717,0.35915331636654496,0.06263754572352481,0.43589891180292795,0.02737169721848147,0.5769230769230518,1
0.5087272022242957,0.3586158312565175,0.06515821500627467,0.42387225433251524,0.026488516580948397,0.5769230769229878,1
0.5093492197813415,0.3591776090784189,0.06312489995529386,0.47466678006442337,0.026930279463340943,0.5769230769229452,1
0.5088638939338093,0.35859648118743565,0.06437185955984953,0.47925454676547524,0.026930279463340916,0.5769230769229878,1
0.5075494569563004,0.3591936122075323,0.06350360170439917,0.4085732719681186,0.027371697218481317,0.5769230769229452,1
0.5075779252060904,0.3585828011961479,0.06379110179142311,0.448127049547056,0.02737169721848147,0.576923076923066,1
0.5098040524842916,0.35920567679437054,0.06231739267287628,0.48701345106291205,0.02693027946334086,0.5769230769230518,1
0.5084002011614588,0.3585718234869424,0.0614421232820867,0.47032424005224616,0.027371697218481435,0.5384615384615401,1
0.5097309614781141,0.3592159990972267,0.0623314762993582,0.3999818226113202,0.025605681070667456,0.5384615384615401,1
0.5082807649899168,0.35954278153541863,0.06150212149957107,0.44879257486124846,0.027813114973622037,0.5384615384614762,1
0.5110958498699274,0.35922619783080156,0.0633533261143927,0.5007060776278536,0.025164263315526916,0.5384615384614477,1
0.5081792454773731,0.35855095275306204,0.06122311456585183,0.4430074246089892,0.02737169721848131,0.49999999999990763,1
0.5126950151126415,0.35923825477271804,0.06254731533026692,0.4067645412622365,0.02737169721848154,0.4999999999998721,1
0.5140217614361992,0.3585366965080197,0.0611704932833958,0.4880656246797913,0.0278131149736218,0.4999999999998863,1
0.5144552089875623,0.35925634238955795,0.06165209401563326,0.49112500320165736,0.026930279463341034,0.49999999999990763,1
0.5107949514648352,0.3585115364019392,0.062428020565851505,0.4187914866981809,0.026930279463340277,0.5384615384614762,1
0.5131634542623045,0.35929659959864624,0.06215360288939881,0.4320181860850028,0.02693027946334116,0.5384615384614335,1
0.5145097240136592,0.358425698408067,0.06145932679789945,0.49904866271284465,0.026930279463340784,0.5384615384614762,1
0.5116075785946079,0.3612045738952316,0.062482074350598105,0.4690914010981891,0.026488516580948612,0.5384615384613909,1
0.5125924702900437,0.35862003300333956,0.06064741925173839,0.4169174054667149,0.027371697218481136,0.5769230769229452,1
0.5161418455410896,0.35932613025880933,0.06062049832582217,0.43009925258977866,0.02737169721848138,0.5769230769229736,1
0.5105179951442897,0.3594860214457741,0.06263231917001832,0.5034146197211979,0.026930279463340895,0.5769230769229452,1
0.5192887501620459,0.3593190544208008,0.06155233086637407,0.4442580887364768,0.02693027946334061,0.5769230769230234,1
0.5137131881125285,0.3595937146590407,0.060690724650054484,0.41716592984095424,0.026488516580948383,0.5384615384615188,1
0.5090784154168437,0.35890578374282045,0.06470563251467193,0.4620247521508087,0.0269302794633412,0.538461538461533,1
0.5091327975784126,0.35880364624220545,0.06052790951425241,0.49896723522533604,0.02693027946334106,0.5384615384614619,1
0.5089525156723167,0.35899040943364485,0.06524701156235507,0.4249063419785388,0.026930279463340916,0.5384615384614619,1
0.5092210925349265,0.3588162313824823,0.06263481318887448,0.42716618675884044,0.026488516580948446,0.5384615384614335,1
0.5088110063277571,0.35889033883137933,0.06323189884929248,0.4862544632220041,0.026488516580948356,0.5384615384614477,1
0.5083543371127719,0.3591280053534851,0.06152133902611029,0.48587838141076684,0.026930279463340742,0.5384615384614335,1
0.4870092383565143,0.3568175476081865,0.07130461879391176,0.40759966569452616,0.02648851658094868,0.5384615384615046,1
0.4449193575165675,0.3498529560579041,0.09815956659439196,0.4240732751156575,0.026930279463340895,0.5384615384615046,1
0.4370023190907398,0.3502857374702169,0.0998176850766937,0.4852818991698318,0.027371697218481268,0.5384615384614619,1
0.4361598220675122,0.3490655826024457,0.10089910562967186,0.4911404352750401,0.026930279463340874,0.5384615384613909,1
0.4435080388263805,0.34968115283268053,0.09514320361818152,0.43995029348517445,0.02693027946334052,0.5384615384613909,1
0.4439919357921389,0.34955304479587246,0.09747396510963674,0.4523485659862031,0.026930279463341186,0.4999999999999005,1
0.44894777588203005,0.3516123811480619,0.09341281014754793,0.4284817448934284,0.026488516580948196,0.4999999999999787,1
0.4565342585892228,0.3505124244183449,0.09105969563306576,0.4317697787474685,0.026930279463340756,0.4999999999999645,1
0.455137566433048,0.3516145557865352,0.08962115674281584,0.4249153712545643,0.02693027946334111,0.4999999999999645,1
0.46391235233057265,0.35020211176127986,0.08685515658833604,0.46705141782269316,0.026930279463340798,0.5384615384614477,1
0.4676996932760005,0.3506507637141213,0.0809557481807171,0.49544879913094997,0.026930279463340964,0.5384615384614477,1
0.4749994679759364,0.3508383229218089,0.08430914162731057,0.45881062669066935,0.02693027946334063,0.5384615384614051,1
0.47553224554440154,0.3520510185418328,0.08147170644271307,0.3977955965815249,0.02737169721848147,0.5384615384615188,1
0.46968970451258035,0.3540767519967976,0.08472278013382895,0.46562986953517893,0.026930279463340534,0.5384615384615046,1
0.46014103540878665,0.35515729658909534,0.08967340864167878,0.5005147120042688,0.026930279463341047,0.5384615384614762,1
0.4593113104095286,0.35391061890960207,0.08549661201489978,0.4877803130956249,0.02648851658094826,0.5384615384614335,1
0.4629546423476358,0.35387347231652344,0.08396523759999736,0.4321590569910513,0.026930279463340943,0.5384615384614762,1
0.4667889859153305,0.3561520415615721,0.0842043192010295,0.48377742376757604,0.025164263315526965,0.49999999999992184,1
0.4689384741997906,0.357825824043457,0.080789487744923,0.4626770140124071,0.02648851658094853,0.4999999999999005,1
0.47088174351669987,0.3578735951392471,0.0821657007140969,0.3892548996057881,0.024722845560386696,0.49999999999995026,1
0.4780116811810104,0.35971357025577877,0.07980090069066548,0.41037902907033774,0.026488516580948106,0.4999999999998579,1
0.4744918005838886,0.3535693819702486,0.0823088275017057,0.4940516766944918,0.024281082677994434,0.538461538461533,1
0.519998578095316,0.36139585993492346,0.06258447418924679,0.49884051556787046,0.026488516580948286,0.5384615384614904,1
0.4846239043759954,0.3611111418547969,0.07246982702893628,0.44362113932472735,0.02648851658094878,0.5384615384614477,1
0.4987030409409923,0.36349854218958566,0.0705955607276269,0.39807415333749147,0.026488516580948605,0.538461538461533,1
0.49820751550120873,0.36509897459570395,0.06439830743919511,0.48091073694244146,0.026047098825808024,0.5384615384614335,1
0.4953930979039674,0.3662731635246387,0.07212999417473165,0.5008174693355716,0.025605681070667463,0.5384615384614904,1
0.49935798326242425,0.36705157903724156,0.06802368119580599,0.47369392239781744,0.02648851658094835,0.538461538461533,1
0.49797192433616,0.365682194593072,0.0710232240992828,0.37173752572909724,0.025605681070667484,0.5384615384614335,1
0.49876231528195014,0.3666404154728697,0.06803126455575548,0.4179985157002939,0.026047098825808114,0.5769230769229736,1
0.4983318981922005,0.3668075777626944,0.07096748511657508,0.49121884468024407,0.025605681070667456,0.5769230769229878,1
0.4985177341492472,0.36666613729129355,0.06754472902238917,0.474541263821735,0.026047098825808142,0.5769230769229878,1
0.4984253982657331,0.3668179742289277,0.0702073015356221,0.4198444791463148,0.02560568107066743,0.5769230769229949,1
0.4962466945444841,0.36666717536466875,0.06855386185259699,0.4181773241245943,0.026047098825807836,0.5384615384614335,1
0.4982929265257643,0.3667558315922131,0.07045230494982069,0.4938513178602232,0.026488516580948834,0.538461538461533,1
0.49730723282969075,0.3656107578644966,0.06862360918800098,0.4731239063355051,0.02604709882580762,0.5384615384614193,1
0.49495900755084,0.3670469640668723,0.06928844755231961,0.42625576855536185,0.026047098825808003,0.5384615384614619,1
0.4980183634013801,0.36643018545121353,0.06748769934925275,0.4399624643875558,0.02560568107066733,0.5384615384614051,1
0.4978191542772143,0.36716405787002365,0.06873664947417352,0.49506611535622286,0.026047098825808253,0.5384615384614051,1
0.49922562503581247,0.3655145283819864,0.06680751573261823,0.4583980707584781,0.025164263315526972,0.5384615384614477,1
0.4971304197863553,0.36546403541826167,0.07040855972441579,0.4073984520833061,0.02560568107066756,0.5384615384614335,1
0.5057860024557714,0.36522657486718396,0.06452496573368466,0.44795644437605076,0.02560568107066724,0.5384615384614619,1
0.5414060742159286,0.3584975986094527,0.056238371311597035,0.5030266708304252,0.025164263315527347,0.5384615384614762,1
0.549997876233191,0.3561326545348683,0.05079854487226687,0.4441719238462651,0.025605681070667387,0.5384615384614762,1
0.5568342679233754,0.35992319192250577,0.04851872434513316,0.4139477418250624,0.024722845560386765,0.5384615384614335,1
0.5565759814222895,0.3571806460358623,0.042961501435795024,0.46836345775399063,0.02516426331552673,0.5384615384614335,1
0.5306536525780203,0.3583920415194948,0.05668051481251962,0.4521340592041531,0.024722845560386647,0.5384615384614762,1
0.5338772303329673,0.3617075643713191,0.052229110777176235,0.40107095309629986,0.024722845560386293,0.5384615384614619,1
0.5423949733558783,0.3586479302350082,0.05603032021895077,0.526839159741709,0.02472284556038655,0.538461538461533,1
0.538102485480643,0.35914067826034346,0.05220836072121238,0.5021372286737471,0.024722845560386675,0.5769230769230376,1
0.5347749645022182,0.35857782218273004,0.05938349171592344,0.4897151337850739,0.02383966492285365,0.5769230769229736,1
0.5204442014230868,0.35938254304697315,0.056874817910842757,0.4025555059755657,0.024281082677994108,0.5769230769229878,1
0.512540019371815,0.3574090530401966,0.06660887474625854,0.40113261898775643,0.024722845560386494,0.5769230769229736,1
0.48910130571102317,0.3583368496629799,0.06866885283344792,0.523006129693129,0.024722845560386585,0.5384615384614762,1
0.45042257836306704,0.34986401244607057,0.09136443123063254,0.4896263358774937,0.022515411657431962,0.5384615384614477,1
0.44894519869887295,0.34516886482588593,0.10106063198969872,0.45772141513634873,0.024722845560386515,0.5384615384615188,1
0.4482618176415133,0.3518237557735777,0.08647239690932929,0.42437128724806716,0.02295682941257246,0.5384615384614762,1
0.4502523315010913,0.3504410436998273,0.09109789717973543,0.4923476020333195,0.024281082677993955,0.5769230769229594,1
0.4526843257153365,0.3515220060124863,0.08907967254246918,0.3515436024311619,0.025164263315527055,0.5769230769229736,1
0.4523701916628425,0.3506516732139899,0.09278154219430529,0.38267704338995956,0.02472284556038651,0.5769230769229736,1
0.46361370202694163,0.35136086355982726,0.08949646693830965,0.43046748188066225,0.025164263315527194,0.5769230769229736,1
0.5061263213035525,0.3508108870057307,0.06366412890410783,0.4950297402749235,0.025164263315526757,0.5384615384614051,1
0.5331717948994041,0.35092627937463755,0.052693128052406,0.5404596043798529,0.024722845560386945,0.5384615384615827,1
0.5204173185000334,0.35127271161381235,0.06562640151488403,0.4615386895335109,0.02472284556038626,0.5384615384615046,1
0.5128042534427371,0.35075278703187057,0.06259750012504933,0.36034060266673607,0.024722845560386564,0.5384615384614477,1
0.5229804274845807,0.35015402168220566,0.05984620996893958,0.40386234868196574,0.024722845560386314,0.4999999999999787,1
0.5274494561945254,0.351250136218774,0.06175510596473027,0.4918844815077263,0.024722845560386612,0.49999999999993605,1
0.516992292552475,0.3514047502139648,0.06567115351406039,0.5629846378179122,0.025164263315527235,0.4999999999998863,1
0.5187743124560159,0.3517674890885888,0.05854768856925857,0.41726091716790525,0.024722845560386397,0.4999999999998579,1
0.5086882519495661,0.35155534340109845,0.06708900705724541,0.43157799507962796,0.024281082677993997,0.5384615384614477,1
0.5151526680967675,0.3528618350735179,0.06064913523575316,0.5037000124549474,0.02428108267799406,0.5384615384614762,1
0.5193902146473046,0.35653339244316606,0.06114448624159935,0.47242132827989913,0.024722845560386397,0.5384615384614619,1
0.5196248724833387,0.35333938561489564,0.060890522027869876,0.39223534617517936,0.023839664922853783,0.5384615384614051,1
0.5221526428025767,0.3516068782833689,0.061481062237719986,0.457982596627233,0.024281082677994184,0.5384615384614762,1
0.5321409800129583,0.35662599307097786,0.05684910579519509,0.48993617814737306,0.0247228455603866,0.5384615384614904,1
0.5342905067690236,0.35841526989359396,0.05591560107464483,0.4578103070430179,0.02472284556038685,0.5384615384614762,1
0.5293552710069305,0.3594195612075289,0.05596972710198722,0.4064065064419075,0.024722845560386286,0.5384615384614477,1
0.5312744608799306,0.35837796265856947,0.057633327978564186,0.4569277452083619,0.02428108267799431,0.5769230769229878,1
0.5263668033568334,0.35937986309099856,0.05889692549870479,0.4924064514204535,0.025164263315527187,0.5769230769229736,1
0.5150717492278496,0.35843194987006266,0.06080268266615668,0.4310501132045567,0.024722845560386245,0.5769230769229878,1
0.5086490412861056,0.3593129391880387,0.062400544797992175,0.4245524124457242,0.02472284556038709,0.5769230769230944,1
0.5103951183241757,0.3585412084502172,0.06113779510663858,0.49410800732846305,0.02472284556038587,0.5384615384614477,1
0.5023123886764276,0.3588810418865144,0.06846437885249812,0.4837364484100398,0.024722845560386966,0.5384615384615046,1
0.49155627734501434,0.35715618565235435,0.07550538982174748,0.416338267178192,0.024281082677993948,0.5384615384613909,1
0.4864865607697619,0.35871187988783243,0.07205391024784669,0.4234907465549336,0.02472284556038691,0.5384615384615046,1
0.492279002465719,0.35759528339436797,0.07163474893026928,0.4921360136879588,0.024722845560386647,0.5384615384614762,1
0.4944325602374405,0.359794600841696,0.07077345098207316,0.47691418403963337,0.024722845560386293,0.5384615384615046,1
0.48654719894343074,0.35670465548582125,0.07454053620784318,0.42153942846219283,0.024281082677994087,0.5384615384614477,1
0.48864984224782226,0.3551618518095405,0.07262106972843063,0.43876926468278726,0.024722845560386945,0.5384615384615401,1
0.4880974675136486,0.3572081043774707,0.0708982718247938,0.4815525701736072,0.024722845560386446,0.5769230769230091,1
0.49914291960472573,0.35671483888986494,0.06849383188789182,0.4282106020379192,0.024722845560386897,0.5769230769230091,1
0.49727829771987925,0.3582362410527651,0.07044031875898982,0.435767721116436,0.024281082677993976,0.5769230769229452,1
0.501869801473676,0.35849231603887144,0.06833380704902908,0.49415085299698075,0.024281082677994226,0.5769230769229878,1
0.5044355491682901,0.35817530224436356,0.06805552121919628,0.47038859889106727,0.024281082677994302,0.5769230769230234,1
0.5060999683661501,0.35842519828362523,0.06312788512360767,0.4070225875729249,0.023839664922853637,0.5769230769229878,1
0.5094499286022478,0.35845563802106895,0.06349258294068932,0.4372577816440105,0.02428108267799449,0.5769230769230518,1
0.5084083499116321,0.35923483663228256,0.0652739754658394,0.5059274966580496,0.02383966492285318,0.5769230769229949,1
0.5004288167058482,0.35738655354987603,0.06956892809439752,0.4521423031819419,0.02472284556038669,0.615384615384535,1
0.5074570973378019,0.3564636547815271,0.06367489518995095,0.42767879625244376,0.024281082677993962,0.6153846153845635,1
0.5097991547354463,0.3587606272708328,0.0654002647517965,0.48161851718340104,0.02472284556038705,0.6153846153845208,1
0.5194587667540398,0.3577409516598127,0.06008674304127831,0.49574933728066367,0.024281082677994052,0.615384615384464,1
0.5199256454941567,0.3576362386381406,0.060616681420249285,0.43763464447405703,0.024281082677994226,0.5384615384615046,1
0.519814847235913,0.35871089717659077,0.059753866263557553,0.39570296000753,0.02428108267799438,0.538461538461533,1
0.5180738348661006,0.35820925202831355,0.0610378559458431,0.47441879000461207,0.02428108267799381,0.5384615384614477,1
0.5200580755183242,0.35950757106119574,0.061236310184701104,0.4803959068952315,0.02428108267799404,0.5384615384614619,1
0.5123756486149977,0.3583531401118275,0.06496304627352517,0.43873684515834,0.02383966492285365,0.5769230769230091,1
0.508829082746941,0.35914285525907635,0.06503320744441332,0.4210691164762553,0.024722845560386585,0.5769230769230802,1
0.5046003928650642,0.357458999219256,0.06695665581494836,0.47571241203352943,0.023839664922853956,0.5769230769230091,1
0.49671589151689766,0.35806341995124924,0.06830647001277229,0.4658718214775675,0.02428108267799408,0.5769230769230091,1
0.48877591353091465,0.35233452777705365,0.0736805410446284,0.42075027650217306,0.02428108267799451,0.5384615384614762,1
0.4879249698252647,0.3567564981973186,0.07465971252938747,0.44763701099979136,0.02383966492285331,0.5384615384614335,1
0.4873298683500761,0.3589801366059204,0.07768107190345103,0.5017045841893186,0.02428108267799433,0.5384615384615188,1
0.4941063631837996,0.3587376525567648,0.07097166109578384,0.48164916362321,0.023839664922853783,0.5384615384615543,1
0.5070914610679071,0.35680038902147904,0.0621419322677938,0.4349275295637816,0.023839664922853533,0.6153846153845919,1
0.5050707254357194,0.35743104612365,0.06583438784637735,0.4102082046564509,0.023839664922853186,0.6153846153844782,1
0.4996732283027776,0.35802348739725953,0.06995802159931208,0.48201511352385745,0.023839664922853783,0.615384615384535,1
0.504521081238175,0.35716901478821145,0.06658888960004306,0.4410811874410082,0.022515411657431948,0.6153846153845208,1
0.5084872116798997,0.3561350930760707,0.06622629353478232,0.38926230992107935,0.02383966492285356,0.5769230769229878,1
0.5046950454987666,0.358076436810037,0.06891268271500972,0.4631950768342769,0.02383966492285365,0.5769230769230091,1
0.5009849532047921,0.35520185208168875,0.06648867416003845,0.5110903262725902,0.024281082677994024,0.5769230769229878,1
0.5000820353671762,0.3579701689171981,0.06834552103177088,0.44398346523510157,0.023839664922853665,0.5769230769230376,1
0.5019976868249554,0.35604684530447855,0.0694355181669567,0.41122522379351406,0.02383966492285331,0.5384615384614051,1
0.49859471507572495,0.3565972959035355,0.06852438725609178,0.47164247312013974,0.02383966492285399,0.5384615384614477,1
0.5011978739811738,0.356444519615295,0.06986630000350286,0.5034722879094108,0.023839664922853457,0.5384615384614904,1
0.5000465294513621,0.3559680360307079,0.06838806414898274,0.4195261084866435,0.023398247167713257,0.5384615384613767,1
0.5081374954571907,0.35976934127266075,0.06510134778802401,0.4219859395172689,0.022956829412572592,0.5384615384614762,1
0.5088719945514945,0.35811682101818776,0.06529550398927164,0.4950310746601311,0.023398247167713132,0.5384615384615188,1
0.5095320697326773,0.3584235492920076,0.06438482899048448,0.48596475486627955,0.023398247167713215,0.5384615384613767,1
0.5074604394282914,0.35849689412386976,0.06573412541070023,0.4285525744780282,0.023398247167713167,0.5384615384614762,1
0.5063210668022274,0.35683836542420955,0.06680205282610846,0.4149785214309634,0.023839664922853485,0.5384615384614477,1
0.4924940203375958,0.35502277822889794,0.06886468637644566,0.49385853927912055,0.023398247167713396,0.5384615384614762,1
0.4808776204755563,0.35088679458095157,0.07981374011958675,0.48380966548507665,0.022515411657432045,0.5384615384615685,1
0.4677168207389915,0.35109318209977314,0.09031453572613651,0.4189528239497519,0.023398247167713666,0.5384615384614904,1
0.4711467129514149,0.3499568373425757,0.08034522481997358,0.43199671597127487,0.02383966492285343,0.5384615384614051,1
0.4765797366517643,0.3512417482801887,0.08046705437610485,0.502637688891371,0.023839664922853755,0.5384615384615188,1
0.47956179337461213,0.3534605811398663,0.07934311101058639,0.49526977440474856,0.023398247167713014,0.5384615384614193,1
0.4994059251609332,0.35357461056017736,0.07010105120360394,0.41210040341847975,0.022956829412572793,0.5384615384614335,1
0.5071756424530612,0.35761746657352356,0.06415463268920285,0.3937988261621392,0.023398247167713188,0.5384615384615046,1
0.5099620357188718,0.358412809237218,0.062244488128115505,0.5134711918735315,0.022956829412572405,0.5384615384613554,1
0.5080812260798326,0.35907661879224023,0.06278736316947953,0.5056925806935455,0.022515411657432538,0.5384615384615046,1
0.5102487278701868,0.3586965608913971,0.06509088047244899,0.37326867872518976,0.022956829412572315,0.5384615384614762,1
0.5074813582606892,0.35916977378629694,0.06212416736401871,0.4030353871895028,0.023398247167713535,0.5384615384614904,1
0.5113238271615796,0.35839633696547785,0.06536628653423415,0.5416680228398665,0.023398247167713056,0.538461538461533,1
0.49072103426882363,0.36083683300455477,0.06768620163915967,0.4907840915521448,0.023398247167713264,0.5384615384614762,1
0.4933777676217813,0.3576606115301161,0.07664527547996863,0.42377536928708714,0.022956829412572988,0.5384615384615046,1
0.4924682467840429,0.3584560723397865,0.07171529286968792,0.39683517649400596,0.022956829412572696,0.5384615384614477,1
0.47212794453744344,0.3597342417475883,0.08050422616973968,0.4924104949726083,0.02339824716771354,0.5384615384614762,1
0.4834363520683664,0.36036117198295137,0.07541226368339227,0.496084986596243,0.022515411657431844,0.5384615384614193,1
0.4865930064342508,0.3607855855101308,0.07332557155832675,0.4680316193232375,0.023398247167713493,0.538461538461533,1
0.4895942247537768,0.35943590843092715,0.07618505191080083,0.3848946978842108,0.02251541165743163,0.5384615384614762,1
0.4877991539409566,0.361584601209187,0.07184429374627815,0.41912390415506945,0.02251541165743231,0.5384615384614193,1
0.48856284901875763,0.3579388413744768,0.07482702279782444,0.46257218313147996,0.022515411657432212,0.538461538461533,1
0.48731375651313213,0.36095739337982946,0.07447927226000589,0.4537238200974571,0.02251541165743204,0.5384615384614904,1
0.4884194059375462,0.3593760369628977,0.0761150234022061,0.4122761445521146,0.022515411657432136,0.5384615384615188,1
0.48740995729361203,0.3598312240699801,0.07429881872119004,0.4606345900923143,0.022515411657432087,0.5384615384614762,1
0.4883192225733514,0.35937107105315025,0.07675006321765632,0.49515944811540386,0.02339824716771321,0.5384615384614619,1
0.4875432028715154,0.3594120305404338,0.07328289284115913,0.44830433280876475,0.022515411657431914,0.5384615384614762,1
0.4885756845690183,0.35932235541533997,0.07277637091194233,0.4182423932839201,0.02295682941257285,0.5384615384614051,1
0.48524179542178303,0.3594727799954147,0.0742427408207536,0.4821164264802157,0.022515411657431914,0.5384615384614051,1
0.4872084700171844,0.35908831555000215,0.07668593888636516,0.4889282232740377,0.022956829412572995,0.5384615384615046,1
0.48637353929969335,0.3608151199133585,0.0746041163702959,0.41519881856750207,0.022515411657431907,0.5384615384614619,1
0.4885094390372158,0.35830862248474227,0.07565872316754174,0.42056060542920676,0.022956829412572974,0.5384615384615046,1
0.48737916494660866,0.3593000850089833,0.0737614829612187,0.5055451724134105,0.022515411657431962,0.538461538461533,1
0.48832497063834673,0.3588469821450084,0.07269246192652234,0.4779082912126736,0.022515411657432316,0.538461538461533,1
0.4876724861551103,0.36002945186065144,0.07417229269571857,0.4314660589808879,0.022515411657431907,0.5384615384614762,1
0.4897488162174119,0.35946646214522615,0.07281215914216677,0.393556950498731,0.02295682941257271,0.5769230769229878,1
0.4867734020089179,0.36121239042214665,0.07377939964712993,0.4942328320433942,0.023398247167713118,0.5769230769230091,1
0.48859100296348795,0.3594867277589404,0.07279513493452722,0.4852213683332712,0.022515411657431914,0.5769230769230091,1
0.4887145459689629,0.359293138760658,0.07109984164804917,0.45691059389425787,0.02030797775447782,0.5769230769230091,1
0.48868001185537935,0.35837221333009195,0.07351999864520703,0.40276461284753456,0.022515411657432066,0.5769230769230376,1
0.4870797828594222,0.35948102026466516,0.07208949101413886,0.48452430502537086,0.022073993902291526,0.5769230769229736,1
0.48887987472321226,0.35818789652277083,0.07076324409388401,0.48377410479362887,0.021632231019899417,0.5769230769229949,1
0.485818211999325,0.36017534078645086,0.07356873650848433,0.4572308754248559,0.022515411657432087,0.5769230769228884,1
0.4929592651126338,0.35929580937250577,0.06956304635749988,0.3926922819146391,0.021632231019899154,0.5384615384614335,1
0.49434050456035683,0.36131491296475116,0.06959423274165405,0.46891380316602677,0.022073993902291887,0.5384615384615188,1
0.49554706449492547,0.3616471896265803,0.0693980805024324,0.4898130671297346,0.022073993902291665,0.5384615384615046,1
0.49732988283498414,0.3608865455742706,0.06958287848946326,0.4679984698263407,0.022073993902291623,0.5384615384614762,1
0.4986979261588595,0.36072852220463486,0.06942324271492056,0.40044347912717293,0.02251541165743199,0.5384615384615046,1
0.49733970039446357,0.35914202289439057,0.06955915614896879,0.43802199591944696,0.022515411657432524,0.538461538461533,1
0.4981164286330646,0.36066178123523185,0.06944319471860116,0.4967086885466742,0.021632231019899174,0.5384615384614477,1
0.49800110717596136,0.36064361700740266,0.06954312505978388,0.46575177525596556,0.022073993902291526,0.5384615384614193,1
0.4974922117836552,0.3591418839295231,0.06945548892662651,0.41803288476683065,0.022073993902291485,0.5384615384614193,1
0.4973645975173834,0.3605145812874455,0.06953449961763325,0.4504054218406414,0.022515411657432316,0.5384615384615046,1
0.49635178364245774,0.35856352607155995,0.06946021135071673,0.4932295398758617,0.02207399390229172,0.5384615384615188,1
0.49641857693279345,0.3610314878257194,0.06953442565806156,0.45111312429266975,0.022073993902291665,0.5384615384614904,1
0.49860158869337007,0.359649871639984,0.06945394734903132,0.4011933049347051,0.021632231019899285,0.5769230769229878,1
0.49845868595321063,0.3591967872710757,0.06955077440835666,0.46377962817076324,0.022073993902291665,0.5769230769230376,1
0.498434200283891,0.358401597927289,0.06941821829643269,0.49681923259963634,0.02207399390229131,0.5769230769229168,1
0.4986238967779478,0.36077773867870894,0.06963599877198401,0.44802544702856034,0.02207399390229215,0.5769230769229736,1
0.49786356903733475,0.3610740153863609,0.06908649668499772,0.3944286468445551,0.021632231019899133,0.5769230769229949,1
0.49593284346483063,0.36367447100988165,0.06870946696487723,0.45938555019092014,0.022073993902292074,0.5769230769230376,1
0.49913923168361873,0.36252231196909646,0.06974546952808591,0.5022288464786914,0.02163223101989905,0.5769230769229878,1
0.4979737859409343,0.3608553609164823,0.06933005531138708,0.4596615126271426,0.022073993902292047,0.5769230769229878,1
0.4989300603091358,0.3650953405834796,0.06963118424724585,0.4056897661123334,0.02163223101989898,0.5384615384614477,1
0.49803006486629525,0.36079477507043833,0.06937985792329182,0.4665754051069275,0.02163223101989973,0.5384615384614477,1
0.4989292973150191,0.363426525856156,0.07055044161562718,0.5067928262701744,0.02119081326475876,0.5384615384614477,1
0.4979992735454485,0.3663569779681695,0.06941408367591884,0.4667310062824762,0.022073993902291693,0.5384615384614335,1
0.49898471518298826,0.3633365562144759,0.06951389940307723,0.4175319881020666,0.01942514224419735,0.5769230769230234,1
0.4979193150896549,0.36474085834970055,0.06841124237548302,0.4065998044871057,0.021632231019898827,0.5769230769229878,1
0.49909389224027584,0.364036246878022,0.06977246805527254,0.5020348753168822,0.02207399390229184,0.5769230769229878,1
0.497770396122464,0.365313929962266,0.069247975386594,0.47105582902384824,0.02207399390229147,0.5769230769228884,1
0.4993039886571197,0.3652891296513632,0.06976237992604567,0.452851445059163,0.021632231019899063,0.5769230769229168,1
0.49744854402734257,0.36475243836340554,0.0691769076102644,0.3980303080401426,0.021632231019899084,0.576923076922931,1
0.49993838026435194,0.3648102307329892,0.0699635885452271,0.49377527240269714,0.021632231019899403,0.5769230769230234,1
0.49823127579250254,0.36638783934490265,0.06813103540640669,0.47434956060753397,0.02119081326475903,0.5769230769230802,1
0.5005657183587235,0.3637692760056232,0.06761623927412008,0.4501177562335865,0.021632231019899202,0.5769230769229026,1
0.4981834365655298,0.3603975813906173,0.06678420767174847,0.393616573228584,0.022073993902292005,0.5769230769229452,1
0.5127195044331583,0.3589325510335301,0.06323661732978525,0.49332535842551334,0.021632231019899292,0.5769230769229736,1
0.5296914341102736,0.35905414804055813,0.0577991810076412,0.4557292552560909,0.022073993902291623,0.5769230769229594,1
0.5406162456912549,0.3587139566948818,0.05409734905925717,0.4781570888716067,0.02163223101989962,0.5384615384615188,1
0.5426509707317761,0.3590471069309841,0.0543301638122326,0.374719536250543,0.02207399390229165,0.5384615384614619,1
0.5401451849572931,0.35878572892277844,0.05427056884764714,0.4157792211016117,0.02119081326475901,0.5384615384615401,1
0.5428156993560354,0.35888527263134823,0.05428844148954648,0.46882193542311135,0.021632231019899313,0.5384615384614193,1
0.5397419051297634,0.3594911248721291,0.05423486085527407,0.5212278572584271,0.021190813264759016,0.5769230769230376,1
0.5417150406778468,0.3595040120021925,0.054543101908687885,0.4411242783094989,0.021190813264758843,0.5769230769230091,1
0.5445899367290794,0.3610370299899908,0.05221493232689989,0.4601213234788549,0.021190813264758836,0.5769230769229452,1
0.5465126364761297,0.35976259497219715,0.05040373450763325,0.4873737876940718,0.021632231019899556,0.5769230769230376,1
0.5529454008467587,0.3616701860233957,0.05067299859624641,0.4657738315627659,0.021190813264758836,0.5384615384614762,1
0.5577591311273652,0.36044962387411267,0.045837853425813535,0.39619714980042986,0.021632231019899292,0.5384615384614762,1
0.5545613618221382,0.36098689292966935,0.048729326481708746,0.46931470771192874,0.02119081326475907,0.538461538461533,1
0.5528668429279064,0.36297257262772725,0.04910807689757346,0.4922317459309434,0.021190813264759016,0.5384615384615401,1
0.5523850365223791,0.3602744086973651,0.051221783776710494,0.46326070980010237,0.02119081326475903,0.6153846153845492,1
0.5446312771805235,0.3628342419024744,0.05275914597336978,0.3925375530249984,0.02119081326475894,0.6153846153845208,1
0.5382816196728555,0.3643383248372614,0.053044085861022994,0.46347131936993646,0.021190813264758794,0.6153846153845919,1
0.5416172668857341,0.36358419482494014,0.05341322340962529,0.4867151373765802,0.02074939550961811,0.6153846153845208,1
0.5394515283724329,0.3633146520824626,0.05551302407060732,0.45789743286786583,0.02119081326475907,0.5769230769230376,1
0.5329842859158747,0.36386285279719244,0.05614192308450611,0.3820877420588863,0.020749395509617886,0.5769230769229878,1
0.5301750160429435,0.3623636189872726,0.054697870017761496,0.456630469849147,0.021190813264759363,0.5769230769231086,1
0.5350673349936972,0.36288849851475025,0.05477465946487636,0.49786026538943107,0.020749395509617942,0.576923076922931,1
0.5362638252352743,0.36294327726267367,0.053942180026312625,0.4757676014346309,0.02163223101989925,0.5384615384613767,1
0.5370344030699101,0.3637235198901432,0.054517090492018916,0.39529993471487485,0.02119081326475887,0.5384615384614762,1
0.5381923815586642,0.36374152741199195,0.05394272028538133,0.4588379936755745,0.021190813264758704,0.538461538461533,1
0.5367667165289278,0.36323770552642926,0.0547263808989617,0.49139056819369553,0.021190813264758912,0.5384615384614904,1
0.5341002238945287,0.3656518400939734,0.05388450023463881,0.4734345690483536,0.02074939550961817,0.5384615384614762,1
0.5314816734345049,0.3617312869357853,0.05472195287782661,0.4024616306560214,0.020749395509618344,0.5384615384614762,1
0.5319665583653399,0.3596531642086396,0.0536724455250735,0.4552876118609956,0.021190813264758787,0.538461538461533,1
0.5302892157290069,0.35897196549833427,0.05585087858875981,0.4936403667629096,0.02074939550961842,0.5384615384613767,1
0.5297528335738504,0.3590067554811044,0.057207568975583045,0.4660115918970191,0.020307977754477485,0.5384615384614477,1
0.5319753215476155,0.35993593757935755,0.053794871914301434,0.4022765247222861,0.02163223101989971,0.5384615384615046,1
0.5297392454043748,0.35857060229141824,0.054553233297461035,0.470055785317735,0.02119081326475858,0.5384615384614335,1
0.5341188701370909,0.3591146173731406,0.05409200730560976,0.49447546735840003,0.02119081326475867,0.5384615384614904,1
0.5312259724578419,0.3587194708192479,0.05443035199678797,0.46170966478418474,0.021190813264759113,0.5384615384614477,1
0.5327300131639564,0.3590274246791764,0.05415478689143138,0.4100848527035505,0.021190813264758628,0.5384615384614762,1
0.5306496452248162,0.3587598677365628,0.054395936412509505,0.4194611086194574,0.02119081326475887,0.5384615384615046,1
0.5312517109661093,0.35959834756962605,0.05417304909344978,0.4962356742761756,0.021190813264758586,0.5384615384614904,1
0.5307042916324451,0.3596922534712807,0.05438850112534854,0.47587725138411663,0.02074939550961894,0.538461538461533,1
0.5302096750855196,0.36135825342253836,0.054171721644113935,0.43092697958206394,0.02074939550961822,0.5384615384615046,1
0.5301023363221726,0.35934010656847815,0.055349802729211195,0.4001599490910376,0.021190813264758884,0.5384615384614904,1
0.5304376684764464,0.3592557838042051,0.054149042345031206,0.48441863342992153,0.020307977754478186,0.5384615384614335,1
0.5299446802741268,0.3623621478011505,0.05444429137319967,0.49280222458926864,0.020307977754477687,0.5384615384614335,1
0.5305945780098895,0.36200218514679733,0.054042917934914,0.42172330277255204,0.020749395509618393,0.5384615384614762,1
0.5297015070183261,0.35834029431439596,0.054917035696136984,0.4007507076012732,0.02074939550961804,0.5384615384614619,1
0.5322346815057295,0.3603558558918719,0.05486657132294637,0.49322236631966293,0.020749395509618573,0.5384615384615401,1
0.5316832337393658,0.3581006923949072,0.05408362283058793,0.4931378842451972,0.020749395509618032,0.576923076922931,1
0.5313598386956992,0.36012393867768355,0.05442993932404888,0.4334879035684552,0.021632231019899556,0.5769230769230518,1
0.5295557269722431,0.3591927418086489,0.054090594628133204,0.39948492036221184,0.02074939550961797,0.576923076922931,1
0.5315988216850449,0.36107545845648004,0.05485267352528855,0.481272694973168,0.020749395509618823,0.5769230769229736,1
0.5315607460960613,0.3600699725108556,0.05493774520618944,0.49214655461310824,0.020307977754477534,0.5384615384614051,1
0.5310508247417541,0.36323954876237835,0.054015637838133845,0.4234299851286791,0.021190813264759058,0.5384615384615401,1
0.5321794198187791,0.36090046577919294,0.054477641329143345,0.41963248874628595,0.020307977754477874,0.5384615384614762,1
0.53113344617779,0.36119755983003077,0.05411070209581098,0.5013793867299985,0.020307977754478373,0.5384615384615188,1
0.5313804748390138,0.3584023534593825,0.054439643409122385,0.49368499260050164,0.020307977754477416,0.5384615384615046,1
0.5325132777619808,0.36219284740904706,0.054135568655618194,0.42161952052717283,0.02074939550961844,0.5384615384614477,1
0.5326989120470192,0.3600143850139635,0.05439104492381447,0.39773571420024567,0.02074939550961845,0.5384615384614762,1
0.5321395365556538,0.36222225374261735,0.05497612699920762,0.4993464644608611,0.020749395509618566,0.5384615384614477,1
0.5324730119654295,0.3592825170796905,0.054675806499732305,0.500887432047811,0.02074939550961833,0.5384615384614762,1
0.5312688276345214,0.36039212327105696,0.053909982634722076,0.4408225870819684,0.020749395509618233,0.5384615384614477,1
0.5302433846538025,0.35985144813004866,0.05471842160133217,0.3990902776053089,0.020307977754478172,0.538461538461533,1
0.530491528173298,0.36027232629811695,0.05459441432196882,0.4734155506806444,0.020307977754477846,0.5384615384614762,1
0.5298793463980332,0.3590217355667815,0.05636933233472391,0.49262371244614106,0.0203079777544782,0.5384615384615188,1
0.5337866150745708,0.35998502101984564,0.05597288906074632,0.4189886460054252,0.02030797775447782,0.5384615384614335,1
0.5372669538185884,0.3580955557121539,0.054808536946816144,0.4235778851360928,0.020307977754477742,0.5384615384614051,1
0.5402581659502608,0.3596049664110501,0.053999356363715334,0.4987231601628588,0.02030797775447809,0.5384615384615046,1
0.5387757792309558,0.35822207904488496,0.05513429387408658,0.4977221008669811,0.020307977754477582,0.4999999999999645,1
0.5358769106389676,0.35953059295394924,0.05454466594493884,0.39051035239635584,0.02030797775447815,0.4999999999999787,1
0.5316233232375943,0.3582750811044544,0.054577388724703135,0.37801488963183555,0.020307977754477666,0.49999999999992184,1
0.5295698277615511,0.3594891472172965,0.05511302177752947,0.5301609433490587,0.01854196160666432,0.4999999999999787,1
0.5315255210537302,0.3583092532798655,0.05399846304104183,0.500728829709613,0.020749395509618296,0.5384615384614477,1
0.5313702571297858,0.3594599998214968,0.05465236277781682,0.4332832894562979,0.020749395509618296,0.5384615384613909,1
0.5309064884077155,0.35833471100223996,0.05555205119783285,0.42015787949516337,0.020307977754478138,0.538461538461533,1
0.5299177305374312,0.3594373677965668,0.05475107042066352,0.4882899706444099,0.020749395509618233,0.5384615384614762,1
0.5304349074093766,0.3583551120548122,0.05409094421607813,0.47456366372422754,0.019866559999337577,0.5769230769230376,1
0.530078347130051,0.35941877027525115,0.054903129266671014,0.41038989166911055,0.020749395509618282,0.5769230769229878,1
0.5303319159801458,0.35837222109309086,0.055095734243523986,0.429389557709965,0.01986655999933734,0.5769230769229878,1
0.5301612869480679,0.35940291739302443,0.056376614167264305,0.5005250479989813,0.02030797775447784,0.5769230769229736,1
0.5302557549189056,0.3583869808881643,0.054875212804716134,0.45868874539163873,0.019866559999337223,0.576923076922931,1
0.5302388224606962,0.3593891574812079,0.05378373160998173,0.4024746439010142,0.020749395509618615,0.5769230769229878,1
0.5301683761060074,0.3583997456356089,0.0554843489849024,0.48651383790239144,0.020307977754477867,0.5769230769229878,1
0.5303496774672005,0.35937752212018753,0.05411294245230308,0.500573200361487,0.020307977754477735,0.5769230769230091,1
0.5300030322541294,0.3584098590620512,0.055369451780975854,0.4673665705214582,0.019866559999337362,0.5769230769230091,1
0.5306754030284561,0.35936987368528667,0.054123316158281365,0.40070763049968483,0.020307977754477798,0.5769230769229878,1
0.5285222047278944,0.3584127523982499,0.05633344079795638,0.4233263973382429,0.01986655999933739,0.5769230769231228,1
0.5279010018423892,0.3593779755030322,0.05811157186917304,0.490533878779676,0.01942514224419674,0.576923076923066,1
0.5251085115409424,0.35837188600322345,0.058571517745683754,0.47177271499526313,0.01986655999933757,0.5384615384614762,1
0.5219573372463313,0.3595894024024765,0.05935300822009443,0.41158096826511653,0.020307977754477582,0.5384615384614904,1
0.5220265310194496,0.3606532105014617,0.05993461061072547,0.4374469516053964,0.020307977754478138,0.5384615384615188,1
0.5236748088769516,0.35983395759317516,0.05936067131854583,0.5021257481410805,0.02074939550961811,0.5384615384614477,1
0.5215406080677066,0.35857271056506684,0.060011892942391454,0.4696685432521606,0.020307977754478117,0.5000000000000213,1
0.5251951466982521,0.359093103007673,0.056865412494669365,0.4055702193187378,0.02119081326475903,0.4999999999999645,1
0.5228885821442182,0.35896455566012,0.06048297859004531,0.40283385179026704,0.02030797775447752,0.4999999999999929,1
0.526251219437193,0.3620077709352714,0.05502505778174932,0.5044197846520023,0.020307977754478013,0.49999999999990763,1
0.5274027418951641,0.360139617961362,0.05598363143757873,0.4650204374754961,0.018541961606663805,0.538461538461533,1
0.5249703396059698,0.3609233914813274,0.06067979009856178,0.452679397380868,0.020749395509618726,0.5384615384615046,1
0.5260582007476333,0.36016814988866863,0.05491674032581112,0.4062545804020547,0.01854196160666368,0.5384615384613767,1
0.5186990451037448,0.360398337776973,0.060234803108492774,0.47448853100804694,0.020749395509618525,0.5384615384614619,1
0.5035471001049545,0.35800629589781346,0.06902771638621635,0.49319466052130856,0.020307977754477513,0.5384615384614762,1
0.5078901983175559,0.3596314005868503,0.06314636004780749,0.4492877244600683,0.020307977754477985,0.5384615384614335,1
0.5085497350501136,0.35821665481099924,0.06534954034785273,0.39774795030569593,0.01986655999933734,0.5384615384614335,1
0.5080448001121592,0.3595288310709945,0.0653442183460829,0.4928741516293519,0.02030797775447782,0.5384615384614619,1
0.5094471841562145,0.35827794506048005,0.06379110955982348,0.46850400973376927,0.02030797775447825,0.5384615384615401,1
0.5088221203783588,0.359488338315462,0.06456355228380051,0.4051508528327217,0.020307977754477596,0.5384615384614477,1
0.5092200153978828,0.3583061506278902,0.06300172786462266,0.4399134482259151,0.0198665599993378,0.5384615384615188,1
0.508948848201097,0.35946824687771023,0.06287997157899061,0.49775146273105364,0.01986655999933714,0.5384615384614477,1
0.5091307331891272,0.35832038337641026,0.062075486119716305,0.48319935957628257,0.01986655999933787,0.5769230769230234,1
0.5090214995318014,0.35945859557410065,0.06274155655206892,0.4180736037953271,0.017217708341242324,0.5769230769229594,1
0.5090643308764836,0.3583261661370565,0.06136975720135307,0.42341378403020574,0.019425142244197127,0.5769230769230091,1
0.5090898955987231,0.3594563392114324,0.06234396745077564,0.5061341804568048,0.01898337936180454,0.5769230769230091,1
0.508981392188961,0.35832495283193555,0.06135856283255464,0.4698174430572395,0.019425142244196746,0.5384615384614619,1
0.5092286822193073,0.35946123162457616,0.06328525222204218,0.4198917567903736,0.0194251422441971,0.5384615384615401,1
0.5063925244010417,0.3583158684583383,0.06458693391173975,0.43059245726517453,0.020307977754477673,0.5384615384614619,1
0.5089699656170474,0.35947543312934943,0.06342316262049813,0.5067914714524812,0.019866559999337424,0.5384615384613909,1
0.5089493187939309,0.3582949799298452,0.06436004447636184,0.47551784455502905,0.019425142244196968,0.538461538461533,1
0.5077036509320203,0.3595057151586987,0.06511212762226543,0.41302601815093987,0.019425142244196503,0.5384615384614619,1
0.5093882685955395,0.358250329354438,0.06265650574941783,0.4518972757048741,0.019425142244197016,0.5384615384614619,1
0.5067461502112073,0.3595750090988897,0.06435429664898157,0.5066658593055149,0.019425142244196426,0.5384615384614051,1
0.49821737651356435,0.35813043990446625,0.07016760179732395,0.4611444235666715,0.0194251422441971,0.49999999999990763,1
0.49830855380444905,0.3598427560115587,0.07029631713646184,0.4219849357307737,0.01942514224419667,0.4999999999998721,1
0.49745429513265205,0.3551117777556107,0.07045099793121856,0.39134603306195226,0.01942514224419689,0.4999999999999645,1
0.487464447728985,0.35237698834043857,0.07130018544051892,0.5003864919761841,0.01942514224419712,0.4999999999998863,1
0.4818091158381001,0.34924307125769855,0.0804714688201057,0.47134105477919264,0.019866559999337445,0.5384615384615401,1
0.4474529012668965,0.34945007754263535,0.0952270545088274,0.4266470989155677,0.01986655999933712,0.5384615384614762,1
0.5108561090214678,0.3457900436004453,0.07225764342740404,0.3518629633842964,0.020307977754477922,0.5384615384614762,1
0.5112770809629515,0.3551341832705938,0.06187978733468563,0.4517268750775726,0.02030797775447775,0.5384615384615401,1
0.538055870280862,0.35731228461648634,0.05307623160682978,0.5258220317245679,0.020307977754477742,0.5384615384615046,1
0.5426476333464559,0.3592953150740733,0.055382686382445034,0.5159883595817096,0.02074939550961833,0.5384615384615046,1
0.5388563914189783,0.3582222362145058,0.05645470120502244,0.4095041131613888,0.01986655999933737,0.5384615384614051,1
0.5403304418395831,0.35832758864071645,0.05318213489308976,0.3921320261684282,0.019866559999337223,0.5384615384614051,1
0.536803020131853,0.35890288254807523,0.0569713682991988,0.5197547321940914,0.019866559999337403,0.5384615384614904,1
0.5401756792795684,0.35894624207512815,0.05387311940231476,0.5013567166283075,0.02030797775447775,0.5384615384615401,1
0.526361213026205,0.35886076700996766,0.06032506916297975,0.41034890792188194,0.019425142244196954,0.5384615384614477,1
0.5648382022913672,0.3586710688403662,0.04318908515285497,0.4580675271991919,0.01942514224419685,0.5384615384614762,1
0.5789595449870846,0.3563548486105915,0.040663002349421884,0.47276498490128116,0.01986655999933748,0.49999999999992184,1
0.5601728617773537,0.35863792480620355,0.05117660399651708,0.421580698400081,0.02030797775447775,0.4999999999998721,1
0.5643457583362865,0.35769938936092094,0.046850954789166954,0.417342992195322,0.01986655999933725,0.4999999999998863,1
0.5595059495731327,0.3593890258034892,0.049503195104100284,0.48335159635756325,0.019866559999337674,0.49999999999990763,1
0.5599950358309245,0.35847212651822896,0.046740650885844115,0.4856451944992271,0.02030797775447761,0.5769230769230091,1
0.5612458056897403,0.35927828717281307,0.049440649710597806,0.4222244593086616,0.020307977754477922,0.5769230769229878,1
0.561072390472517,0.35852386450825985,0.048054018870482385,0.4482881129115917,0.019425142244196947,0.5769230769229452,1
0.559661040807027,0.3592443108011909,0.04667764524113638,0.49574932858624743,0.02030797775447759,0.5769230769229949,1
0.5632736059137154,0.35855164008408313,0.04658057678711047,0.4529593033170402,0.019866559999337424,0.5384615384614477,1
0.5609438924680388,0.3592173371910101,0.04677213028061855,0.41473301997217743,0.019866559999336897,0.5384615384614193,1
0.5628941039175424,0.35858180322647587,0.04659421447432033,0.47912189783635495,0.020307977754478,0.5384615384614762,1
0.5611090527167024,0.3591792635368838,0.04672289774669308,0.4975921122525977,0.019866559999336723,0.5384615384613554,1
0.5629251582801864,0.3586359691473855,0.0466694948710652,0.44623605324364385,0.019866559999337875,0.5769230769230091,1
0.5602038965098693,0.35908970831253684,0.046595240419765704,0.4060092726005979,0.0198665599993368,0.5769230769229026,1
0.5524009841278347,0.35882538804358727,0.047189475908705536,0.4626015672851009,0.01986655999933793,0.5769230769230376,1
0.543110291020109,0.3547686834545819,0.053316048335949384,0.49186618258950277,0.01942514224419687,0.5769230769230091,1
0.5227004936726185,0.3518704859513106,0.061471182131270785,0.4457743492436566,0.019866559999337327,0.5384615384614477,1
0.5090019529415133,0.3497707715762843,0.06425821908995871,0.42287707661973767,0.01942514224419708,0.5384615384614619,1
0.5065667725178649,0.34623158522804176,0.06870193911436984,0.48454393255130074,0.019866559999337098,0.5384615384614477,1
0.5003907486822512,0.34612542093862686,0.07068762473340734,0.5067935499335323,0.019866559999337244,0.5384615384614762,1
0.5075905416692368,0.34778339133908676,0.06574215889617308,0.45685799529411214,0.02030797775447777,0.5769230769229736,1
0.5075944103379607,0.35048551628984104,0.06501045893862784,0.36494380914928476,0.019866559999337417,0.5769230769230234,1
0.5098786946711872,0.3497377787015932,0.06254405315097195,0.4326970241787401,0.019866559999337244,0.5769230769230376,1
0.5084680269376787,0.35157447171045153,0.06414180006926357,0.4625586922559937,0.02074939550961811,0.5769230769229736,1
0.5116172622410178,0.34955658575928233,0.06355579112869969,0.44564317949609106,0.01986655999933752,0.5384615384615188,1
0.5111875508163843,0.351544064009977,0.06184393225550128,0.4123443508973458,0.01942514224419665,0.5384615384615046,1
0.5117446295549051,0.35054041319537743,0.06183145122423178,0.4523890382260809,0.01986655999933737,0.5384615384614619,1
0.5130469247972201,0.35155403786486655,0.061965060446902365,0.49392950889107795,0.019866559999337646,0.5384615384614762,1
0.5122187068159996,0.35051658935164987,0.06181468750391883,0.4625552061236775,0.019425142244196628,0.5384615384614619,1
0.5139129343422267,0.35159920071260464,0.06195571990205623,0.4096477467915315,0.019425142244196704,0.5384615384614762,1
0.5122710246400357,0.35042996705595003,0.06183013588361813,0.4515294218884254,0.018983379361804338,0.5384615384614619,1
0.5135840629606155,0.3517947767906752,0.061963794639131486,0.5025690994607153,0.01898337936180477,0.5384615384615188,1
0.5144173672292438,0.3486427813554832,0.06306445879160372,0.4650101541395898,0.019866559999336737,0.5384615384613767,1
0.5100838376815201,0.34971115457091206,0.06594787879473757,0.4058670977740501,0.01942514224419737,0.5384615384615685,1
0.508709255792541,0.3487284547078644,0.06315421198277082,0.4133003066752015,0.019425142244196412,0.5384615384614477,1
0.5096882882419409,0.34889757556298207,0.06511240571815224,0.5124633946862754,0.019425142244196954,0.5384615384614477,1
0.5178526818694945,0.3484416551859247,0.06311780982526066,0.4847897234532189,0.019866559999337466,0.5384615384614051,1
0.5128251934204617,0.34990107392741765,0.06634553927695941,0.46293427942334775,0.019866559999337063,0.538461538461533,1
0.5095449993369328,0.35147964939083864,0.06543136138618505,0.3774597341693149,0.019866559999337473,0.5384615384615046,1
0.5079870508878048,0.35507563732733555,0.061387513225091506,0.482450454852916,0.018541961606663784,0.5384615384614762,1
0.49848159099075007,0.35666316076828686,0.06782523376302257,0.4914145581578121,0.018983379361804262,0.49999999999990763,1
0.4828986061647774,0.35456710980231537,0.07965848954575155,0.4751912081314175,0.018541961606664062,0.49999999999995026,1
0.500018625923011,0.3550727313277377,0.06396200368232247,0.41662971239498625,0.01898337936180431,0.4999999999998579,1
0.5085440452409409,0.3562338723026872,0.06494641017597991,0.4987703094788272,0.01898337936180461,0.4999999999999929,1
0.5119113179858678,0.350812306024438,0.06261330903167106,0.5077993315497547,0.019425142244196496,0.5769230769229878,1
0.507897999477321,0.3521874212572209,0.0631598712252659,0.44842830560723607,0.019866559999337847,0.5769230769230518,1
0.5116345907155518,0.3501848759522092,0.06785690037533909,0.33350143308514524,0.01986655999933709,0.5769230769230091,1
0.5071620817170306,0.3518460813230731,0.06439784314925556,0.48241767532236524,0.01942514224419737,0.5769230769229736,1
0.5091539812623485,0.35141158706216363,0.06319331282914198,0.5082978573698891,0.01898337936180447,0.5384615384614335,1
0.5081547890799643,0.3514651825563837,0.06675838301174847,0.46824782995929415,0.01721770834124249,0.5384615384614335,1
0.5077433357298655,0.3516109057290343,0.06567588475250485,0.4154838734747366,0.018983379361804872,0.5384615384615046,1
0.5063116662057752,0.3513722480892816,0.06865518753185657,0.4200085185408758,0.01854196160666409,0.5384615384614335,1
0.5114256461201924,0.34963839857073875,0.06356280386246133,0.48203656453452814,0.01898337936180476,0.49999999999992184,1
0.5081019387396635,0.35157912464671587,0.06330612159712878,0.47567259198377443,0.01942514224419692,0.4999999999999929,1
0.5103060957446015,0.35057955739748836,0.06236716296325173,0.41937150810010915,0.01898337936180451,0.49999999999993605,1
0.507305226914645,0.3514617783057995,0.06472780055885313,0.42390991653771903,0.018541961606664138,0.49999999999995026,1
0.5177470925089489,0.35067013877500797,0.06248413017743071,0.4903871085316449,0.018983379361804595,0.5769230769229736,1
0.5152451771935778,0.3513571596583801,0.06369129352439862,0.47005762771675286,0.018983379361804685,0.5769230769229736,1
0.5100273908818692,0.350825839482067,0.06355612243648284,0.43560499814168646,0.01854196160666391,0.5769230769229736,1
0.516391441927908,0.35104498501642645,0.06282949615394273,0.3975434095159632,0.01898337936180472,0.5769230769229736,1
0.5131402037492832,0.35261384422647524,0.062414848583804694,0.491287605586875,0.019425142244196926,0.5384615384614477,1
0.5147726271206625,0.3530001859050189,0.06297633814380343,0.48355463661599896,0.018541961606663937,0.5384615384614619,1
0.521842488164423,0.35030071507637095,0.06044270758582054,0.46705358152863696,0.018983379361804532,0.5384615384614619,1
0.514216881979068,0.3527742852920275,0.06373129317635012,0.40309821417880193,0.019425142244196725,0.5384615384614477,1
0.5159353040861201,0.35009348987506866,0.06465908418509009,0.4345301173177658,0.019425142244196926,0.5384615384614762,1
0.5053629365167581,0.3518819284869976,0.06541653494652072,0.49146594576825064,0.0194251422441966,0.5384615384614051,1
0.49871103302581393,0.3502386366242686,0.06960203088271855,0.4760870865015654,0.01898337936180499,0.5384615384615046,1
0.4987533333708035,0.35187618993046194,0.07098601581802094,0.4585140220867745,0.018983379361804227,0.5384615384614762,1
0.49882220301183705,0.34985900647072127,0.06954817791782442,0.4061756841781259,0.01898337936180499,0.4999999999999787,1
0.4972628074182878,0.3508424567972888,0.07173055445447052,0.4743392468639179,0.019425142244196725,0.4999999999999787,1
0.5072910042724126,0.3518229462133677,0.06377933333386493,0.4878246696367517,0.018541961606663937,0.4999999999998863,1
0.5246973903187577,0.35520292244725127,0.057125037078988194,0.4227382663713143,0.01898337936180456,0.49999999999990763,1
0.5188621099220677,0.35067750309602475,0.06337038220347258,0.4104425107623574,0.018100543851523494,0.5384615384615401,1
0.5220744720205197,0.3526802659423296,0.060539530325983304,0.4747326588323659,0.01942514224419714,0.5384615384615401,1
0.5222698499299765,0.35026548812877956,0.061089280525245815,0.4642535028422999,0.01898337936180449,0.5384615384614762,1
0.5173861578686261,0.3525509135601026,0.060225512846013796,0.4192834985387064,0.018983379361804414,0.5384615384615046,1
0.5089441191436406,0.35068477197331166,0.06603643252505531,0.4503939528302709,0.018541961606664173,0.5384615384614762,1
0.5101774906049072,0.35163312312038847,0.06630197873135829,0.497535315869925,0.019425142244196475,0.5384615384613767,1
0.5021465208524596,0.3495343295973165,0.06721081738557788,0.47486867887192497,0.01942514224419732,0.538461538461533,1
0.4862844273655575,0.35154250115600677,0.07882530254000525,0.4329115488426329,0.018983379361804137,0.5384615384614904,1
0.4862646225186002,0.34858299943305326,0.076477982090154,0.4179566830786006,0.01854196160666425,0.5384615384614762,1
0.47671686715863554,0.35019058649274903,0.08246446953604786,0.48369023553522067,0.018541961606663784,0.5384615384614335,1
0.4682089906863356,0.34610785845897096,0.08558112269536633,0.48176959630013566,0.018983379361804463,0.5384615384614762,1
0.4754063269821899,0.3470325044595029,0.08422176404515674,0.44409727955893136,0.018541961606664173,0.5384615384614904,1
0.4993467962564113,0.3489317458822154,0.06521769097983965,0.4102618435661474,0.018541961606663604,0.5384615384614051,1
0.5025494303218219,0.3501487189774968,0.06669368068658843,0.4999992197374071,0.018541961606664145,0.5384615384614051,1
0.4896558770951482,0.34724832407550543,0.07454129634732376,0.4649521325302256,0.018541961606663687,0.5384615384614477,1
0.4863848703833754,0.34992509488768475,0.0771593379015077,0.4084914451813542,0.018541961606664235,0.5384615384615046,1
0.4859030733510647,0.34458319753104083,0.07649157369120507,0.3891941284509191,0.01898337936180449,0.5384615384615543,1
0.48506222918068265,0.34594852252488106,0.0774571948722485,0.5304985428017279,0.01898337936180447,0.5384615384614335,1
0.48947174162737483,0.3422310952982076,0.07530564910686244,0.5042301740136387,0.01854196160666386,0.5384615384614477,1
0.48448139703817467,0.3489665939912209,0.07695198475518933,0.4496065832264918,0.018983379361804414,0.5384615384614335,1
0.4757504615736334,0.34562145972446384,0.08188288190477011,0.3844427763802738,0.018541961606664034,0.5384615384614477,1
0.47486785478290905,0.346071403954769,0.08318555036412417,0.46527577674251314,0.018541961606663944,0.5384615384614477,1
0.4698993244249639,0.34427871239779695,0.08376419378268457,0.48411551137195,0.01810054385152362,0.5384615384614477,1
0.4702860619512822,0.3457758412638224,0.08394864257061357,0.46101926437319746,0.018541961606663847,0.5384615384615046,1
0.47100951326343676,0.34643736106676415,0.08455158329915147,0.41498182391318317,0.018541961606663965,0.4999999999998721,1
0.46949212471901447,0.34945370710276097,0.08435899867531887,0.4884415726322921,0.018541961606664138,0.49999999999992184,1
0.470354133445861,0.3497641694879445,0.08430839593949924,0.4733755496264667,0.018983379361804532,0.4999999999998863,1
0.4753762637306368,0.3484683944142701,0.07963512634405256,0.44172696130031,0.018983379361804532,0.4999999999999645,1
0.47236752192256226,0.3502506392009299,0.08174113323938192,0.38978737117694606,0.01898337936180427,0.5384615384614619,1
0.4844778385196977,0.3511012807653598,0.07784837097048519,0.48722900034800515,0.018541961606664423,0.5384615384614762,1
0.5004889432595692,0.34983756934076904,0.06669349519279788,0.48841952801724087,0.018541961606663784,0.5384615384614762,1
0.4984924185178469,0.3514634065013442,0.07148224751179061,0.4586669286931876,0.018100543851523612,0.5384615384614904,1
0.5055104420810219,0.3505995735731403,0.0644838022595029,0.36842085859415385,0.018541961606663895,0.5384615384614619,1
0.49952239670189724,0.35156707091570416,0.07198148925723352,0.45135354081745377,0.01765912609638308,0.5384615384614904,1
0.49317478815012844,0.34873485158573636,0.07138683863996281,0.4825853152772539,0.018541961606663722,0.5384615384614335,1
0.48899627012376307,0.3499128955523844,0.07598157700599462,0.4959673780898409,0.01810054385152375,0.5384615384614477,1
0.4883154170343617,0.34993757045122964,0.07434827903814789,0.41528045560445365,0.018541961606663944,0.5769230769229878,1
0.48668789869564266,0.349661915032672,0.07702712537822021,0.4865714587715767,0.015893109948569267,0.5769230769229736,1
0.48597081318128166,0.3490428473174025,0.07592250354450297,0.49268543697315115,0.017217708341242415,0.5769230769230234,1
0.4879292698148156,0.35083756912382535,0.07735300178879612,0.45828307826195286,0.01854196160666422,0.5769230769230518,1
0.48870904481412736,0.35097389508775995,0.07515293297916231,0.38636032540851006,0.0181005438515233,0.5384615384614051,1
0.488556778981876,0.3512060953706084,0.0768791135372553,0.4579162501313833,0.018100543851523813,0.5384615384615046,1
0.4890075824344803,0.35082571699960896,0.07578475416544556,0.4856744577370499,0.017659126096383065,0.5384615384614335,1
0.48910596180569793,0.3513022735676149,0.07610631640486143,0.4711325495122063,0.018541961606664235,0.5384615384615046,1
0.48858084693003395,0.3507458756883823,0.07431139172057966,0.40668104573415065,0.018100543851523522,0.5384615384614762,1
0.4866498436962245,0.3513837899612226,0.07585892149443607,0.4422499668743933,0.018100543851523522,0.5384615384614762,1
0.5006658777236732,0.35064170086341057,0.06835269220942736,0.48922592094374007,0.018100543851523487,0.5384615384614762,1
0.5139424426224529,0.3515628063805882,0.06530498950186286,0.4707332979541347,0.01765912609638274,0.5384615384614619,1
0.5020976158397898,0.35008121111436424,0.06963803459571732,0.4240174162128699,0.018100543851523813,0.5769230769229594,1
0.4952331159262085,0.34938548494191196,0.07214597067673656,0.4204035074985039,0.018100543851523182,0.5769230769229878,1
0.4817994902392809,0.3479715713007215,0.07926485927509025,0.46397009776030185,0.018100543851523765,0.5769230769230376,1
0.48037067406885386,0.34829100735540314,0.07654029083108538,0.4731186868693529,0.01810054385152326,0.5769230769229594,1
0.48006834389306413,0.34570263001125123,0.07827897465348982,0.4721087353900929,0.018100543851523543,0.538461538461533,1
0.4829915653743116,0.3446965978620191,0.07564128343410437,0.4252806810697664,0.018100543851523675,0.5384615384614477,1
0.47372064901120886,0.34693570588286055,0.081935172190429,0.4927504226594033,0.01810054385152344,0.5384615384614762,1
0.46626189804043605,0.344790356722914,0.08540589357770895,0.45698158903199343,0.017659126096383315,0.5384615384614335,1
0.46608361271201343,0.3435254154182927,0.08448919894443974,0.44950920535041183,0.017659126096382594,0.5384615384614335,1
0.47669255775788344,0.3474859906556291,0.08111434620095304,0.3948195710259261,0.01810054385152389,0.5384615384614762,1
0.49914061289625816,0.3499845217272026,0.06605558739642886,0.4693664289411563,0.01765912609638274,0.5384615384614477,1
0.4980465824471164,0.3512955356241672,0.0713413917289335,0.48759107321946416,0.018100543851523772,0.5384615384615685,1
0.49089392415333,0.35087784601189714,0.07552362391738643,0.4438509015700459,0.017659126096382836,0.5384615384614477,1
0.4861673016211764,0.3495216986528422,0.07782288224219275,0.4084042498606698,0.018541961606663687,0.5384615384614335,1
0.4876528760798738,0.35042943090416423,0.07574632460752806,0.4500197311623701,0.018100543851523716,0.5384615384614335,1
0.48768362159139994,0.3511977904890297,0.07731628487189623,0.49824672335732195,0.017659126096382614,0.5384615384614335,1
0.48815122794888227,0.3491358126543005,0.07687448912912465,0.45548931406016335,0.01765912609638342,0.5769230769230091,1
0.48760785384321303,0.3494780967543267,0.07731909231138123,0.41548914760703226,0.018100543851523314,0.5769230769229878,1
0.4882322115938219,0.3498264255893769,0.07690680417296442,0.4800758475687315,0.01721770834124272,0.5769230769230376,1
0.4864164581347417,0.351028780586715,0.07728405428247004,0.482604455924551,0.017659126096383072,0.5769230769230091,1
0.4878787622174276,0.3501577369405011,0.07695062867179586,0.4212938627526991,0.0172177083412427,0.5384615384614762,1
0.48782149096549077,0.34975201694534136,0.07711167486964948,0.4246955166278928,0.018100543851523418,0.5384615384614762,1
0.4879696539665797,0.3485476352908507,0.07488839931292907,0.5041615549832442,0.01765912609638267,0.5384615384614193,1
0.4878317620654074,0.35075736333467006,0.07475383865769397,0.481866996337877,0.01810054385152366,0.5384615384614762,1
0.48788734255262345,0.34986707377914134,0.07643214847982477,0.4414302913026686,0.016334527703709432,0.5384615384614477,1
0.4882123012222102,0.3512994951964038,0.0749940346024095,0.3951782620168006,0.018100543851523772,0.5384615384614762,1
0.489619853118023,0.3507641120550884,0.07517873544988474,0.48485649663103625,0.018100543851523647,0.5384615384615046,1
0.4940291269360975,0.3513340411030916,0.0733010933476575,0.4864002714144296,0.018541961606663895,0.5384615384614619,1
0.49642734218334694,0.35074611346723433,0.06845480305269852,0.451791335987107,0.017659126096383253,0.538461538461533,1
0.49818467897430097,0.3513432794200004,0.0694874783424676,0.4052394112412846,0.01765912609638262,0.5384615384614904,1
0.4987168513202859,0.3507433234521792,0.0677441899386238,0.47905478653617134,0.01810054385152398,0.5384615384615046,1
0.49828189273431606,0.3513397911084173,0.06879613506655163,0.4785688194393742,0.017659126096382448,0.5384615384614335,1
0.4985460176050803,0.3507545386559674,0.06950485675217671,0.446452009908213,0.018100543851523897,0.5384615384614477,1
0.49949113217147423,0.3513170137671274,0.06899541533330944,0.39937786210786086,0.017659126096382892,0.5384615384614762,1
0.5022958574115854,0.3507982061335449,0.06627832466483191,0.48618684570008197,0.017659126096382587,0.5384615384614193,1
0.5002617489367887,0.3512253943969773,0.06977243586749421,0.48478773048379625,0.018100543851523702,0.5384615384614335,1
0.5071795422340399,0.3510047462793079,0.0683201005764077,0.4646836204939761,0.018100543851523314,0.5384615384614477,1
0.5046789635305005,0.35232429738908483,0.06732528858510978,0.39590860242397,0.017217708341242546,0.5384615384615046,1
0.5031029998977292,0.35046716747291384,0.06972894057253243,0.4408170004866117,0.017659126096382927,0.5384615384615401,1
0.5170872517390837,0.3514892390634434,0.060765171725548794,0.49997920716375455,0.017659126096382913,0.5384615384614762,1
0.5183628950644639,0.35069491206496667,0.06121085436624851,0.4609809219354347,0.016776290586101993,0.5384615384614762,1
0.5117469029130631,0.35121643479260434,0.06323504118723061,0.43572906537164025,0.017217708341242068,0.5384615384614477,1
0.5226058656639844,0.35183572017799586,0.05984807291504329,0.3895471477240935,0.017217708341242983,0.5384615384614619,1
0.5209032456234617,0.3527564433928662,0.06199796173537331,0.4623579251144899,0.016776290586101597,0.5384615384614477,1
0.5197124884160744,0.3499670631320888,0.06167013158493084,0.50846744788696,0.01765912609638339,0.5769230769230091,1
0.5176231639435216,0.3538188581504615,0.06216604753547328,0.44329391859087536,0.017659126096382448,0.5769230769228884,1
0.5186273244829362,0.35038000785341045,0.0615596916202254,0.3999681749422588,0.01765912609638328,0.5769230769230518,1
0.5199084790237549,0.3517807486325609,0.062279465076990836,0.49290246692298595,0.01765912609638271,0.5769230769229878,1
0.5196141508689551,0.35024996933144326,0.061414424921421684,0.4912436262055472,0.017217708341242775,0.5384615384614762,1
0.5194795156011547,0.3519261665654227,0.06250317421426344,0.43580703225925005,0.017659126096382594,0.5384615384614477,1
0.5200651233500224,0.3499673379754436,0.06096616954663536,0.3991833018641873,0.017217708341242526,0.5384615384614762,1
0.5139288924910095,0.35291714855972134,0.06577142414237652,0.4999321921603007,0.016776290586101694,0.5384615384614762,1
0.5071569534700097,0.3510768642249611,0.06442652275787308,0.47795227253245165,0.017217708341242526,0.49999999999993605,1
0.49620213356887766,0.350772077942113,0.07357634968562388,0.4402223729083264,0.01765912609638292,0.4999999999999929,1
0.49500679294496963,0.35083554102287107,0.07349739084543178,0.39980628497184445,0.017217708341242526,0.49999999999990763,1
0.5054806069743965,0.35142115541405283,0.06555988320363743,0.49475766069128196,0.017659126096382594,0.4999999999999787,1
0.5091127225025263,0.3505538021141839,0.06300727219008262,0.5140507580825449,0.017659126096383378,0.5769230769229736,1
0.5092476185524994,0.3516336455580121,0.0649819671282254,0.4678095327473982,0.01810054385152337,0.5769230769230091,1
0.5117729920922823,0.3503367374055981,0.061610732610272,0.3512617751491757,0.01721770834124222,0.5769230769230376,1
0.5079221883837065,0.35191535061525003,0.06576607062019546,0.47192375263755,0.017659126096382927,0.5769230769229878,1
0.49902422607454244,0.3498632670943769,0.07338616359499445,0.495303762050955,0.015010274438288132,0.5384615384615046,1
0.5006130757510499,0.35334173946280323,0.06682340306269707,0.4550932315203786,0.017217708341242602,0.5384615384614619,1
0.480896007418663,0.3483121781950044,0.07923037053465992,0.3928254066423347,0.0167762905861017,0.5384615384614193,1
0.4916735065050152,0.3488135672604637,0.07373897833150667,0.4801132602648474,0.017217708341243025,0.538461538461533,1
0.4996993190250371,0.351586028688506,0.06947589184066294,0.5039375828371457,0.016776290586101653,0.5769230769229168,1
0.4976997252071543,0.3509296489223608,0.06975566056088855,0.4405460710541966,0.017659126096383468,0.5769230769229949,1
0.49936770619944815,0.3508712676794301,0.06960076804463933,0.41685362212904964,0.017217708341242116,0.5769230769229594,1
0.4937704358889056,0.35170469181741226,0.0690847959487143,0.447836047046072,0.017217708341242782,0.5769230769230376,1
0.4778338362207929,0.35105758464182485,0.08347310974183625,0.47013681916069333,0.01721770834124227,0.5769230769229736,1
0.47818440752585095,0.34831281663335295,0.07747881224480768,0.46762306922364494,0.017659126096383274,0.5769230769230802,1
0.47747492319667934,0.3514027970167961,0.07991124507136621,0.4161588128868249,0.016334527703709585,0.5769230769229878,1
0.4772372676589188,0.350880664464941,0.07606065871117201,0.5031347704395234,0.016776290586101833,0.5769230769229736,1
0.4773093601594493,0.3511102627355052,0.07783499879208028,0.5016162440199708,0.017217708341242532,0.5769230769230376,1
0.477450985023307,0.35103608594925484,0.07651300946427819,0.4289379541780896,0.016334527703709155,0.5769230769229878,1
0.48348012741440866,0.35100814510756206,0.07761967135418701,0.3683186053221095,0.0172177083412429,0.5769230769230091,1
0.4831188814479514,0.35111040335549315,0.07663069179110776,0.4707828767516129,0.017217708341242317,0.5769230769230091,1
0.4802642263069325,0.350950651088911,0.07756049154226158,0.4913382954266811,0.016776290586101875,0.5769230769230091,1
0.4763625703683056,0.3511567514500229,0.07664192146969007,0.4647327913662076,0.017217708341242442,0.5769230769229949,1
0.4805875813884125,0.3509121477093071,0.07760478138580218,0.40001907818874816,0.01721770834124286,0.5769230769229168,1
0.48308423229138453,0.3511894940705511,0.07650349004602486,0.44863646324981926,0.01721770834124222,0.5769230769229736,1
0.4877463002101214,0.3508837663830268,0.07799800756875691,0.5023308800234488,0.01721770834124249,0.49999999999990763,1
0.494834356050281,0.35121450160644974,0.07266057892112782,0.447487905191467,0.016776290586102034,0.4999999999998721,1
0.4991776575117033,0.350861405655833,0.07096624771842852,0.4022524027532576,0.016776290586102152,0.49999999999990763,1
0.49803513435526486,0.35123477213696985,0.07070050764416497,0.4713652704787584,0.017217708341242567,0.49999999999990763,1
0.49881240501013124,0.35084278188556806,0.0691711114791756,0.4804178573102612,0.0167762905861018,0.5769230769228741,1
0.4981922640795559,0.35125211825693514,0.06967876915758703,0.44021396075614533,0.015010274438288049,0.5769230769228741,1
0.4987252075725947,0.3508263898674434,0.06937935192803596,0.37686108743511904,0.017217708341242477,0.5769230769229878,1
0.4982466796371014,0.3512678581555839,0.06957617481925643,0.4895062262485178,0.015010274438288021,0.5769230769230376,1
0.4986897295045354,0.3508109982164248,0.06944347429718617,0.5092867000607642,0.017217708341242248,0.5384615384614762,1
0.4982689990344546,0.3512832347899318,0.06952764853514298,0.46860093939348857,0.01677629058610202,0.538461538461533,1
0.49867871466425684,0.3507952359068212,0.06949114569080073,0.4075282208712024,0.0172177083412422,0.5384615384614335,1
0.4982674480635732,0.35129991156504037,0.0694573765480005,0.4425899595885536,0.01721770834124258,0.5384615384614477,1
0.49869865784863326,0.35077687997723517,0.06969650116414078,0.49772199900959124,0.01721770834124209,0.49999999999990763,1
0.49821315210553263,0.35132115931249774,0.07043543073434416,0.46999423917798755,0.016776290586102083,0.4999999999999005,1
0.49881018466626864,0.35075061372439126,0.06943157680399731,0.41732326540966114,0.01721770834124218,0.49999999999990763,1
0.4934321683649543,0.3513566635788328,0.07237078906077582,0.43878312802313435,0.016776290586102256,0.49999999999993605,1
0.48940612060552835,0.35069590925277405,0.0764553611936169,0.5001168849364683,0.0172177083412422,0.5769230769230091,1
0.4879650291611106,0.35146212222843776,0.07721794359161077,0.47154909928012123,0.01677629058610202,0.5769230769230234,1
0.4877913281206669,0.35033562485132297,0.07699845628603086,0.4269548543023636,0.016776290586102402,0.5769230769229949,1
0.4880337705117911,0.35052684819367763,0.07724249446607939,0.42534537315275617,0.016334527703708995,0.576923076922931,1
0.4876368266711837,0.35098632327272516,0.07682739578205922,0.49903631615824773,0.01677629058610216,0.5769230769229878,1
0.4887123298939181,0.3512342460555431,0.0761156434828244,0.4609819240118842,0.01721770834124197,0.5769230769229452,1
0.48874225817240874,0.35019472004813124,0.07616258398161624,0.4573667831212984,0.016776290586102395,0.5769230769230376,1
0.48762493816447766,0.35017768589431936,0.07645764252376541,0.38544187682728764,0.016776290586101868,0.5769230769229736,1
0.48799960184931923,0.35049354236005226,0.07657155848298813,0.4533946217147678,0.015893109948569288,0.5384615384614477,1
0.4879412982242112,0.3513676412917887,0.07645983506036885,0.47797508985221454,0.01721770834124245,0.5384615384614051,1
0.48725433202745666,0.35075348202353296,0.07733465334677742,0.47068387657331245,0.015893109948569226,0.5384615384614335,1
0.48685947888543873,0.3513271738494629,0.07695968735143521,0.411659484259755,0.016776290586102,0.5384615384615188,1
0.4883504771584466,0.35075324041441874,0.07721082899963139,0.44711842971532184,0.016776290586101847,0.5769230769229878,1
0.48755225604400665,0.35135346709754,0.07702243680128662,0.48952364143916505,0.01721770834124267,0.5769230769230091,1
0.4881758371276392,0.35066127301644223,0.0771443930682083,0.47059958082681064,0.017217708341242213,0.5769230769229949,1
0.48896125622203224,0.3513125974263608,0.07675523433670428,0.4089227396758448,0.017217708341242255,0.5769230769229452,1
0.4881230380131509,0.35090694681144674,0.07588239130860108,0.424266332507258,0.016776290586101854,0.5384615384614335,1
0.48767463653461063,0.35122610205661753,0.07648142900862293,0.4995860645803152,0.017659126096382913,0.5384615384614762,1
0.4880960724413872,0.3508493401459705,0.07542324445606613,0.48142409609790227,0.016776290586102083,0.5384615384615188,1
0.48769568053157486,0.3512308658085246,0.0771925458402008,0.44481571268816333,0.017217708341242213,0.5384615384614762,1
