wrist_ACC_1,wrist_ACC_2,wrist_ACC_3,wrist_BVP_1,wrist_EDA_1,wrist_TEMP_1,label
0.7667832632310128,0.6288456932678727,0.20628106235458554,0.6943286065146345,0.2009330552709122,0.7277486910994639,1
0.8828130675379877,0.6016119106347775,0.28463732106871587,0.5231649471992308,0.20329664745054554,0.7329842931937129,1
0.8888634078288427,0.6049367477667201,0.39752354804305234,0.5321658138519234,0.20329664745054532,0.7329842931937218,1
0.852165100164405,0.614965536811533,0.6853872693530325,0.6320780596299321,0.20329664745054554,0.7329842931937272,1
0.7604486457023927,0.7340554818119366,0.6035373208482937,0.7521666913217745,0.2056602396301787,0.7329842931937218,1
0.6300139659407928,0.8749085847913063,0.5432659383536788,0.7583423553834052,0.203296647450545,0.7225130890052291,1
0.4470327126924575,0.9391525624047135,0.5422413370086057,0.6373873812697208,0.20211485136072915,0.7225130890052434,1
0.2093667773302588,0.9890462562377034,0.4973248268030252,0.5328984131051524,0.19620494691157597,0.7225130890052238,1
0.1899767097150748,0.9894625593744408,0.5321466333045815,0.26598133003792573,0.19856853909120853,0.7225130890052363,1
0.1818302962590892,0.9949501902911024,0.5243676666583729,0.49777809947558477,0.19856853909120925,0.7172774869109961,1
0.20517341004281095,0.9901072624989347,0.5388915467817894,0.7731736688313453,0.19738674300139225,0.717277486910989,1
0.21015705984681754,0.9930198408138899,0.5280999810896232,0.6199852792001134,0.1973867430013928,0.7172774869109872,1
0.21266667348881882,0.9915368691795532,0.5301350133259273,0.6380335060348172,0.19502315082175947,0.7172774869109926,1
0.20682417149928875,0.9951126750639412,0.5223492498219896,0.678202221818449,0.19502315082175947,0.7225130890052363,1
0.1775268718304376,0.9932455065609018,0.5180705028815092,0.5986732489713301,0.19502315082175914,0.7225130890052185,1
0.14444932515092423,0.9951579976569354,0.5099028679543297,0.5597986955115837,0.1891132463726075,0.7225130890052363,1
0.143140880688228,0.989288380332483,0.5185039896981215,0.6663121067668101,0.19265863464205618,0.7225130890052291,1
0.14205773518694617,0.9957492672194574,0.4985029366411373,0.6457101555194013,0.18911324637260696,0.7225130890052469,1
0.21983217465183458,0.9985799748503852,0.4936437167486448,0.5516883901943219,0.19384135473194297,0.7225130890052327,1
0.2050626286909506,0.9981199217065977,0.5037848841110517,0.5958553476976772,0.18674965419297412,0.7225130890052363,1
0.21406890668669581,0.9962558461052589,0.5149269840713191,0.6434841380414622,0.1902950424624235,0.7225130890052345,1
0.21390171799044247,1.0,0.512056115044783,0.5684615458253598,0.18911324637260596,0.7225130890052291,1
0.14020254421533745,0.9905734711835643,0.5013958867352774,0.60015192097202,0.1891132463726078,0.7225130890052398,1
0.0,0.9751178670323479,0.550489636761567,0.6639471732923999,0.19265863464205651,0.7225130890052291,1
0.14169271851566645,0.9754312100836804,0.600490372734338,0.6046631467790263,0.19384135473194303,0.7225130890052291,1
0.11983622605395207,0.9698649474713288,0.6249734901466283,0.5463994982293797,0.1985685390912083,0.7094240837696262,1
0.030237238139863426,0.9626635921930246,0.6001647650045203,0.6429856383497126,0.19620494691157603,0.7094240837696191,1
0.03167426552293981,0.9605172727317455,0.6323912948271446,0.672412427303458,0.19265863464205574,0.7094240837696315,1
0.03550947427246737,0.9638958087051699,0.5903721857940644,0.4389279493976786,0.19265863464205613,0.7094240837696262,1
0.014439987033632473,0.9613213266197697,0.6044827985628283,0.6377773077154966,0.19856853909120897,0.7094240837696262,1
0.05889111723657306,0.9698086861899196,0.5890241411691485,0.7654354623931643,0.19856853909120953,0.7094240837696386,1
0.07591851039607797,0.9764461875135297,0.5921758322670407,0.6102223859539071,0.19738674300139253,0.7094240837696297,1
0.09183586648903712,0.9785977645617225,0.5725810117815268,0.43956290979254375,0.19856853909120964,0.7094240837696315,1
0.09227944313631821,0.9908721645074849,0.5436415355751485,0.624571404330097,0.1962049469115757,0.7172774869109961,1
0.1305732361231262,0.9654867413136516,0.5935636100265689,0.5614858080763813,0.19265863464205651,0.7172774869109908,1
0.2165650527483192,0.9145419007114302,0.6306959160412333,0.5424255530510346,0.19147683855223996,0.7172774869109997,1
0.43423323529322927,0.8546308494158372,0.7508194359308464,0.5981051846999234,0.19384135473194297,0.7172774869109997,1
0.5829994652862077,0.8300860565996241,0.8713353005660003,0.6162017737016071,0.19856853909120925,0.7172774869109979,1
0.6026089976581687,0.814542018619566,0.7155143234935577,0.5979084389007849,0.20329664745054576,0.7172774869109997,1
0.6955806496170267,0.7968077462171116,0.679647620092122,0.6622373003017026,0.1985685390912087,0.717277486910989,1
0.6780540472147094,0.7700372765212848,0.6399022344646578,0.6542379029081268,0.1985685390912092,0.7172774869110032,1
0.7527125792497971,0.7235653559988866,0.7018258933771049,0.5575461567044383,0.19502315082175975,0.7094240837696457,1
0.752705480318097,0.7000405990298907,0.6757516652849205,0.5078338535407347,0.1973867430013923,0.7094240837696209,1
0.8206498790269985,0.6989877371050554,0.567695600538596,0.5884427550749055,0.19738674300139236,0.7094240837696315,1
0.8542281102250633,0.7057340942769629,0.447888217212453,0.5909647436017447,0.1962049469115763,0.7094240837696351,1
0.8527401547441271,0.6886181582949024,0.43490191835214875,0.6712245714554718,0.19620494691157614,0.7041884816753896,1
0.84043127941856,0.7040079939103415,0.5008733507919616,0.60399162420488,0.19975125918109593,0.7041884816753932,1
0.8056795931313532,0.6763645051374274,0.560926141081004,0.4762253740428639,0.19856853909120908,0.7041884816753932,1
0.8267599760929965,0.6981280215702562,0.5132207358929414,0.5722649961959242,0.19738674300139203,0.704188481675379,1
0.8383128761494625,0.7011655047879102,0.4607356344277012,0.6641304917519373,0.19738674300139242,0.7094240837696244,1
0.8326794726277706,0.7044182537406198,0.4721646413343812,0.6270366953520374,0.1867496541929743,0.709424083769628,1
0.8407610324782391,0.6835546807009827,0.41895119661590796,0.5891713901853316,0.1891132463726065,0.7094240837696368,1
0.8273391234757872,0.6852234390958754,0.323638436056744,0.6480891391999696,0.1832033419234546,0.7094240837696439,1
0.8304511627993578,0.6835465189530268,0.32086375661179506,0.6219885608997632,0.18674965419297346,0.7172774869109961,1
0.8247601940556393,0.6863842588718078,0.3413521653741741,0.5529040845658219,0.18911324637260685,0.7172774869109926,1
0.8334115085636769,0.6839487930359227,0.3444478554525616,0.5268776007238132,0.18674965419297368,0.7172774869109908,1
0.8204141772474267,0.6925919659579348,0.33364402300476015,0.5295658990393622,0.18793145028279024,0.7172774869109801,1
0.8250082203710569,0.6836407417404806,0.3291152895041432,0.6155667008491142,0.1867496541929743,0.7015706806282793,1
0.8146287487975223,0.6962252884344695,0.31985313112040437,0.6568861999378282,0.19265863464205701,0.7015706806282722,1
0.8590151326342892,0.6665202519939601,0.3186263617262448,0.6014875899696603,0.18793145028279024,0.7015706806282793,1
0.7477429262438209,0.7079392727962808,0.26416278044624086,0.5859541698955424,0.18674965419297374,0.7015706806282793,1
0.8069769289562934,0.7163525187754051,0.2491201854657474,0.6086042544861001,0.1832033419234544,0.6963350785340356,1
0.8383916553218995,0.691267162324199,0.5279382954492162,0.6097580967493708,0.1867496541929729,0.6963350785340321,1
0.6240335085290634,0.7046687105648396,0.8443271033629225,0.5670515022252017,0.1879314502827905,0.6963350785340321,1
0.5510230611256999,0.7710143047895465,0.7556634848594024,0.6132741323164432,0.19147683855223968,0.6963350785340268,1
0.5430303934433724,0.7664744159226335,0.7842772437357081,0.658202405754915,0.19502315082176053,0.7015706806282793,1
0.6178877489393898,0.7331105957720043,0.8191734391208632,0.6594948838178543,0.19265863464205618,0.7015706806282775,1
0.6005907388742531,0.7040472901347519,0.8161894220826713,0.7877010361363128,0.19502315082175942,0.7015706806282669,1
0.6524043911807224,0.6911929017226444,0.8317933291944302,0.45119484027120954,0.19384135473194303,0.7015706806282651,1
0.6681768856024726,0.7018085355302565,0.7585140339945394,0.4069840680010193,0.19265863464205607,0.7015706806282722,1
0.7388694959051039,0.6929525683876547,0.7344266803594086,0.6364410638469227,0.1962049469115757,0.7015706806282669,1
0.7652854903202486,0.6983214327426562,0.6723516315115264,0.57899359619148,0.1926586346420568,0.7015706806282758,1
0.7755783897415645,0.6946570317000769,0.6771254952177432,0.4845925303599776,0.19384135473194247,0.7015706806282616,1
0.7724856382375889,0.6965465556326221,0.6618043244829657,0.6125251716914383,0.19384135473194314,0.701570680628274,1
0.7789064939601273,0.6952140540358387,0.6666655160805336,0.6381820726922555,0.19265863464205663,0.7015706806282775,1
0.7754762080023281,0.696052206557131,0.6590293955548139,0.5778820047728738,0.19265863464205618,0.7015706806282775,1
0.7836356191989622,0.6957939411890799,0.6664498651326385,0.6269664190212051,0.19265863464205607,0.7015706806282722,1
0.779487344190255,0.6933804248129875,0.6374927096093275,0.6142187614389704,0.19147683855223924,0.7041884816753825,1
0.8154037939109413,0.6984852240137647,0.5980257340442272,0.6332012515354547,0.1902950424624234,0.7041884816753843,1
0.8361568195411977,0.696975012784621,0.5331902307597638,0.637856101925598,0.19029504246242335,0.7041884816753861,1
0.8247866610945711,0.7040391984342896,0.541867043109579,0.5372640235903486,0.18793145028279112,0.7041884816753967,1
0.8224729139672524,0.7114509171892064,0.5335902001318568,0.5492493609137444,0.18438513801327133,0.7041884816753967,1
0.7198091876746417,0.6945382895557431,0.7208908882890261,0.5754451105164315,0.18556693410308722,0.7041884816753949,1
0.6105047565662252,0.6839391092750942,0.8187501620443534,0.6252079068412711,0.18674965419297385,0.7041884816754038,1
0.6888544114490969,0.6744862827078828,0.7947257246716204,0.5527443368904441,0.18793145028278985,0.7041884816753878,1
0.6739776517535773,0.676292053129927,0.7863970494843362,0.6293306479701655,0.185566934103087,0.7041884816753932,1
0.6867789897050411,0.6739204612823524,0.7934721168648029,0.6771349897888959,0.18911324637260724,0.7041884816753932,1
0.6685178715025156,0.6759912000670023,0.7873381242811774,0.6208899157490363,0.18674965419297374,0.7041884816753914,1
0.6844665997122998,0.6752078384245412,0.792918158126142,0.49759643179121826,0.1867496541929743,0.704188481675402,1
0.6694030981045523,0.6773999562133313,0.7844917763614416,0.5639205077967034,0.1867496541929734,0.7041884816753896,1
0.6833116967406349,0.67945387394457,0.7925883894836157,0.5965439054561492,0.18438513801327078,0.7041884816753949,1
0.6647335544444146,0.6768496171462298,0.7886551226027345,0.6263764667964895,0.1855669341030865,0.7041884816753843,1
0.6811716060466427,0.6795410467667083,0.79780026783282,0.6013263540165464,0.18320334192345422,0.7041884816753985,1
0.6607740281819021,0.6787430809679484,0.7907615065086779,0.5747582925898755,0.18438513801327033,0.7041884816753896,1
0.6763689763677974,0.6798042604225835,0.7952785146806653,0.6307221797323922,0.18202154583363767,0.7041884816753914,1
0.6618387588271959,0.6785158885948384,0.7866331424950701,0.59800812458674,0.17611164138448449,0.7041884816753932,1
0.6799331299842173,0.6803311163234187,0.798151991393232,0.5709576759905628,0.18083974974382083,0.7041884816753878,1
0.6619348342162186,0.6792032626053999,0.7862463934084281,0.6066394987221654,0.18083974974382094,0.7015706806282793,1
0.6807928729457249,0.680388103939733,0.7954343005589999,0.6290801164534544,0.18202154583363794,0.701570680628274,1
0.6619628640602813,0.6790058150703051,0.7842194839880972,0.5868867157402708,0.18083974974382117,0.7015706806282722,1
0.6811570041485089,0.6807377261904008,0.7975094692600571,0.5685788941840213,0.18083974974382078,0.7015706806282633,1
0.6624190668749996,0.6783959498991509,0.7764450605068711,0.6045776458026415,0.17965795365400472,0.7015706806282722,1
0.7457648695067944,0.6874465372800715,0.7402221934633548,0.6245504843549717,0.18083974974382094,0.7015706806282669,1
0.7363408227198951,0.6847087775175912,0.6961570531963326,0.5869124477705834,0.1796579536540045,0.7015706806282829,1
0.8191233738855415,0.7171565710962605,0.7774375454855579,0.5772182719842436,0.17729343747430137,0.701570680628274,1
0.6054584511159657,0.8460982768938754,0.6380262150345695,0.6126707920501867,0.1772934374743006,0.7015706806282616,1
0.36508631643575296,0.900252791596682,0.5763132071578689,0.6385521190769422,0.18083974974382055,0.7015706806282669,1
0.42603047941232564,0.949947662199615,0.6218467656105267,0.5486323693877626,0.1832033419234541,0.701570680628274,1
0.4118474902109148,0.9625981162099468,0.6058271579886133,0.5185391464930279,0.18202154583363794,0.7015706806282651,1
0.37595298548181627,0.9510578391566464,0.6249053252135889,0.5559423579636285,0.18083974974382128,0.7015706806282669,1
0.37386568183028135,0.9513051543258526,0.6103968261934145,0.7679876768580196,0.1832033419234544,0.701570680628274,1
0.4187389128515718,0.9647448955774378,0.593478415012832,0.6859388707725672,0.180839749743821,0.7015706806282687,1
0.42181302008905525,0.9511863723605751,0.5770311359137805,0.5926226678996428,0.18202154583363722,0.7015706806282616,1
0.4470345868039092,0.9481609780506772,0.6216877519180418,0.61191853592713,0.18320334192345367,0.696335078534025,1
0.46412977475781614,0.9463764001383226,0.5684332810355879,0.5457079074916722,0.18202154583363767,0.6963350785340356,1
0.4890558452417906,0.9445305956817258,0.5731490929812465,0.5666192425787757,0.18202154583363744,0.6963350785340285,1
0.45762435940056134,0.9470513984874712,0.5670902725402295,0.5680744186979487,0.18083974974382133,0.696335078534041,1
0.4644035157744104,0.9472347214584116,0.5817692309483679,0.6049535191975368,0.18320334192345378,0.7015706806282669,1
0.46230908630904755,0.9433468186134568,0.584574433248727,0.4889848300994854,0.17965795365400528,0.7015706806282793,1
0.4656282815494135,0.9443276923760314,0.587271605152996,0.6545353034678614,0.1820215458336374,0.701570680628274,1
0.4665613097550151,0.9462858326374204,0.5844602791625855,0.6866343637117135,0.1784752335641182,0.7015706806282722,1
0.44040579403223556,0.949515461857392,0.5855252959906886,0.46614611404210193,0.1796579536540045,0.7015706806282687,1
0.4492452505420518,0.9491027554013362,0.5979929068112131,0.510645404133455,0.1761116413844852,0.7015706806282669,1
0.45196822547371907,0.9450416028104839,0.6058426273652455,0.4149630873118447,0.1749298452946676,0.7015706806282633,1
0.45119428047388843,0.9413266019369937,0.6096226962480609,0.6009937841707395,0.17729343747430115,0.7015706806282722,1
0.45287733315174505,0.9387297826470227,0.6099147990223954,0.6840437809225255,0.1761116413844851,0.696335078534041,1
0.4598090627653628,0.9392877611237536,0.6125528128632219,0.6719565613621831,0.17374804920485182,0.6963350785340356,1
0.45256768775108003,0.9374590758609552,0.6119439943560663,0.6167740066571897,0.17256532911496536,0.696335078534041,1
0.4711943488758743,0.9407029606027159,0.6040976336082013,0.5946338139295029,0.17256532911496558,0.6963350785340463,1
0.4654066887912718,0.9413695063071317,0.5957093433947773,0.6373124774267803,0.17374804920485165,0.696335078534025,1
0.46638017610487664,0.9402482685249093,0.601268728323278,0.584981327004474,0.1749298452946681,0.6963350785340303,1
0.4656796860461095,0.9403592027969306,0.5902357933010862,0.6139440748017857,0.17492984529466893,0.6963350785340428,1
0.473418681751923,0.9441017957139846,0.6025307971754987,0.6519190784405385,0.17256532911496464,0.6963350785340303,1
0.44949147278994017,0.945906027318574,0.5988828497955778,0.591573126876456,0.17374804920485143,0.6963350785340232,1
0.4170775078797003,0.9507099381541031,0.6044897790542522,0.5748629973906432,0.17256532911496486,0.6963350785340356,1
0.42633670313925215,0.9526430359826412,0.6036110179308226,0.6289302485288216,0.17256532911496508,0.6963350785340339,1
0.4303604409065092,0.9510929166085341,0.5942308231815461,0.6005256235776755,0.1725653291149648,0.6963350785340268,1
0.4300624978668594,0.9515254813068492,0.5963264354344254,0.5437225189176302,0.17138353302514875,0.6963350785340356,1
0.4325199111304595,0.9519610071380598,0.5949653043668128,0.5846271863011544,0.1690199408455152,0.6963350785340268,1
0.4349264082421185,0.9508510674599571,0.5971188257465752,0.6609188126978139,0.17020173693533214,0.6963350785340321,1
0.43996191583860533,0.9503814599464303,0.5976099013708174,0.5965416442603125,0.1702017369353317,0.6963350785340339,1
0.43783924658794426,0.949679054549232,0.5959155046197776,0.5940582173961453,0.17138353302514842,0.6858638743455554,1
0.4447181101731208,0.949866193157618,0.5964620318630887,0.6251327495280582,0.17138353302514875,0.6858638743455554,1
0.4397991545473877,0.9487924430757596,0.5923315579133888,0.6163731170043214,0.1713835330251487,0.6858638743455447,1
0.44880990274583843,0.9516540259810765,0.5859372095293263,0.5662064690985642,0.17020173693533208,0.6858638743455536,1
0.4434198056937977,0.949622288743913,0.5846635588130924,0.5963491560425578,0.17020173693533192,0.6806282722513064,1
0.4434470681333119,0.9514240091303188,0.597965142598902,0.6228777143492077,0.17256532911496525,0.6806282722513082,1
0.4061849561441955,0.948053562397107,0.6229516221050707,0.6091507205805031,0.17020173693533214,0.6806282722513064,1
0.41686972275173073,0.9518265380393882,0.6177535994508496,0.5929176129713585,0.16783814475569858,0.6806282722512975,1
0.37827821815564616,0.939064556056544,0.6378629525323627,0.5983596574200499,0.16311003639636285,0.6806282722513082,1
0.43908264493244953,0.8777325983425814,0.6242792304354852,0.5756212059307009,0.16783814475569858,0.6806282722513082,1
0.6526816968835347,0.8329172758964873,0.7543617406474259,0.5553494638850531,0.16665634866588247,0.6806282722513011,1
0.42868854514889526,0.6911922775254233,0.9411627458070363,0.596513405729094,0.17256532911496558,0.6806282722513117,1
0.522614952723025,0.6590827414609688,0.8896453600289773,0.6538722073773935,0.17492984529466854,0.6753926701570769,1
0.7224495558428918,0.7269394649419187,0.7067893287757887,0.6062316588471586,0.17374804920485176,0.675392670157068,1
0.7429515451254622,0.7407476933295922,0.4506647433408768,0.6827677107579978,0.16783814475569936,0.6753926701570645,1
0.939863070785051,0.732949805053181,0.4084113746243319,0.715178199408854,0.16074644421673007,0.6753926701570734,1
0.702368112214399,0.763385346883426,0.6543641376567231,0.4170865621545393,0.179657953654004,0.6806282722513046,1
0.5246702670497982,0.6877287857217957,0.8060236136737751,0.4061502521195338,0.17256532911496536,0.6806282722513064,1
0.6604402084809206,0.7050917422639851,0.8458443876900709,0.618035453133573,0.17611164138448449,0.6806282722513028,1
0.6163985024524519,0.7102027939486327,0.8077981471297686,0.7357290763251508,0.17492984529466848,0.6806282722513064,1
0.6308930542721409,0.7103784844927783,0.8129058465820107,0.5181400424488559,0.17611164138448504,0.6806282722513064,1
0.6012322688679482,0.7247137840449488,0.7815246341230893,0.6801053858199532,0.1772934374743012,0.6806282722513064,1
0.6543285665597265,0.7126768139124108,0.7904995648284106,0.5844983241768873,0.17729343747430132,0.6806282722513117,1
0.6410498664725934,0.700544384031059,0.8024651138749299,0.4845929396948487,0.17847523356411799,0.6806282722513064,1
0.6448804328628697,0.6876873517718911,0.8263111482396537,0.6297603001853741,0.17138353302514814,0.6858638743455465,1
0.6584898821208147,0.6811709046041449,0.7906581035623778,0.5929160086869332,0.1784752335641177,0.6858638743455536,1
0.6532562381819655,0.7001617097178336,0.7971099960155533,0.5456331475908969,0.17729343747430137,0.6858638743455394,1
0.6632165690775295,0.6948341580855264,0.7856819865570464,0.6356735663098368,0.17847523356411776,0.6858638743455394,1
0.6613189338689542,0.7016223718238688,0.7880916272475145,0.6706070613545897,0.17847523356411799,0.6858638743455501,1
0.6600108195134047,0.6997006264557388,0.7833573249842695,0.5970814298812702,0.17847523356411832,0.6858638743455607,1
0.6727107188543824,0.7028428159103141,0.7740178712197658,0.5578920178153667,0.17847523356411765,0.6858638743455412,1
0.6928625628807445,0.7030105773091784,0.7600636332476062,0.5427807299054834,0.18083974974382128,0.6858638743455465,1
0.6846618067694437,0.710786761304502,0.7596604912230964,0.5787761140748876,0.18438513801327017,0.685863874345543,1
0.6994217672298738,0.714374886621012,0.733414769145347,0.593048662820503,0.18202154583363794,0.6858638743455554,1
0.737797174929586,0.721467904970656,0.6959896243343268,0.6443276252252341,0.1690199408455152,0.6858638743455518,1
0.7453568704653151,0.7249926833066167,0.6782689509348392,0.6060863762149771,0.16783814475569897,0.6858638743455412,1
0.7404863949327858,0.7217640779344456,0.6793095430317836,0.5732416738432785,0.16783814475569914,0.6806282722513135,1
0.7358556218924763,0.7189995752993246,0.6951329066828813,0.6790661980007838,0.16901994084551564,0.6806282722513011,1
0.7398979218477619,0.7205073527751605,0.6935691348272615,0.5895339007796493,0.16901994084551547,0.6806282722513117,1
0.7382877048063141,0.7188527854682359,0.688265623534071,0.5939996887776973,0.16547362857599573,0.6806282722513028,1
0.7462004624466956,0.721464511181148,0.6782247134816072,0.6048362587362481,0.16547362857599612,0.6806282722513046,1
0.7526995497345219,0.7221341866430998,0.6718977068303318,0.6090179067720891,0.16192824030654596,0.6806282722513064,1
0.7507151595657395,0.7208297285098357,0.6688484952508071,0.607420233006451,0.16429183248617985,0.6806282722513082,1
0.7383262805642401,0.714681249181153,0.6934206540750218,0.5841280569521207,0.16311003639636346,0.6806282722513224,1
0.7525883318694735,0.699320939287953,0.7065176121816237,0.6094720918708122,0.16665634866588214,0.685863874345543,1
0.7333448832006466,0.7030303926591661,0.7080536719357843,0.5852445865516231,0.1654736285759963,0.6858638743455465,1
0.6769399639597098,0.6887267482994639,0.7867753478765144,0.5470355542291752,0.16783814475569897,0.6858638743455501,1
0.669948659445156,0.6816049510224944,0.7906435025937589,0.5472455525254957,0.17020173693533286,0.6858638743455554,1
0.6819927399563253,0.6800355656790655,0.7821274052481926,0.6055820884894847,0.17138353302514853,0.6806282722513117,1
0.6854346718893105,0.6802367354325669,0.7786732003006568,0.5746227023463113,0.17256532911496514,0.6806282722513117,1
0.6916657641766546,0.6803378826186877,0.773054780370486,0.5618105908825743,0.17020173693533192,0.6806282722513028,1
0.6968583434441386,0.682318438064436,0.7668933762317593,0.6130140580959218,0.17020173693533236,0.6806282722513082,1
0.6999597643393993,0.6869210147026228,0.7644632830586647,0.5850520326575014,0.16783814475569825,0.6806282722513117,1
0.6995219774877188,0.6872524069092807,0.7621921795908675,0.5469539005896852,0.17256532911496564,0.6806282722513117,1
0.7029531224711789,0.6866583313333529,0.7631210684826493,0.6105861991716443,0.16901994084551508,0.6806282722513064,1
0.7027958511197084,0.6856824773699981,0.7598223764633117,0.619500537883692,0.16901994084551641,0.6806282722513135,1
0.7025252611769949,0.6868969002957636,0.7595927835859919,0.5684818194990096,0.17138353302514886,0.6806282722513046,1
0.7029917773352166,0.6858273099216691,0.7596213488409754,0.6303574484657757,0.17138353302514847,0.6806282722513135,1
0.7003667679702332,0.6861739814129378,0.7644552044902875,0.5967950302430447,0.17256532911496414,0.6806282722512922,1
0.6988032134376782,0.6841712206417854,0.7629126830582585,0.6182930221813782,0.17256532911496525,0.6806282722513135,1
0.7005599188104243,0.6852189815657939,0.764237676648934,0.7472394281230176,0.17374804920485187,0.6806282722513046,1
0.6997438013220136,0.6848179903760462,0.7662277163194424,0.6178470463436266,0.17374804920485237,0.68062827225131,1
0.6984256162701212,0.68720869920818,0.7649362785558408,0.573631874125801,0.1713835330251483,0.6806282722512975,1
0.7009257202944947,0.6834428375297911,0.770491588340338,0.5889925749407949,0.16901994084551508,0.6806282722513028,1
0.6935364575477831,0.6832465186269002,0.7703843267544344,0.5921757449083586,0.1702017369353317,0.6806282722513028,1
0.6951256596947203,0.6859934629066522,0.7668221796843919,0.5419178315524332,0.17256532911496558,0.6806282722513153,1
0.690493419789614,0.6844471002030894,0.7711460256656313,0.5826709971067303,0.17020173693533192,0.6806282722513011,1
0.698236177240055,0.6870003796241588,0.7657060820399879,0.6312471508067448,0.17138353302514875,0.6806282722513064,1
0.7049589081578431,0.687481764190689,0.7560881454190627,0.6131088643519339,0.17138353302514886,0.670157068062819,1
0.7005652173702768,0.6980642097303849,0.7583461865365759,0.5706575757362861,0.1702017369353322,0.6701570680628315,1
0.6944299271892187,0.7016555633936286,0.7512525517829548,0.605941303805281,0.1713835330251482,0.6701570680628262,1
0.7055364593876854,0.7042558688037003,0.7548541915784723,0.6210000183836839,0.17020173693533236,0.6701570680628333,1
0.6986206291765126,0.6849631101857576,0.7802470638930072,0.5497850902127063,0.1702017369353313,0.6806282722513028,1
0.6856874518406177,0.7341821223097255,0.7045178257764123,0.5327287226509044,0.17138353302514914,0.6806282722513206,1
0.7328832840972737,0.7740775427110824,0.66037442774498,0.6230111537943389,0.16783814475569908,0.6806282722513117,1
0.6900174828895782,0.7197602570202697,0.733008179963894,0.5555214718063184,0.1678381447556997,0.6806282722513064,1
0.662300323700241,0.7926202187979363,0.7530978157272586,0.5445546428254453,0.16665634866588264,0.685863874345543,1
0.48991065289190655,0.7551970020636984,0.8197365696856949,0.5867374898610018,0.17020173693533214,0.6858638743455518,1
0.4801800136242424,0.7353163140805499,0.8457607199782397,0.6476861460325892,0.17020173693533203,0.6858638743455536,1
0.5542900073072043,0.7744282614681479,0.8287929143424418,0.5974973492268085,0.1749298452946676,0.6858638743455501,1
0.5425269326418758,0.7280460969746757,0.8325451571678946,0.5902805310474118,0.17374804920485204,0.6858638743455483,1
0.5916905461559612,0.7358872078979418,0.8450023838014338,0.7219729599809674,0.17374804920485182,0.6858638743455554,1
0.537193577920526,0.7297682283528656,0.8325992114338849,0.6378207232073463,0.17611164138448515,0.6858638743455447,1
0.5334801764714554,0.7165049191482514,0.8566197271720042,0.42831546632866746,0.17611164138448487,0.6858638743455554,1
0.5508834505659576,0.7190896440190974,0.848423561938614,0.5454399620044508,0.17611164138448449,0.6806282722513064,1
0.553419680137002,0.7261344939034378,0.8395616261027945,0.6537210857278616,0.17374804920485154,0.6806282722513064,1
0.5809309853700351,0.7271340016017033,0.8240587226540383,0.6638661470468828,0.1761116413844846,0.6806282722513028,1
0.5808044596385304,0.7299178050789679,0.8238815310926726,0.5892682864044962,0.1713835330251482,0.6806282722513028,1
0.5788123611126537,0.7292724168801434,0.8242488016052902,0.6167883978511517,0.17611164138448565,0.6858638743455554,1
0.5923537316310207,0.7311197895101078,0.8153285834041668,0.5459614232498067,0.17611164138448432,0.6858638743455483,1
0.5886405208310959,0.7281138764312499,0.8166539900645553,0.6302562624906676,0.1761116413844856,0.6858638743455572,1
0.5876193031990273,0.7307886732595289,0.820886655913778,0.6013449984203266,0.17611164138448449,0.685863874345543,1
0.5761085232416142,0.7291624469550592,0.8223834892355024,0.5638477806916229,0.17611164138448493,0.6910994764397866,1
0.5739764693373877,0.7273134403723336,0.8327899346095542,0.5684599592950447,0.17847523356411749,0.6910994764397866,1
0.5484786013494181,0.7224489211431703,0.8449672017567248,0.6445812784763046,0.1761116413844851,0.6910994764397884,1
0.5462356189102193,0.7240158688882821,0.8504100789317437,0.5799533842395203,0.1761116413844846,0.6910994764397955,1
0.49704400593434805,0.7045028673025573,0.8728318318976034,0.6266683100723975,0.17256532911496503,0.6806282722512993,1
0.5196307377125879,0.7131150165215338,0.8706328475681901,0.6454179032861385,0.17492984529466804,0.6806282722512975,1
0.4795807288656113,0.7021204751435737,0.8742998485833071,0.6213133633749224,0.17492984529466837,0.6806282722513082,1
0.5384852626592045,0.6988856265583284,0.8621624959132864,0.5539109187112846,0.17374804920485204,0.6806282722513135,1
0.6004488375720749,0.6955598687722411,0.8165482633787788,0.5993640152592407,0.1737480492048516,0.6806282722513064,1
0.8001973136465645,0.6796564488625232,0.6447544898742124,0.5714916443281378,0.16783814475569936,0.6806282722513082,1
0.8771936425389188,0.6586912983670491,0.40804090671916204,0.5821411070502843,0.156018335857393,0.6806282722513011,1
0.8996361919014,0.6702593574789742,0.5554666263552714,0.4830880922345105,0.1501084314082412,0.6806282722513117,1
0.5428311369362053,0.7357921500961327,0.8447408184921176,0.5639639056193723,0.15247294758794377,0.68062827225131,1
0.41404044511533283,0.7052226340481664,0.8369830032263321,0.6980263510436131,0.16429183248617923,0.6806282722513028,1
0.4825915499080631,0.7570415505376111,0.8657311964746064,0.7495401853964261,0.16783814475569953,0.6806282722513117,1
0.48145318870427556,0.7572522030715849,0.8554919659225984,0.44203371503644484,0.16783814475569953,0.6806282722513135,1
0.5025421594948813,0.7495025353942211,0.8552431279178953,0.5559460206722764,0.17020173693533214,0.6806282722512957,1
0.4951952908538859,0.7513807707082361,0.8521965661306553,0.856954185774117,0.17020173693533225,0.68062827225131,1
0.5005655640448105,0.7509841512298709,0.8484777241993222,0.5330909319406492,0.17138353302514864,0.6806282722512993,1
0.49933931073974147,0.7531358936198664,0.8463933057551247,0.514690148910935,0.17020173693533153,0.6806282722513064,1
0.5160675760182085,0.7485094096599042,0.8367440333526082,0.5647729271899207,0.17256532911496497,0.675392670157068,1
0.5430738828277077,0.7512237607781711,0.829806754543826,0.49733128661901127,0.17138353302514914,0.6753926701570663,1
0.5198955009883586,0.732783978399813,0.8501624755331801,0.5953110210085619,0.1666563486658827,0.675392670157061,1
0.5433537130632594,0.7301928602483336,0.8519917630271578,0.6596798851894715,0.17256532911496508,0.675392670157061,1
0.5435156497837541,0.7239867183248019,0.8297747788300625,0.6225908057209432,0.17020173693533208,0.6806282722513011,1
0.5777244537832735,0.7012540387856621,0.8454187675606639,0.5915107534307333,0.17256532911496492,0.6806282722513046,1
0.6334047250867054,0.651199803522837,0.7637679441118153,0.60069397337247,0.1702017369353323,0.68062827225131,1
0.7764975242977656,0.5215511666795825,0.8257997304961522,0.5732991886315517,0.17020173693533247,0.68062827225131,1
0.6793701419521307,0.44972030775454563,0.859204387612546,0.5668022644073621,0.17138353302514836,0.6806282722513028,1
0.6136863212225274,0.4122508880342555,0.8484712150919003,0.6290472236014094,0.17256532911496497,0.6806282722513082,1
0.5936584559947563,0.39856267778634347,0.8956650547516989,0.5864162586100718,0.17256532911496525,0.6806282722513064,1
0.5850717323536465,0.41775825720267856,0.8822028000285719,0.5620497772607661,0.17256532911496597,0.6806282722513135,1
0.6552669949257968,0.41223181653973545,0.8618713159970057,0.651138186797491,0.17374804920485099,0.6858638743455376,1
0.6460236727478743,0.4187878266215835,0.8449237231740617,0.5834051054578868,0.1725653291149653,0.6858638743455501,1
0.6556763572155055,0.41596235991336783,0.854458438578906,0.5043920056554982,0.17492984529466787,0.6858638743455376,1
0.6452311611776662,0.41596868622075184,0.8449696959238922,0.6514353723517802,0.1737480492048521,0.6858638743455536,1
0.6564655065840721,0.4194643882794199,0.8502901619174874,0.6122977002565354,0.1749298452946682,0.68062827225131,1
0.6497254278399665,0.4163494397763715,0.8446082434416688,0.6042958277644914,0.16783814475569986,0.6806282722513082,1
0.6562579017473502,0.4159159732432669,0.8499903673236644,0.62388114761634,0.1737480492048516,0.6806282722513135,1
0.6499539953699021,0.4188055711755846,0.844954856329095,0.5908722168745282,0.17256532911496508,0.6806282722513064,1
0.6534389427596521,0.41792119658969457,0.849640691455747,0.5750829507787899,0.17374804920485148,0.6753926701570645,1
0.6474789269617938,0.41685813350707057,0.847174830995763,0.640217307762065,0.17374804920485226,0.6753926701570645,1
0.6533023385008275,0.4158523370457001,0.8500048376980535,0.5893871187428458,0.17374804920485198,0.675392670157061,1
0.6548427390721396,0.41718424751570804,0.8463060645632022,0.5751815817868087,0.17374804920485182,0.6753926701570663,1
0.6596608416853553,0.4162103902262505,0.8488690348853593,0.6284196386360025,0.17374804920485176,0.6806282722513046,1
0.6561174076212066,0.41610773537829177,0.8447333309524367,0.6093793516674205,0.17374804920485198,0.6806282722513135,1
0.6595234761819526,0.415585586965398,0.8490749754341117,0.572353493719141,0.1749298452946686,0.6806282722513117,1
0.6562290523028044,0.41612502940185825,0.845810596107835,0.6186219448445442,0.17374804920485148,0.6806282722513082,1
0.6594127472421543,0.41559803976942666,0.8488843388643084,0.6108044335125273,0.17256532911496514,0.6753926701570574,1
0.6563421231152369,0.416110431411328,0.8459563226281587,0.5811624731596494,0.17374804920485282,0.6753926701570787,1
0.6592945052099157,0.41561022981430534,0.848756143746729,0.5916408729882526,0.17256532911496542,0.6753926701570858,1
0.6564719134576835,0.41610161065688606,0.8460734719517765,0.6310988182906334,0.17374804920485132,0.6753926701570538,1
0.6591367320933147,0.415615386427644,0.8486473751902528,0.5957835335636126,0.17138353302514836,0.6806282722513064,1
0.6567135529787713,0.41610047694452634,0.8461753851214904,0.582785643270873,0.17492984529466793,0.68062827225131,1
0.6583722779601675,0.41561169805921844,0.8485512443465528,0.6123779749213469,0.17256532911496497,0.6806282722513046,1
0.6556314253669666,0.41611077114773853,0.846266591324107,0.5997168477394982,0.17256532911496514,0.6806282722513082,1
0.6594577619744171,0.4155906535096445,0.8484642143792986,0.562464874508421,0.17492984529466848,0.6753926701570627,1
0.6563858172052854,0.41615378711476003,0.8463501488583427,0.6087377563924864,0.17492984529466865,0.675392670157068,1
0.6592328625176684,0.41548230319319485,0.8483834127058167,0.610511648114453,0.1725653291149653,0.675392670157061,1
0.656520245614586,0.4169546393637481,0.8464289967332579,0.5654320453350934,0.1702017369353323,0.6753926701570716,1
0.6591328587597225,0.41594992128475416,0.8483055118549298,0.5883497998030255,0.17256532911496447,0.6753926701570556,1
0.6566025800102017,0.4160242280165632,0.8465073951485471,0.6245767425317025,0.17020173693533175,0.675392670157061,1
0.6590612711657319,0.41726749687313713,0.8482242039299659,0.5787259320299204,0.17138353302514914,0.675392670157068,1
0.6566668646427967,0.41646388563159786,0.8465964196044903,0.5724914330667467,0.17138353302514875,0.6753926701570663,1
0.6590023478851064,0.41558141161168444,0.8481153434873037,0.6199734371437581,0.17138353302514836,0.6701570680628173,1
0.6567216264728297,0.4160900092452432,0.8457140777567447,0.6034464454422384,0.17138353302514797,0.6701570680628155,1
0.6589509517991818,0.4156375912556319,0.8472140142721272,0.5616728919560513,0.17138353302514897,0.6701570680628315,1
0.6567702144094294,0.4160740369168836,0.8463175848878851,0.6044409325251008,0.17256532911496514,0.6701570680628244,1
0.658904764196774,0.41564203560294183,0.8482484282408329,0.6247199581086639,0.17020173693533241,0.6753926701570574,1
0.6568143095148344,0.4160736389648932,0.8465999542230196,0.5780836356208144,0.17138353302514886,0.6753926701570645,1
0.658862524512751,0.4156415599140312,0.8481252300624762,0.5857801309196687,0.16192824030654618,0.6753926701570556,1
0.6568548774922647,0.4160725540400245,0.8466861878603122,0.6238275716347583,0.1702017369353317,0.6753926701570574,1
0.6588234878432206,0.4156479083280453,0.8480541373895782,0.5856997529880035,0.16901994084551542,0.6753926701570627,1
0.6568924848737914,0.416051265009282,0.8467493606710531,0.5782053155822068,0.1690199408455158,0.6753926701570663,1
0.6587872453096081,0.41573137816877354,0.8469390334672879,0.6117978195060226,0.17020173693533153,0.6753926701570592,1
0.6569273861445507,0.4171047696991219,0.8468045078121735,0.5811770958387874,0.16783814475569964,0.6753926701570627,1
0.6587537107214064,0.4154684616442501,0.8479430290730566,0.5802874073824723,0.1702017369353312,0.6806282722513064,1
0.6569594646749746,0.4162045808663993,0.8468551729487277,0.6205139128855257,0.1678381447556987,0.6806282722512975,1
0.6587232670784957,0.4165195266526848,0.8478944779563857,0.5763251372177548,0.16901994084551608,0.6806282722513153,1
0.6569879620160497,0.41619591291004454,0.8469010352893755,0.5847653821215394,0.16901994084551492,0.6806282722513064,1
0.6586972345189412,0.41551461486366403,0.8478528027590593,0.6290590208488621,0.16783814475569941,0.6753926701570716,1
0.6570106704964722,0.41620823535896,0.8469350417571821,0.5801876286236413,0.1678381447556982,0.6753926701570521,1
0.6586793040641274,0.4154977107318673,0.8478350120153848,0.5869834450854938,0.1678381447556983,0.6753926701570556,1
0.6570212558733526,0.41622868185822537,0.8469118568483811,0.6318648124383786,0.16783814475569897,0.675392670157061,1
0.6586809122403813,0.4154741690318016,0.8480015088416301,0.5813362578003509,0.16665634866588253,0.6701570680628244,1
0.6569973067658028,0.4162551681844466,0.8437851689263889,0.5789239558855366,0.165473628575996,0.6701570680628244,1
0.6587522003725148,0.41544471241308767,0.8401278600572213,0.6273014359722964,0.16665634866588247,0.6701570680628208,1
0.6567960022091182,0.4162877457064162,0.8416879476214816,0.6041794131216915,0.16665634866588258,0.6701570680628333,1
0.6596774501598995,0.41540875741733074,0.8419926935932378,0.5687733624907397,0.1654736285759959,0.6753926701570627,1
0.6594148727084503,0.41632744034896074,0.8429799412045205,0.6145444904516592,0.1654736285759953,0.6753926701570592,1
0.6577887162489173,0.4153648414096515,0.8449857486876167,0.6155370972092417,0.1654736285759959,0.6753926701570752,1
0.6577526340509365,0.41737584417186585,0.8465909576273027,0.5728539289133543,0.16547362857599535,0.6753926701570574,1
0.6579014723899754,0.41531039307090317,0.8451422923197034,0.5911102318899373,0.16311003639636323,0.6701570680628244,1
0.6587482081372505,0.4164374478191604,0.8413269960693064,0.61958743746397,0.16665634866588291,0.6701570680628262,1
0.658592036485969,0.41524082548236485,0.8457370616821642,0.5764142690528951,0.16429183248617907,0.6701570680628244,1
0.6573078183888913,0.4165175683080794,0.845189398524899,0.5790279662396279,0.16429183248617912,0.6701570680628297,1
0.65850976911426,0.41614635167172376,0.8444073815883897,0.6261666888179561,0.1642918324861789,0.6623036649214669,1
0.6589143056406817,0.416631478521057,0.841555483711178,0.5937169286350038,0.16665634866588247,0.6623036649214615,1
0.6576491151444029,0.41500180483218935,0.8424437041097055,0.56558379863373,0.15838192803702617,0.662303664921458,1
0.6580908306176536,0.4168337779260765,0.8410165216351522,0.6179245981701436,0.16429183248617857,0.6623036649214598,1
0.6573937866522586,0.4146535602425412,0.8440473379334341,0.6179279241325649,0.1654736285759955,0.6701570680628137,1
0.6591068387235897,0.41811591822061106,0.8429443458439716,0.5693105187373876,0.1642918324861795,0.670157068062835,1
0.6596115432955694,0.4160605805014434,0.8407493975499516,0.5875922215658871,0.15838192803702617,0.670157068062819,1
0.6583481278981181,0.4164355140241566,0.8396345154408359,0.6275110912116323,0.161928240306546,0.6701570680628262,1
0.6609790354624322,0.41509737544274417,0.8411442514024171,0.5899822601418288,0.163110036396363,0.6701570680628297,1
0.665399341017079,0.4178957522224399,0.8397902791297192,0.5695774908075227,0.15956464812691307,0.670157068062819,1
0.6671434791885733,0.41313504828615233,0.8383387620969553,0.6137707668733129,0.16311003639636285,0.670157068062819,1
0.6609363288313812,0.4103780449547784,0.8399496161375137,0.6159478771601173,0.16192824030654646,0.6701570680628208,1
0.6586281507115191,0.4003494667801277,0.8408238673286986,0.5758101446418652,0.16192824030654562,0.6623036649214544,1
0.6572776115552578,0.40280947950986623,0.8473406003445958,0.5924852530332327,0.16311003639636273,0.6623036649214615,1
0.6354730688424511,0.40219833065763255,0.8602229938015624,0.6177724131791306,0.16192824030654562,0.6623036649214633,1
0.5961204956169234,0.4003791445437596,0.8756727915188185,0.5924316564344535,0.1631100363963635,0.6623036649214722,1
0.5622483288095683,0.41735598148913156,0.9034920047630686,0.5924928470177756,0.16311003639636246,0.6701570680628208,1
0.5094169601281875,0.44503203287293397,0.9594872610503845,0.6247044823092619,0.16311003639636285,0.6701570680628208,1
0.5191500260362147,0.5418032706623144,0.9328756928616374,0.5838052566964405,0.16311003639636212,0.6701570680628279,1
0.6411614979085882,0.6605367747794066,0.7420630164853903,0.5710771927730959,0.16192824030654623,0.6701570680628208,1
0.6631275512358992,0.7466514705606393,0.7258420557634871,0.604729965684644,0.16074644421672968,0.6701570680628279,1
0.589630225780216,0.6744641100392934,0.8271598568802343,0.5993538935068552,0.15601833585739383,0.6701570680628297,1
0.6491329884991401,0.6898602364075743,0.8371995522471967,0.6092485834899509,0.15720013194721028,0.670157068062835,1
0.685540948851682,0.6808309999822395,0.7803839652830034,0.715132608861841,0.15601833585739378,0.6701570680628279,1
0.6838068255117309,0.68668324019341,0.7785077859730667,0.49050009994423593,0.15601833585739333,0.6701570680628262,1
0.7037871645486571,0.6773451516525585,0.7537528426819153,0.5346334713487211,0.15601833585739333,0.6701570680628279,1
0.728749423247403,0.6898316479577409,0.7349143881184449,0.6024402277569775,0.1560183358573936,0.6701570680628315,1
0.7169986618507969,0.6906062980477624,0.7393623006636023,0.4787653655485463,0.15720013194720978,0.670157068062819,1
0.7242997122179331,0.6954292114580759,0.7411743144523972,0.6289318298436064,0.1572001319472105,0.6701570680628315,1
0.7210209277023447,0.6934653996167112,0.7362943138569635,0.661015118087023,0.15720013194721005,0.6701570680628315,1
0.7231053612503793,0.692826799246772,0.7391118486256787,0.5979868932610418,0.15720013194720978,0.6701570680628208,1
0.7188268339659836,0.6902869758911361,0.7405553469131667,0.5819213892399153,0.15720013194721005,0.6701570680628262,1
0.7232085457693831,0.6930883053316073,0.7412088578654994,0.6218171218855689,0.15720013194721005,0.6623036649214651,1
0.7206529633878005,0.6952421487685383,0.7379065608176016,0.5780013805326563,0.1583819280370264,0.662303664921474,1
0.7204572198193864,0.6926120614409561,0.7403332630124912,0.5990457176015924,0.15720013194720972,0.6623036649214544,1
0.7185685477581776,0.6920217387478587,0.7374376521493766,0.6234734163740552,0.1548365397675766,0.6623036649214544,1
0.722509996885391,0.6961106714608656,0.7385805123077487,0.5789202181905542,0.15601833585739328,0.6701570680628262,1
0.7224729606064053,0.6941147773478542,0.7365444633227451,0.5963327587616853,0.15720013194721055,0.6701570680628262,1
0.723692259704029,0.696700619937155,0.7383566102941709,0.6267687859116965,0.1572001319472096,0.6701570680628297,1
0.7218986617452334,0.6946504438999737,0.736665691903715,0.5785150133827053,0.15601833585739305,0.6701570680628208,1
0.7222934889889032,0.6928224979175343,0.7382787992275053,0.5891646847386602,0.15365474367776094,0.6623036649214615,1
0.7231032578560219,0.6926505250715499,0.7367098423624927,0.6229645173294448,0.1572001319472095,0.6623036649214633,1
0.7217355827062382,0.6914440930337581,0.7400159401710931,0.5899816896214428,0.15365474367776033,0.6623036649214544,1
0.7210040876559383,0.6881891453291171,0.7405101604979039,0.5760792653900296,0.15720013194720966,0.6623036649214615,1
0.7235929324878343,0.6879502336851052,0.7428626455159297,0.618598433643162,0.15601833585739322,0.6623036649214544,1
0.7202574886003275,0.6875341241495336,0.7439918460996827,0.601898979458421,0.15720013194720983,0.6623036649214615,1
0.7172105069780446,0.6879354467134293,0.7457566063887722,0.5715595247380946,0.15720013194721044,0.6623036649214633,1
0.7165243135455264,0.6877484324277681,0.7439588457255174,0.5999244725525334,0.15483653976757666,0.6623036649214562,1
0.7187503300187226,0.690395792194232,0.7444566004622171,0.6149920974196378,0.15483653976757777,0.6701570680628262,1
0.7172801747998878,0.6915074900321594,0.7388302336889502,0.5824403771186631,0.15247294758794405,0.6701570680628262,1
0.723413819028621,0.6934651657946801,0.7408237409319582,0.5956329925261092,0.15365474367776089,0.670157068062835,1
0.7207923316805376,0.6949205643255758,0.7382355163457635,0.6111262729795301,0.14538032304890436,0.6701570680628262,1
0.7242561884472047,0.6936876743625093,0.7378995984110943,0.5782807020069866,0.15365474367776066,0.6623036649214615,1
0.7219981374795783,0.6946120724388711,0.7370614461328586,0.5907313551687274,0.1536547436777606,0.6623036649214651,1
0.7237129599250745,0.6964127049054233,0.7379194573770984,0.6058740373199761,0.15365474367776016,0.6623036649214615,1
0.7226956830847251,0.6953814372696856,0.737017550838373,0.5645760868065345,0.15247294758794355,0.6623036649214669,1
0.7213271209555217,0.6951303314517839,0.7384816698612293,0.5936122235031464,0.15129022749805676,0.6623036649214544,1
0.7180331181778519,0.6932211280777113,0.7350827318375484,0.6146072003493225,0.15483653976757766,0.6623036649214669,1
0.7150040172588044,0.6961177855173692,0.7442269917081925,0.5662319710707254,0.14774483922860782,0.6623036649214669,1
0.7102952066046397,0.6938674369761727,0.7454388292261559,0.6092547806190969,0.153654743677761,0.6623036649214615,1
0.7136840707302619,0.6957595271683188,0.7470960751423479,0.6220576328982774,0.15247294758794439,0.6596858638743477,1
0.7107201533083894,0.6943546406211429,0.7469444431079474,0.6093381425999641,0.15247294758794383,0.6596858638743459,1
0.7134460293047644,0.6949294030611821,0.74613589915534,0.5989027920867412,0.1489266353184246,0.6596858638743477,1
0.7108834619216131,0.6915730726149596,0.7458486256304762,0.5914782617333829,0.15129022749805698,0.6596858638743441,1
0.7133185976360998,0.6888709475913071,0.7487138682219727,0.5736144511942958,0.15010843140824082,0.6623036649214633,1
0.710995164960881,0.6869966433229793,0.7520418949453032,0.5848928756857396,0.1512902274980571,0.6623036649214615,1
0.713205560368148,0.6884545696969321,0.7494812721694468,0.6329518099003053,0.15129022749805676,0.6623036649214633,1
0.7111397291788759,0.687142812508799,0.7490242682059306,0.5880686391050274,0.15129022749805693,0.6623036649214615,1
0.7128783796051175,0.6900445543180207,0.7479544857670862,0.5841511024656048,0.15129022749805748,0.6596858638743495,1
0.706497570156064,0.6912776829544296,0.7509030879246881,0.6157225269687632,0.15247294758794416,0.6596858638743441,1
0.7073305493702322,0.6946491207179925,0.7548394868770181,0.6073658854578206,0.15129022749805693,0.6596858638743424,1
0.7073859329444521,0.6958079989120479,0.7521541885628823,0.5738529874726185,0.1512902274980571,0.659685863874337,1
0.7089719850320427,0.6950341551632169,0.752304815276319,0.6133790598156774,0.15010843140824082,0.6623036649214615,1
0.7023320437806451,0.6952657100592895,0.7524528597298101,0.6026473567864215,0.15010843140824082,0.6623036649214704,1
0.7095335949588587,0.6962842730287827,0.7524063794810724,0.5712395437319113,0.15010843140824015,0.662303664921458,1
0.7081178488370362,0.6945123745762535,0.7496929570295636,0.6099896694796895,0.14892663531842376,0.6623036649214544,1
0.708606266234596,0.6957979911607102,0.7517464769724835,0.5993983004782931,0.15010843140824082,0.6623036649214633,1
0.7021708371923121,0.6955433975463539,0.7539259700768941,0.5608390681683144,0.14774483922860737,0.6623036649214562,1
0.7055913636290019,0.6960134110252373,0.7542132278025528,0.6179231286051531,0.14892663531842387,0.6623036649214562,1
0.6999903747738048,0.6954759112536305,0.7533732380276158,0.6052106877662707,0.14892663531842398,0.6623036649214615,1
0.7057982426157738,0.6960674426415673,0.7545848247184141,0.5656778335074293,0.14892663531842448,0.6596858638743424,1
0.7032275763274448,0.6950518711957778,0.7556045138754516,0.615213470403704,0.15010843140824026,0.6596858638743424,1
0.6994768421053762,0.6940311632492164,0.7635509444972577,0.6177494147457107,0.14774483922860787,0.6596858638743406,1
0.6920803781140796,0.6886549264871958,0.7631147305809223,0.5615650114200166,0.14774483922860787,0.6596858638743459,1
0.6929409661261154,0.6891482456514026,0.767469496196185,0.601702283015987,0.14538032304890464,0.6544502617801005,1
0.686569676364396,0.688116460211927,0.7706901955851604,0.6255865652412098,0.1489266353184242,0.6544502617801022,1
0.685783869924434,0.6879951875777062,0.7715308573477992,0.587541624328703,0.13592503033030257,0.6544502617801076,1
0.6814000190477928,0.6879513731497691,0.7716113796365914,0.5757524960280679,0.14774483922860793,0.6544502617801058,1
0.6796770326294548,0.6901300297659416,0.7735698561852431,0.6283109692425184,0.14656304313879115,0.6544502617800969,1
0.6876173876225633,0.6888430502934638,0.7703688774208796,0.5929744189120097,0.1465630431387912,0.6544502617800934,1
0.691361902466354,0.6893006925075277,0.7696795184853064,0.5740700055754623,0.1477448392286076,0.6544502617801022,1
0.6900762502880031,0.6918681006025158,0.7674717833322073,0.6169680171826382,0.14656304313879098,0.6544502617800969,1
0.6923848131542201,0.6908090142466214,0.7701269270314645,0.599667257588443,0.14892663531842476,0.6596858638743424,1
0.6892690193389013,0.6914880457650471,0.7682125664485684,0.5616178655227319,0.14774483922860876,0.6596858638743566,1
0.6914054884905327,0.6923639492061324,0.7688071121897835,0.6142280202240452,0.14774483922860748,0.6596858638743459,1
0.6895243574545173,0.693986759081148,0.7671050908589232,0.6048474977178894,0.14656304313879098,0.6596858638743424,1
0.6912071961078443,0.691555833582306,0.7676119383808891,0.5659781754602136,0.14892663531842493,0.6596858638743495,1
0.6898888493080855,0.6913841843370869,0.766749093593952,0.6053635963960854,0.14656304313879065,0.6596858638743335,1
0.692552965455391,0.6963440013449543,0.7669552514075119,0.6220117497535104,0.14656304313879126,0.6596858638743406,1
0.6892770922349973,0.6918874987041468,0.7659929861766248,0.5657106403128697,0.14774483922860815,0.6596858638743477,1
0.6914359187588832,0.6903469232037085,0.7641159187457274,0.5981844147082233,0.14656304313879115,0.6596858638743299,1
0.6908038415029953,0.6907601206261135,0.7646360159914732,0.6257990323878077,0.14892663531842437,0.6596858638743495,1
0.6913772489471482,0.6881276474534548,0.7695493418517998,0.5776889654183525,0.14774483922860804,0.659685863874353,1
0.6894013275567201,0.6874659352828486,0.7667246788830533,0.586805603605285,0.14774483922860737,0.659685863874337,1
0.6919445277449153,0.688058247516355,0.7698115733901536,0.6290507944439018,0.1465630431387917,0.6544502617801005,1
0.690696649365774,0.6874426477564085,0.7665350867722291,0.5881929582479645,0.14538032304890458,0.6544502617801111,1
0.6906118767222342,0.6881360086290766,0.7664618579542439,0.5799899110284591,0.14419852695908786,0.6544502617801076,1
0.690253157811992,0.6909398895225346,0.7663542968586221,0.6202057685655686,0.14538032304890447,0.6544502617800987,1
0.6903994474440788,0.6927260911939824,0.767764179840003,0.5980896257834102,0.14419852695908802,0.6492146596858639,1
0.6908645704138736,0.6925878857076562,0.7694700065711236,0.5779671558742671,0.1453803230489042,0.6492146596858639,1
0.6875819294778438,0.6936167075273507,0.7720361090144892,0.6182107016626949,0.14538032304890508,0.6492146596858603,1
0.6860093021848265,0.6947368861609169,0.7697647593946466,0.5854237653995622,0.14538032304890447,0.6492146596858515,1
0.6796235581697307,0.6943146029239219,0.7791492984141379,0.5813757723811671,0.14419852695908786,0.6492146596858568,1
0.6645151002955803,0.6930749754155137,0.7884163710339415,0.6226219154364894,0.1465630431387917,0.6492146596858746,1
0.6713718668196685,0.6929099970181842,0.7864673281502511,0.5850659051826278,0.14538032304890447,0.6492146596858603,1
0.6665149727741011,0.6903982484548696,0.786058948658707,0.5820066199608679,0.14538032304890486,0.6492146596858639,1
0.6706765362152491,0.6927133253430111,0.7835086413751713,0.6293932895929085,0.14419852695908802,0.6492146596858639,1
0.6668262520988787,0.6932874008961574,0.782470707352674,0.5753299250865818,0.14301673086927147,0.6492146596858568,1
0.6744947749356518,0.6916088593871614,0.7809582247366773,0.5736927945606927,0.14419852695908808,0.6492146596858657,1
0.6691958223634924,0.6904195552525767,0.7854471755927307,0.6304717941514083,0.14183493477945514,0.6492146596858621,1
0.6591817692077424,0.6881218309296626,0.7967150928783671,0.5888325232160565,0.14538032304890453,0.6544502617801005,1
0.6567465948302225,0.6876214578899174,0.7963299659540536,0.5642310983431862,0.1430167308692718,0.6544502617801076,1
0.6587601142147145,0.6878983867032081,0.7971531067240738,0.6263380848932814,0.14419852695908802,0.6544502617801005,1
0.6596529058713454,0.687595575248515,0.7954867186200787,0.6182217408793529,0.1441985269590877,0.6544502617800969,1
0.662698616898056,0.6879639789990075,0.7967173961216537,0.5754321738458442,0.14301673086927102,0.6492146596858515,1
0.6589467054689617,0.6874501358968815,0.7949850436211048,0.5888673988518278,0.14419852695908753,0.649214659685855,1
0.6614945563511112,0.6887309974754793,0.7934323150991072,0.6250306611209262,0.14183493477945497,0.6492146596858568,1
0.6578731200027336,0.6895516652047103,0.7954585323336664,0.5895017515977387,0.1430167308692713,0.6492146596858515,1
0.6606486949695997,0.6891691079740236,0.7962495446112903,0.572832194890695,0.1394713425998222,0.6492146596858586,1
0.6587987422882668,0.6881344579445955,0.794853590709159,0.6083885997008196,0.14419852695908753,0.6492146596858461,1
0.6620274318165331,0.68991185364333,0.7932828209869758,0.6119942573949417,0.14183493477945458,0.6492146596858568,1
0.6570316585924987,0.6908357879675213,0.7939460823301303,0.5624098461063713,0.14183493477945452,0.6492146596858479,1
0.6602350787266177,0.6922573550856223,0.794032908834154,0.5962326076019802,0.1418349347794548,0.6492146596858603,1
0.6590217748294367,0.6925073029390127,0.7944390109105741,0.6218382733037187,0.14065313868963863,0.6492146596858603,1
0.6589800235516431,0.6920829886241527,0.7952743695443953,0.5742043301957993,0.14065313868963875,0.6492146596858603,1
0.6570478659909884,0.6888044881394093,0.7967352788817217,0.576546864031848,0.1406531386896379,0.6492146596858461,1
0.6615173408687238,0.6895934753636606,0.7927197590198555,0.6267401111055133,0.14301673086927158,0.649214659685855,1
0.6564116667778321,0.687594269564149,0.7968721178715812,0.5840071326496719,0.14065313868963802,0.6492146596858568,1
0.6615508316842542,0.6879849122419783,0.7962686028701454,0.5750588827981898,0.14065313868963825,0.649214659685855,1
0.6635399000188842,0.6875381505876474,0.7971028779058429,0.6204891880817083,0.13828862250993557,0.6492146596858586,1
0.6659011787339171,0.6879688150053401,0.7961975188786412,0.5983969334144843,0.14065313868963858,0.6492146596858639,1
0.6649657031057163,0.6875590796325127,0.7971606444505239,0.5722622601181783,0.1394713425998217,0.6492146596858603,1
0.6688378951333322,0.6879478089020177,0.7961230080279526,0.6208139931443064,0.1394713425998219,0.6492146596858657,1
0.6623671209089572,0.6875808003775304,0.7972848328677957,0.6010934835481183,0.14065313868963836,0.6492146596858568,1
0.6654014050367052,0.6879235858758409,0.7957989771002115,0.5813502881436418,0.1406531386896389,0.6439790575916255,1
0.6615376864351358,0.6876104153814643,0.7936114246111318,0.6122485910850044,0.1394713425998217,0.6439790575916202,1
0.6638285363509704,0.6878831238717737,0.7945590268629255,0.5964136172119171,0.1394713425998218,0.6439790575916167,1
0.6621738551506633,0.6876750625564507,0.7922733918230644,0.5798968257578364,0.1394713425998223,0.6439790575916238,1
0.6639110565992978,0.6877445188274299,0.7926238500065945,0.6191637833529816,0.13828862250993523,0.6439790575916184,1
0.6573692087975358,0.6888560229468579,0.7948628648124596,0.5790454521797402,0.1394713425998224,0.6439790575916273,1
0.6617940300718714,0.6905444441893511,0.7921501516476332,0.5901799652939661,0.13947134259982158,0.6439790575916167,1
0.6582371973564671,0.6915209299206689,0.7942135726399595,0.6149014680431119,0.13828862250993512,0.6439790575916327,1
0.6603742631678395,0.6893915991423334,0.7916109350695277,0.5735362530580779,0.1394713425998222,0.6387434554973819,1
0.6570678152777933,0.6894026840655606,0.7915087058072074,0.5909713521750288,0.14183493477945458,0.6387434554973694,1
0.6597086445191792,0.6911659287570222,0.7941333450968153,0.6280569471583637,0.1406531386896382,0.6387434554973712,1
0.6590244494015347,0.6912344177022195,0.7924407634409777,0.5692218021633813,0.13947134259982186,0.6387434554973748,1
0.6586825993601431,0.6920506951132736,0.7929009755958628,0.5851370023260154,0.1382886225099365,0.6439790575916291,1
0.6575341816727784,0.6928697601956135,0.7934092730473459,0.626206642173499,0.1418349347794548,0.6439790575916202,1
0.6610865830269225,0.6926752052349153,0.794350972481721,0.6160716826839782,0.1406531386896394,0.6439790575916362,1
0.6584654345790857,0.69172836298625,0.7951107941933853,0.5737214379265348,0.14065313868963825,0.6439790575916202,1
0.6620148582874573,0.6935101978059959,0.7919978338042368,0.5593701656194822,0.13947134259982202,0.6387434554973854,1
0.6572192208705845,0.688313773256318,0.7928946857599539,0.6233966808839114,0.13710682642011862,0.6387434554973783,1
0.6634623847068786,0.6898122529974358,0.7923383441314185,0.6213369446857556,0.13947134259982186,0.6387434554973677,1
0.6577840029736939,0.6878452172721811,0.7959505594316989,0.5829526043338638,0.13710682642011862,0.6387434554973765,1
0.6616204055485586,0.689662887437133,0.7958786344355829,0.5680927254991418,0.13947134259982252,0.6439790575916255,1
0.656359435914718,0.686834718496982,0.7947720369951108,0.6208204435199022,0.1347432342404858,0.6439790575916309,1
0.6645639354708371,0.689617062529383,0.7925631558431792,0.6169116540527647,0.13356143815066884,0.6439790575916096,1
0.658235819875155,0.6911118101520493,0.7928947809233631,0.5837125312751299,0.1382886225099345,0.6439790575916078,1
0.6606507825405117,0.6898620794693564,0.7919407063372051,0.5740364439546046,0.13828862250993573,0.6439790575916238,1
0.6606751941971066,0.6920829492103602,0.7921109185046868,0.6181445149636806,0.14065313868963814,0.6439790575916131,1
0.6604257061901193,0.6937968654388108,0.789898183409194,0.6063428049856251,0.1382886225099349,0.6439790575916149,1
0.6581583276364998,0.6947693094886248,0.7904289615314675,0.5761815534124294,0.1394713425998224,0.6439790575916131,1
0.6608231342178404,0.6963013098279334,0.7892263479060588,0.5894811148881971,0.1300151258811495,0.6439790575916255,1
0.6599094406729983,0.695312029227708,0.791108530271617,0.6212788209238437,0.13947134259982163,0.6439790575916167,1
0.6608347247678685,0.6961495145004974,0.7909070504612055,0.5776892633535486,0.13828862250993473,0.6439790575916096,1
0.6659104212465856,0.6953939916514446,0.7859431032925721,0.5717853088856071,0.13828862250993518,0.6439790575916096,1
0.6865077551156205,0.6960938333409186,0.7711444240185598,0.6175742237895014,0.13828862250993573,0.6387434554973783,1
0.6838285078933883,0.6954413927126146,0.7716296927580776,0.599095018751763,0.1382886225099353,0.6387434554973836,1
0.6844070978418881,0.6959780430279918,0.7736647153075035,0.5595433305859345,0.13710682642011846,0.6387434554973748,1
0.691689810698297,0.6919483098896309,0.7563740451483005,0.5986953833513695,0.13710682642011895,0.6387434554973819,1
0.7461333463707416,0.6953299718167859,0.7424128365731244,0.6054127229343865,0.13828862250993545,0.6387434554973854,1
0.7141533643973428,0.6879320408726071,0.7581496459710797,0.5873981158033924,0.1371068264201184,0.6387434554973694,1
0.7375489610176573,0.6985433122906045,0.6144817459915063,0.6602633342170207,0.13710682642011823,0.6387434554973783,1
0.8318043657189893,0.6913160916433114,0.4509578694885255,0.7742009625444205,0.13356143815066956,0.6387434554973748,1
0.8534182878969208,0.6269454526729072,0.21533433309895683,0.48600571620439725,0.1300151258811496,0.6387434554973748,1
0.9075013922169055,0.6566994634168238,0.4897993160328535,0.48429438552724485,0.13237964206085218,0.6387434554973677,1
0.6760897743083192,0.6993825486195163,0.7548165621744128,0.5818472699883462,0.12528701752181332,0.6387434554973765,1
0.5332877277238031,0.7147274610031281,0.7957257604926795,0.6341557406389319,0.13119692197096666,0.6387434554973712,1
0.6083648642940728,0.7538977579165436,0.814085755420573,0.6509454107123099,0.1347432342404855,0.6387434554973801,1
0.5932102970597193,0.7465836097713404,0.8047487540647356,0.4471082688057064,0.12883332979133272,0.6387434554973854,1
0.6069787706500451,0.7415095559577448,0.8076902893019551,0.45520077319366337,0.1276515337015166,0.6387434554973801,1
0.5910000513316995,0.7396104868069098,0.8086176543305941,0.774875189786354,0.13592503033030218,0.6387434554973801,1
0.5716199830555979,0.7391707032972563,0.8212948304423888,0.6765873428507282,0.13592503033030234,0.6439790575916273,1
0.5849540183602486,0.7382401640848619,0.8050245671203089,0.4806315563375675,0.13356143815066934,0.6439790575916167,1
0.616212745687007,0.7425742068842593,0.7860926787544499,0.592789454197531,0.13356143815066834,0.6439790575916113,1
0.6237547826149481,0.7420965292899673,0.7862652695153594,0.6098560705545039,0.1359250303303019,0.6439790575916149,1
0.5844280174312109,0.7269628382181884,0.8260296301205627,0.6008639865118899,0.13592503033030268,0.6387434554973872,1
0.5932155415408913,0.7273766151099625,0.8119105316997972,0.6512138791420717,0.13710682642011846,0.6387434554973712,1
0.5979304530104133,0.7271970828089924,0.8165476278294466,0.587902411034129,0.13474323424048607,0.6387434554973872,1
0.6047750639496077,0.7208971594533422,0.8122374875671267,0.5941582075568214,0.13592503033030245,0.6387434554973765,1
0.6056146214646771,0.719874193362539,0.8171733862773948,0.6343471997213881,0.1347432342404855,0.6387434554973801,1
0.6068525652306898,0.7231600746506321,0.8100074026527976,0.5777065392145331,0.13592503033030157,0.6387434554973801,1
0.6248781576950508,0.722925523656827,0.8044025236053753,0.5619603731019495,0.13710682642011846,0.6387434554973748,1
0.6289410550683627,0.7212697044039471,0.7904938056584764,0.6542397130319881,0.1347432342404855,0.6387434554973712,1
0.6475624160490596,0.7178173059806042,0.7878214241413874,0.6353826102151428,0.13237964206085256,0.6439790575916149,1
0.6375860471970294,0.7093478765342949,0.7928184178317698,0.6298676982399815,0.13001512588115,0.6439790575916238,1
0.6240305412247726,0.7107973858800654,0.8142513135500805,0.5601792955708756,0.13237964206085273,0.6439790575916167,1
0.5977252760772724,0.7096041260335628,0.8195969918254586,0.5054455624452492,0.13237964206085295,0.6439790575916202,1
0.5864219384173914,0.701090725045376,0.8358672273380531,0.5792095064903862,0.1347432342404855,0.6387434554973801,1
0.5776454279839257,0.6889393930821941,0.849396217054059,0.6400499250225722,0.13237964206085195,0.6387434554973694,1
0.5796315735776183,0.6825861005557443,0.8548226363801608,0.6476102013353069,0.1335614381506685,0.6387434554973677,1
0.5908586159019344,0.6790331719876994,0.8431494309659096,0.6096953766467331,0.13356143815066884,0.6387434554973712,1
0.6144255165529053,0.6797826084674902,0.8391152884718012,0.6378459188772208,0.13119692197096677,0.6387434554973854,1
0.601195528189439,0.6817665194897932,0.8377803116320837,0.6032688676826514,0.13592503033030268,0.6387434554973712,1
0.605442785252229,0.680939093196214,0.8435355301665233,0.5505885253649851,0.12646973761170016,0.6387434554973872,1
0.6097590543121754,0.6763829762181248,0.8371327200980387,0.5426886910962211,0.13356143815066945,0.6387434554973801,1
0.6118892211136042,0.673460799591975,0.8428593330344798,0.5131323934889207,0.13237964206085256,0.6335078534031364,1
0.5953419998085583,0.6699873862827703,0.8470454065497783,0.5809589122543709,0.13474323424048545,0.6335078534031382,1
0.5948287833900536,0.6724884740575234,0.851074395017499,0.6119505918423154,0.13356143815066884,0.6335078534031346,1
0.5963457351049148,0.671537434285086,0.8391312370849535,0.6230265892173561,0.13237964206085234,0.6335078534031382,1
0.613365687165561,0.678982237461971,0.8341134031928996,0.6560496332850645,0.1335614381506695,0.6335078534031382,1
0.6301302939920369,0.680451209822936,0.8198419739235903,0.5986909892133312,0.1323796420608525,0.6335078534031329,1
0.6428200356050173,0.6839879128689937,0.8165200520292253,0.6085114291424182,0.13356143815066934,0.6335078534031382,1
0.642923743406272,0.6811468632351232,0.8118180010411895,0.607428446660843,0.13356143815066884,0.6335078534031346,1
0.6563640970037781,0.6861602567274436,0.8062815347823272,0.5829766215728409,0.13356143815066907,0.6282722513088945,1
0.659950769452495,0.6851058740681834,0.8026344611483738,0.5473631246042083,0.1335614381506694,0.6282722513088927,1
0.5910684401784886,0.7156476419206899,0.8309338410002772,0.6202821565882446,0.13119692197096589,0.628272251308891,1
0.5069707533711021,0.7042070484553417,0.8747010038937917,0.5800854332566722,0.13119692197096539,0.6282722513088874,1
0.5076312186784888,0.6737481132263299,0.888813191672808,0.5698661946351422,0.13237964206085223,0.63350785340314,1
0.5054040153377656,0.7031207373857306,0.865696528109255,0.6181593641368021,0.13237964206085284,0.6335078534031435,1
0.5712621410475139,0.7078450184050689,0.8373661076930612,0.6857747494815407,0.1335614381506694,0.6335078534031435,1
0.7181449573608747,0.7026178535279707,0.739380016565766,0.6488481403670213,0.1288333297913326,0.6335078534031364,1
0.7307385075078829,0.7001339129175885,0.7083367498778859,0.5564565567951609,0.12528701752181287,0.6204188481675317,1
0.7671669527226506,0.6905060765474278,0.7071017479660674,0.5170285658250467,0.12765153370151655,0.6204188481675423,1
0.794271756549255,0.6835486119177995,0.632895492784191,0.49024879762975065,0.12765153370151644,0.6204188481675423,1
0.8209162179573282,0.69700388160223,0.5838753359323106,0.6183513228871669,0.12883332979133333,0.6204188481675388,1
0.8214262399443593,0.6886904530157394,0.5844744287410144,0.663110731552376,0.12883332979133316,0.6335078534031435,1
0.8171092450390007,0.691728571034703,0.5870099663658204,0.6226024370409585,0.12883332979133327,0.6335078534031382,1
0.8192854539497811,0.6890008158576414,0.5874883189112091,0.5778030505665025,0.12883332979133288,0.6335078534031418,1
0.8127209159970112,0.697420355505351,0.5866569403754422,0.6249104598966752,0.12292342534218081,0.6335078534031364,1
0.8149367790177742,0.6940917465360721,0.590853468638195,0.5653684158070487,0.12765153370151683,0.6335078534031382,1
0.8088291672974421,0.6973114750188576,0.5936419773806522,0.5854012831925648,0.12883332979133288,0.6335078534031329,1
0.8115578611935224,0.6942587536948777,0.5941527418549211,0.6017613003094796,0.12883332979133288,0.6335078534031435,1
0.807846377756023,0.6972745510803945,0.5931671311999064,0.5812487747727261,0.12883332979133255,0.6335078534031293,1
0.8119267970996589,0.6940342378349771,0.5947228738490804,0.6127438740629132,0.12883332979133294,0.6335078534031382,1
0.8079843512651621,0.6992504196152567,0.592057655111361,0.6036256097728191,0.13119692197096594,0.6335078534031364,1
0.8077600500142337,0.6993885440514308,0.6067362270160338,0.5709842531379035,0.1229234253421802,0.6335078534031311,1
0.7853968085138614,0.7065319775288283,0.6298658065194996,0.6212743864072265,0.12765153370151605,0.6335078534031311,1
0.7849227567264669,0.7160053075799255,0.6283728485447758,0.6071082445453435,0.1276515337015166,0.6335078534031275,1
0.7719563099617688,0.7279280099371881,0.6252823080907269,0.5786695237449863,0.12765153370151644,0.6335078534031329,1
0.7823946572035829,0.7284267806786671,0.6212060085832488,0.6204694552210493,0.12883332979133327,0.6335078534031435,1
0.7729227788118118,0.7290110981436249,0.6203533198552186,0.605636690948437,0.12765153370151705,0.6335078534031364,1
0.7894310481137092,0.7298123295378887,0.6101201828669984,0.5676606918085079,0.127651533701516,0.6335078534031364,1
0.7710279346375215,0.7298482842560245,0.6113931335506286,0.6045504916478492,0.12765153370151655,0.6335078534031382,1
0.7878776709206698,0.7397042626105297,0.5936309516657767,0.6244346773219241,0.12765153370151677,0.6335078534031364,1
0.7686868279217036,0.7443554350628325,0.5913358721648805,0.5848951141136508,0.12646973761169938,0.6335078534031311,1
0.7959707930069497,0.7417597902212412,0.5933802706760873,0.6027277333328338,0.12765153370151644,0.6335078534031311,1
0.765878843941534,0.7259459328728767,0.6106672940277432,0.6123476427487946,0.13001512588114966,0.6335078534031364,1
0.8249057115435177,0.7247469739287657,0.6203328251000315,0.5801582465272106,0.1276515337015166,0.6335078534031382,1
0.6939312668814767,0.7432564479055286,0.7108183477108407,0.5995540096722465,0.1264697376117005,0.6335078534031418,1
0.6103358329236002,0.695052761844983,0.7826350110520301,0.6166947654251498,0.12528701752181254,0.6335078534031293,1
0.6700915327883363,0.7019806938463858,0.792902254637806,0.5850445639994546,0.12883332979133316,0.6335078534031364,1
0.7044309161023126,0.7010389991609093,0.7526306690275004,0.5911851222421817,0.12646973761169972,0.6335078534031364,1
0.6950759610698768,0.6962919249649353,0.7440374407345871,0.693427094769573,0.13001512588114966,0.6335078534031329,1
0.7635773952954268,0.6914033311614793,0.7138572409387418,0.6268114686056295,0.12883332979133327,0.6387434554973872,1
0.6035173557546956,0.6817223557340422,0.8102767941513741,0.5713033772499497,0.13001512588114966,0.6387434554973801,1
0.4433267951470128,0.6688521195795905,0.9170735766090263,0.6088095386434921,0.12883332979133255,0.6387434554973783,1
0.5742081873230549,0.6565999746681942,0.8852773743847606,0.5273997900023959,0.12883332979133344,0.6387434554973783,1
0.5622944886969274,0.6582589792630882,0.8624430429289682,0.5176434048006248,0.12646973761169977,0.6335078534031489,1
0.6591045223533238,0.6676715692440244,0.8174786990260541,0.5361209854374456,0.12528701752181348,0.6335078534031418,1
0.7128917540860269,0.6661090591562403,0.7632984911848224,0.6616765329653148,0.12646973761169983,0.6335078534031471,1
0.7883992147768684,0.693017941931852,0.6652788183763418,0.607991414919999,0.12292342534217998,0.6335078534031435,1
0.768339965481577,0.7363109066286517,0.519490386408426,0.5849413479097307,0.12174162925236387,0.6335078534031418,1
0.8221554888732827,0.7352042788847497,0.46439074364849253,0.5964625017685113,0.11701352089302797,0.6335078534031418,1
0.8657036710767745,0.6957010183406747,0.4722601413063474,0.6134762795314453,0.11819531698284386,0.6335078534031435,1
0.8308176476172,0.6782225617464555,0.5827189990770674,0.6046271376773186,0.11701352089302769,0.6335078534031346,1
0.78805099857769,0.677312222326705,0.6397218362941137,0.5389002181765663,0.11819531698284363,0.63350785340314,1
0.7757417854577877,0.6896287011281768,0.672071812113149,0.6019966498038452,0.1205598331625477,0.6335078534031435,1
0.7603041353165274,0.6775840293892389,0.6848321416692711,0.578333781033955,0.11937803707273131,0.6335078534031364,1
0.7655185624860141,0.6741038758356561,0.7024649906822282,0.5430829991603912,0.12292342534218059,0.6335078534031435,1
0.7775220587716987,0.6963717874598438,0.6936913548469118,0.6735207755620549,0.12174162925236365,0.6335078534031329,1
0.7452790045214042,0.7710829336858693,0.6340754045330617,0.6120347303615989,0.12174162925236426,0.6335078534031506,1
0.6149737762704922,0.7251644516319622,0.784312696990991,0.5808421223227109,0.11937803707273092,0.6335078534031435,1
0.6151352423210913,0.7261968128196629,0.7993654716224493,0.6208323129645706,0.12646973761170055,0.63350785340314,1
0.606860497306944,0.737782442877917,0.8113607681257984,0.5956311789966537,0.12883332979133272,0.6282722513089016,1
0.5994955873835703,0.7274063897189961,0.8105138690057081,0.6016393397050036,0.1288333297913331,0.6282722513088999,1
0.613555474053531,0.7238899666074492,0.8086984468875729,0.6481852254176355,0.13119692197096605,0.6282722513088945,1
0.6013634868617026,0.7270896489868409,0.8171340164667231,0.5879897444812846,0.1323796420608529,0.6282722513089052,1
0.605667262569441,0.7272725132084397,0.8094460155190448,0.5877104183505942,0.13237964206085318,0.6282722513088963,1
0.5843883339692969,0.726369975805123,0.8182517400182233,0.5291203619171476,0.1323796420608528,0.6282722513088981,1
0.5954649726770692,0.7229091752805649,0.8254835423048889,0.5229218341669729,0.13356143815066868,0.628272251308891,1
0.5736522518039942,0.7419874776728959,0.820507319853632,0.6386325551083059,0.13237964206085212,0.6282722513088892,1
0.5339343075404943,0.7379785252179472,0.8250461727904617,0.6363898756793152,0.13119692197096605,0.63350785340314,1
0.5764248021496485,0.7301698843161657,0.8230266870351224,0.6215948517605431,0.13119692197096622,0.6335078534031418,1
0.5705977314287634,0.7314266115609712,0.8321824384749638,0.5759812112359988,0.13119692197096633,0.6335078534031471,1
0.5592183273096746,0.7239660058521739,0.8387926836418114,0.6552200316208125,0.1311969219709655,0.6335078534031311,1
0.5510273846347704,0.7200555983893104,0.8463453789045072,0.7021071813511874,0.13237964206085245,0.6335078534031364,1
0.5579727598053477,0.7207076941430367,0.8376088662992979,0.5355780948656993,0.131196921970966,0.6335078534031382,1
0.5686029296008221,0.7199719098086594,0.8411588575688936,0.4461653670976265,0.1311969219709655,0.6335078534031311,1
0.5694222671738564,0.7202728286201933,0.8313610006487764,0.5729900492270453,0.13001512588114955,0.6335078534031453,1
0.5922242230069606,0.7290930867139565,0.8219850306828316,0.6478955607998294,0.13119692197096622,0.6282722513088927,1
0.5790294752890912,0.7224252673033569,0.8260249861281208,0.5957645990898339,0.1323796420608529,0.6282722513088999,1
0.5839237860830553,0.7150722508063035,0.8399721133785296,0.6112356195429769,0.13237964206085345,0.6282722513088945,1
0.5650949584170757,0.7104192138756222,0.8445487679288226,0.6101793397729032,0.12528701752181287,0.6282722513088927,1
0.5391012526633999,0.712367820882226,0.8489212363562308,0.5937715791688921,0.13001512588114983,0.6335078534031418,1
0.5705436807501487,0.714718106370099,0.8358198422564658,0.5781727256939393,0.13119692197096583,0.6335078534031311,1
0.5800050307967695,0.7202825398901483,0.834984166289609,0.5985113215779004,0.13001512588114944,0.6335078534031471,1
0.5536387829009105,0.7048921066415915,0.8383431039213511,0.6158381346512449,0.13237964206085256,0.6335078534031346,1
0.5835354430304726,0.6947049837798139,0.8469405917233764,0.6228027927339638,0.131196921970966,0.6387434554973801,1
0.5988696169287593,0.6939908974338193,0.8387040036087088,0.5701099093075485,0.13356143815066934,0.6387434554973801,1
0.5919944206152442,0.6882914202608124,0.8401178136874718,0.5715863295793647,0.13119692197096594,0.6387434554973712,1
0.6044491213807226,0.6927830243951991,0.8372071507992509,0.6038487691061833,0.13119692197096572,0.6387434554973694,1
0.5987496499426512,0.6909357343702031,0.838508416713003,0.586949025180498,0.13237964206085323,0.6335078534031311,1
0.605851679766872,0.6918108668176636,0.8366408453252645,0.6265605772170247,0.13119692197096566,0.6335078534031364,1
0.6009748673529656,0.6932496676080231,0.8386230000401664,0.5640308300205208,0.13119692197096589,0.63350785340314,1
0.606276284199832,0.6919925468125603,0.8385479900076915,0.5475625898057588,0.12765153370151638,0.63350785340314,1
0.5984147848229038,0.6899418074478719,0.8387526717137539,0.6216880390791614,0.13119692197096566,0.6387434554973854,1
0.6136303729424739,0.6927058186580242,0.8262412817889088,0.6053789773051657,0.12410522143199698,0.6387434554973801,1
0.6163265450558298,0.6943802300654229,0.8228091090833255,0.5838481352592008,0.130015125881149,0.6387434554973765,1
0.6157454073195838,0.6963224878397611,0.8211747986438289,0.6061675722824632,0.1229234253421797,0.6387434554973641,1
0.6235790914760317,0.6952964243571507,0.8202458268385577,0.6206836366356269,0.1300151258811491,0.6335078534031364,1
0.6222923532936553,0.6961750005536995,0.8206896900925194,0.5865422708747642,0.13001512588114983,0.6335078534031418,1
0.6118775572694675,0.6953584961478289,0.8227591657321118,0.6032559038683024,0.13001512588114922,0.6335078534031364,1
0.6164449444365524,0.6961383940504872,0.8216898051548739,0.6142690898812074,0.13119692197096583,0.6335078534031364,1
0.6126325277093922,0.6953842727230736,0.823592010949947,0.573127321278116,0.12883332979133316,0.6282722513088892,1
0.6160752631797426,0.6961182727411808,0.8213799774542166,0.5984108578589701,0.13119692197096622,0.6282722513089052,1
0.6128727340917299,0.6954010000011496,0.8238915503521365,0.5922886266978404,0.12292342534217998,0.6282722513088963,1
0.6158958135707997,0.6961037965013471,0.8208091923219313,0.5754065489017522,0.12765153370151677,0.6282722513088963,1
0.6130179198687659,0.6954138726090876,0.8231168223989072,0.6185426100495857,0.1276515337015166,0.6335078534031382,1
0.615772412734511,0.6960921217497872,0.8209940241738782,0.6054953624272039,0.12646973761169977,0.6335078534031346,1
0.6131262492267598,0.6954246319155682,0.8230180043595626,0.5778825279739077,0.128833329791333,0.6335078534031364,1
0.615675176148196,0.6960820552938303,0.8210610884525931,0.6145288572155756,0.12765153370151683,0.6335078534031435,1
0.6132149332225671,0.6954342104436839,0.8229662385974488,0.6094692117441707,0.1276515337015166,0.6335078534031435,1
0.6155933239046285,0.6960727388923127,0.8211047069009174,0.5728608824252296,0.12646973761170005,0.6335078534031329,1
0.613291177249611,0.6954435620200994,0.822926802412329,0.6190489367908545,0.1288333297913331,0.6335078534031418,1
0.6155217825450847,0.696062895891568,0.8211427948901564,0.6114814679563514,0.12055983316254737,0.63350785340314,1
0.613358709132016,0.6954546922769169,0.8228873001956519,0.5750951939280258,0.1264697376116996,0.6282722513088874,1
0.6154577140552036,0.6960489109387678,0.8211874431663035,0.6014455864587079,0.12410522143199726,0.6282722513088999,1
0.613419755204465,0.6954750958874233,0.8228308213440204,0.6238958497966152,0.12528701752181343,0.6282722513088999,1
0.6153993265194289,0.6960120727758722,0.8212712873427459,0.5755908874276549,0.12410522143199698,0.6282722513088999,1
0.6134757902842258,0.6955701494848235,0.8226676170693044,0.5909854717598911,0.12410522143199565,0.6282722513088874,1
0.6153453819381626,0.695207212936813,0.8220081590160772,0.6212465345723419,0.12883332979133327,0.6282722513088927,1
0.6135278721578603,0.6910906369428047,0.8234116889033156,0.5923736508180517,0.11937803707273054,0.6282722513088981,1
0.6152949617154426,0.6888786046409372,0.8242727740789,0.5715727342553956,0.12528701752181387,0.6282722513088981,1
0.613576810737735,0.6871214102689993,0.8309388664401236,0.6200892889839285,0.1264697376117,0.6282722513088981,1
0.6152473413619526,0.6883712378136739,0.825674881877773,0.6052136808186257,0.12646973761170044,0.6282722513088999,1
0.613623263273803,0.6871355523942174,0.8280378513454896,0.5752799876577676,0.12528701752181326,0.6282722513088999,1
0.6152019162800498,0.6934196936732624,0.824028352112665,0.5984364586760673,0.12410522143199643,0.6282722513088945,1
0.6136677937407387,0.694344557985807,0.8235638263661089,0.6139592781034104,0.12292342534218048,0.620418848167537,1
0.6151581528941554,0.6952500295557452,0.8221473087370201,0.5713326741864174,0.12410522143199626,0.6204188481675228,1
0.6137109142983102,0.6958108717992202,0.8226501125499442,0.6060858412357824,0.12410522143199615,0.6204188481675263,1
0.6151155522740215,0.6958040553302174,0.8213102962308472,0.6008869828376318,0.12528701752181348,0.6204188481675388,1
0.6137531184048239,0.6956602349807761,0.8227837967005381,0.5754896766789096,0.12528701752181326,0.6282722513088945,1
0.6150736187774408,0.6958779795212635,0.8212312967154989,0.6064530522366564,0.12646973761170027,0.6282722513089016,1
0.6137949117536143,0.6956170050377358,0.8228647036425041,0.5992722757334275,0.12528701752181365,0.6282722513088963,1
0.6150318282573313,0.6959054729918424,0.8210930021374525,0.5640083695645236,0.12646973761169977,0.628272251308891,1
0.6138368462436852,0.6955987297678916,0.8234069446426933,0.6309822770472928,0.12765153370151655,0.628272251308891,1
0.614989590443704,0.6959178569374859,0.821989641984259,0.583577628922718,0.12646973761169983,0.6282722513088963,1
0.6138795629829663,0.6955903594901516,0.8225078948184963,0.5875643226580266,0.12410522143199643,0.6282722513088963,1
0.6149461983981241,0.6959233491254304,0.8214551637892997,0.6216931075941893,0.12174162925236415,0.6282722513088945,1
0.6139238531560145,0.6955870245446563,0.8226311778342946,0.6101977790027543,0.12410522143199665,0.6335078534031382,1
0.6149007536337535,0.6959249992030256,0.821401058234916,0.5602249832234112,0.12292342534218037,0.6335078534031382,1
0.6139707519360446,0.6955867451760129,0.8226598004260778,0.5991256242327456,0.12410522143199681,0.6335078534031453,1
0.6148520461923948,0.6959241149786223,0.8213848819869296,0.6305854838538588,0.12292342534218048,0.63350785340314,1
0.6140216943243564,0.6955886635560748,0.8226688695891065,0.6117437469711958,0.12410522143199665,0.6335078534031346,1
0.6147983485312858,0.6959212301195776,0.8213803183620417,0.5714874900891581,0.12292342534218037,0.6335078534031329,1
0.6140787928135234,0.6955925027634424,0.822670336323529,0.5828883072471674,0.12410522143199665,0.6335078534031346,1
0.614737034007951,0.6959163903484229,0.8213811392772604,0.6222026425054406,0.12528701752181293,0.63350785340314,1
0.6141453731420424,0.6955984619335653,0.8226676977319534,0.6077100484897748,0.12174162925236409,0.6282722513089123,1
0.6146638058221092,0.6959090868846557,0.8213853425827435,0.5784443832558578,0.12410522143199587,0.628272251308891,1
0.6142271158341541,0.6956075127005905,0.8226620214830995,0.5855855484240743,0.1193780370727307,0.6282722513088945,1
0.6145709497957652,0.6958975461330782,0.8213925443719656,0.6178212984593617,0.12055983316254681,0.6282722513088945,1
0.6143348399617403,0.6956230255096301,0.8226530831687682,0.6013869942649293,0.11937803707273054,0.6282722513088981,1
0.6144426722169698,0.6958746873559252,0.8214036372924676,0.5764387129036671,0.12292342534218031,0.6282722513088945,1
0.6144928330684508,0.6956627092892311,0.8226391118615672,0.5897581940916541,0.12055983316254687,0.6282722513088963,1
0.6142388254005087,0.6957788782498373,0.8214216887165682,0.6153898274976366,0.12174162925236415,0.6282722513088999,1
0.6147753253374881,0.6964309764363801,0.8226150842326188,0.5916039794027534,0.12174162925236348,0.6282722513088945,1
0.6137889016762859,0.6973370717984857,0.8214537427660129,0.5696386066702602,0.12174162925236326,0.6282722513088874,1
0.6160537011249492,0.6950755786351532,0.8225881961415447,0.5979183480518594,0.12174162925236354,0.6282722513088927,1
0.6115165079236341,0.6950746194917894,0.8232316104042104,0.6202424131126284,0.12055983316254776,0.6282722513089016,1
0.6297826804283089,0.6947587619086064,0.814287777838372,0.59332289949634,0.1205598331625472,0.6282722513088945,1
0.6305118316894809,0.7019646471099206,0.811669865986913,0.604889374317122,0.11701352089302774,0.6282722513088999,1
0.6219970610576087,0.704612716349575,0.8177543961930839,0.7076018828879764,0.11937803707272965,0.6282722513088927,1
0.6110869200898515,0.7010131143634251,0.8227074653513091,0.6467176433532265,0.11583172480321102,0.6282722513089087,1
0.5901378316926793,0.693806132989352,0.8389305954672701,0.4941480631381008,0.11583172480321063,0.617801047120409,1
0.5655751205712105,0.6892386394475998,0.85584302011462,0.5104225476048341,0.11583172480321091,0.6178010471204161,1
0.536098329994535,0.6874555010539309,0.8711882239047644,0.6022429750480637,0.11464992871339469,0.6178010471204196,1
0.5404919642151512,0.6876793281692012,0.8667490602947514,0.610395597427315,0.11464992871339397,0.617801047120409,1
0.5380993767890925,0.6890641495708473,0.8664138632833948,0.5781403373330654,0.11464992871339486,0.6204188481675406,1
0.544086122181247,0.6917553996581837,0.8637316008675783,0.5829594935313596,0.11583172480321163,0.6204188481675441,1
0.5474738426865728,0.6919418769217265,0.8649228477637669,0.6373112678469133,0.11346813262357797,0.6204188481675441,1
0.5494834655330614,0.6962893777780866,0.8636337440709569,0.5110327863727743,0.11583172480321047,0.6204188481675406,1
0.5476639558798795,0.6945005302159163,0.8649816490973778,0.5566421080769504,0.1134681326235773,0.6204188481675281,1
0.550556857094509,0.6957226726713497,0.8635762042508066,0.6110007074354729,0.1158317248032103,0.6204188481675317,1
0.5481638526227777,0.6955305999076657,0.865056343882562,0.5544527054774799,0.11228633653376141,0.6204188481675299,1
0.5503141278750456,0.6960270022852695,0.863454767145724,0.5862115420778011,0.11346813262357808,0.6204188481675281,1
0.5483291711628153,0.6954701069110506,0.8642613487013651,0.6651615989803189,0.11228633653376141,0.6204188481675335,1
0.5501872253265243,0.6960457475141613,0.8622204268021239,0.5898959700090987,0.11346813262357769,0.6204188481675406,1
0.548433253428892,0.6954801306739746,0.8636952892317027,0.5772300071942738,0.11346813262357813,0.6204188481675406,1
0.55009775285183,0.6957509008766001,0.8641405144216086,0.6254635253549906,0.11346813262357797,0.6204188481675406,1
0.5485133503335491,0.689502872231963,0.8646087278901659,0.5891172868057934,0.11346813262357741,0.6204188481675317,1
0.5500230006101345,0.6876541817285708,0.8639107151851969,0.5787876173381535,0.1134681326235778,0.6204188481675352,1
0.5485866574054914,0.6877180401739685,0.8647157033952848,0.6342542419225689,0.11228633653376158,0.6204188481675388,1
0.5499462046739978,0.6878382594479473,0.8638493713331648,0.6007883913504213,0.10992182035405879,0.6204188481675388,1
0.548675180299395,0.6876780702482033,0.8647549536048357,0.5887882906927141,0.11228633653376169,0.6204188481675441,1
0.5498277330615124,0.6887961472820606,0.8638223715822213,0.6363111802935469,0.11228633653376113,0.6204188481675388,1
0.548881852897916,0.6880155480288417,0.8647747873383259,0.5916314286903195,0.10755822817442506,0.6204188481675281,1
0.5490893257156655,0.6934378413185698,0.8638063311392781,0.574594476676048,0.11228633653376185,0.6204188481675335,1
0.5477954540499435,0.6951683472508804,0.8647905915699813,0.6276781056230849,0.11228633653376102,0.6204188481675423,1
0.5500933965284888,0.6960111188840152,0.8637832468449553,0.5889191294379533,0.11110361644387423,0.6204188481675352,1
0.5470889206387951,0.6955643061863891,0.864853521299837,0.5916288700981862,0.11346813262357724,0.6204188481675228,1
0.5502549323528163,0.6958996902530095,0.8630673400854354,0.6189907750870373,0.11228633653376074,0.6204188481675317,1
0.548418144545117,0.6956948749067975,0.8636512600832909,0.5686295632839691,0.11346813262357774,0.6204188481675335,1
0.5501054315378933,0.6952944444698983,0.8634293420271371,0.5912234905778994,0.11228633653376202,0.6204188481675335,1
0.548521512284536,0.6944845676517573,0.8638464334436414,0.6282701750388736,0.1122863365337613,0.6204188481675406,1
0.5497890527174916,0.6947488788263899,0.8637349751241846,0.5650215590692891,0.10992182035405812,0.6204188481675299,1
0.5456728586995043,0.6953619339405224,0.8648342744132929,0.598493193263675,0.10992182035405795,0.6204188481675335,1
0.5454379293379052,0.6959869729828836,0.8637643178619279,0.6347290013168126,0.11228633653376163,0.6204188481675388,1
0.5418522122749958,0.6955772476728177,0.8648180663407129,0.5745996852840117,0.11110361644387445,0.6204188481675335,1
0.5414207669942854,0.6928730312263578,0.8637747909154203,0.5816210922290944,0.11110361644387418,0.6204188481675263,1
0.5475221259900747,0.6941258993217084,0.8648105097779144,0.6388328102650238,0.1111036164438749,0.6204188481675388,1
0.5491678530792885,0.6893197586824429,0.8637807128944841,0.6099477018888085,0.11228633653376147,0.6204188481675388,1
0.5464943147371972,0.686884753399033,0.8648055669379393,0.5618850662055438,0.11228633653376113,0.620418848167537,1
0.5494201286116027,0.6889981482838763,0.8637850408659438,0.5942800735221345,0.10992182035405823,0.6204188481675335,1
0.546087068167307,0.6895022587474579,0.8648016383233523,0.6338469516025742,0.11110361644387462,0.6282722513088963,1
0.5404266472838641,0.6926145150636485,0.8637887040184951,0.574392267352249,0.10874002426424134,0.628272251308891,1
0.5433618262089608,0.695653545742942,0.8647981540604595,0.5808821425516417,0.11110361644387484,0.6282722513088999,1
0.5414362594779891,0.6942144766610078,0.863792067310281,0.6139953099067146,0.10992182035405806,0.6282722513088874,1
0.5390385995647906,0.6938186029395728,0.8647948717682454,0.6061111631907764,0.1111036164438754,0.6204188481675335,1
0.5387580047333849,0.6945861784597642,0.8637952970445801,0.5656360892574741,0.10874002426424179,0.6204188481675406,1
0.5420668359932492,0.6954941565026826,0.8647916736822652,0.6095951914454758,0.10992182035405812,0.6204188481675388,1
0.5462378752243999,0.695899055992357,0.8637984794415188,0.6106081489751598,0.10874002426424162,0.6204188481675299,1
0.5472358425122696,0.6956546784882619,0.8647884942366175,0.5703070413884399,0.10874002426424184,0.6204188481675459,1
0.5448820841912753,0.6958033109528059,0.8638016666575636,0.5927469136230649,0.10992182035405784,0.6204188481675406,1
0.5384267302719726,0.6947453095831391,0.8647852896610788,0.6232329596614072,0.10992182035405795,0.6204188481675335,1
0.5392713672416098,0.6916840786596876,0.863804897739848,0.5708746385548527,0.10874002426424145,0.6204188481675299,1
0.538882413250019,0.6876752658935892,0.8647820227798297,0.588495474891911,0.10755822817442529,0.6204188481675281,1
0.540388670561073,0.6893956664064971,0.8638082104074635,0.6224283990580255,0.11110361644387468,0.6204188481675406,1
0.5415928759360289,0.687609002044287,0.8647786530709727,0.6006553807376047,0.10755822817442517,0.6204188481675423,1
0.5421481569454446,0.6881527218050454,0.8638116503344992,0.5749693355555714,0.10874002426424106,0.6204188481675335,1
0.5428616931045025,0.6872216486494529,0.8658318519686603,0.6057752426767093,0.10874002426424167,0.6178010471204196,1
0.5411900568417239,0.6896078090379476,0.8638152822154859,0.5946019837805429,0.10874002426424184,0.6178010471204072,1
0.5391361885518633,0.6902710239281924,0.8647713643564572,0.5709271738573869,0.10755822817442556,0.6178010471204196,1
0.5407356685290869,0.6931921682636908,0.8638192079403082,0.6066642782968524,0.10755822817442523,0.6178010471204143,1
0.5388002194112045,0.6938315672909302,0.8647672328852455,0.61547089202676,0.11110361644387445,0.6178010471204125,1
0.5400061718987815,0.6957514738167931,0.8638236029207127,0.5832940228532233,0.10874002426424201,0.6178010471204249,1
0.5428428496484321,0.6944378141530214,0.8647624941473457,0.617094922822299,0.10755822817442534,0.6178010471204036,1
0.5406758589688025,0.6962845826646178,0.8638288003542647,0.5849279051405776,0.10519463599479262,0.6178010471204161,1
0.546932915433143,0.6951745410244341,0.8647566672879125,0.571858246944285,0.10755822817442534,0.620418848167537,1
0.5485821328143154,0.696554839219792,0.8638355218283431,0.61654468016589,0.10519463599479173,0.6204188481675299,1
0.5411980153917442,0.6920929036779974,0.8647486153972532,0.5915501744395384,0.10637643208460945,0.6204188481675335,1
0.5405245969042547,0.6947943439591122,0.8638456751570234,0.5651909679641882,0.10637643208460884,0.6204188481675388,1
0.5400777609619101,0.6958938498238378,0.8647348510809066,0.6320999242029504,0.10637643208460834,0.6204188481675388,1
0.5420284848421165,0.6948473820415471,0.8638664823444628,0.5901624002791859,0.10874002426424167,0.620418848167537,1
0.5375556534159103,0.6905175288907197,0.8646969971706755,0.6248351593968815,0.10637643208460867,0.6204188481675388,1
0.5412112150032002,0.6871636539702843,0.8639712217070084,0.6211445091437164,0.10637643208460923,0.6204188481675423,1
0.5397335961134693,0.6888624668020078,0.8657930413109909,0.5473396832831707,0.10755822817442573,0.6204188481675406,1
0.5391466067236295,0.6879406146106787,0.8637120506158682,0.5869454942918303,0.10755822817442479,0.6204188481675352,1
0.5377898870252327,0.6876907117373516,0.864821508230329,0.6189938394795963,0.10519463599479228,0.6204188481675299,1
0.5394191064467138,0.6879929385207935,0.8637875867618692,0.5948398467497403,0.10637643208460834,0.6204188481675335,1
0.5391679560092211,0.6924642612233498,0.864789860248834,0.5762420978222493,0.10755822817442529,0.6204188481675299,1
0.5384493112422927,0.6937348237562291,0.863805906680879,0.5940797333311567,0.10637643208460817,0.6204188481675335,1
0.5383030627731611,0.6943283453428342,0.8647774624783192,0.6109727356200194,0.1075582281744254,0.6204188481675335,1
0.5385938191435373,0.6958477748254552,0.8638151229774573,0.5981276023839458,0.10637643208460901,0.6204188481675388,1
0.5382537482862613,0.6956630452638413,0.8647701718182751,0.5843459379869328,0.10637643208460812,0.6204188481675352,1
0.5386057163334013,0.6958147959826068,0.8638211439035834,0.6126946768424499,0.10755822817442467,0.6204188481675352,1
0.5382711437101164,0.6957787376339393,0.8647650472617293,0.6093690564976227,0.1075582281744249,0.6204188481675299,1
0.538536709906732,0.6950146601303933,0.863825596727456,0.5620148696668813,0.1063764320846089,0.620418848167537,1
0.5385702165924429,0.6952868368506993,0.8647611272474576,0.586220910702418,0.10519463599479228,0.6178010471204143,1
0.5418019331902348,0.6960896167976918,0.863829069100621,0.6258621164299872,0.10519463599479184,0.6178010471204125,1
0.5390034602910907,0.695251310421219,0.8647580542953359,0.5974902469159487,0.10519463599479206,0.617801047120409,1
0.5399800600800111,0.6940653162697679,0.8638317624822758,0.5538112968027726,0.10637643208460856,0.6178010471204143,1
0.5379764870273019,0.6944772588834335,0.8647557455487397,0.6045419789239659,0.10519463599479223,0.6178010471204178,1
0.5388720073327534,0.6931224683420504,0.8638336561614852,0.6229353068269488,0.10519463599479223,0.6178010471204178,1
0.537904560066182,0.6902505992088589,0.8647543270670385,0.5754929812849358,0.10519463599479262,0.6178010471204143,1
0.540226053019202,0.6873082752618787,0.8638345003219321,0.6108991446936479,0.10401191590490505,0.6178010471204072,1
0.5396579186050338,0.6921220952372618,0.8647542122842129,0.620782781290844,0.1051946359947919,0.6204188481675228,1
0.5384814064177921,0.6965878438037648,0.8638336445483139,0.5680116178650533,0.10401191590490527,0.6204188481675317,1
0.5382744970466836,0.695250874677642,0.8647564211921379,0.5892224645622025,0.10519463599479295,0.6204188481675406,1
0.5386217745577113,0.696127137271204,0.863829451636618,0.6211132410354505,0.09928473154563944,0.6204188481675299,1
0.5383878601788987,0.6954739879437501,0.8647637009410267,0.5863508406233783,0.10401191590490527,0.6204188481675335,1
0.5428569742497478,0.6959242992202028,0.8638169884251383,0.5863552324532241,0.10519463599479278,0.6204188481675477,1
0.5411553566297236,0.6963252934511162,0.8647858590265385,0.6190426288105251,0.10283011981508888,0.6204188481675406,1
0.5412865385057581,0.696383243694417,0.8637732981633925,0.5814546396153246,0.10519463599479228,0.6204188481675406,1
0.5399079735667514,0.6952670816521817,0.8648964932113783,0.5778905757746465,0.10283011981508955,0.6204188481675494,1
0.5402328816144042,0.6970463213688897,0.8629345709808205,0.6198302529211519,0.10637643208460806,0.6204188481675352,1
0.5389807034971432,0.6956189737704399,0.8643815387148657,0.5857679417794489,0.09928473154563905,0.6204188481675335,1
0.5403304661453963,0.6959306965338261,0.8640301545018949,0.5737840809378438,0.10519463599479173,0.6204188481675228,1
0.538996633418638,0.6956042032579841,0.8646029780475148,0.6234343010334298,0.10401191590490572,0.6204188481675459,1
0.5382868483422961,0.6958153068801349,0.863968021454584,0.5910348366256782,0.10283011981508927,0.6204188481675352,1
0.5393397346245355,0.6946353781630527,0.8646275632763174,0.5748788614041863,0.10401191590490505,0.6204188481675459,1
0.5399768960563163,0.6951429495942044,0.8639597233506818,0.6196083127901371,0.102830119815089,0.6204188481675228,1
0.538732072633756,0.6953063325715769,0.8646260495713183,0.6016200167893491,0.10401191590490544,0.6204188481675423,1
0.5393424668254223,0.696115875779911,0.8639689709896203,0.5738483833512846,0.101648323725272,0.6204188481675335,1
0.5398142990813013,0.6954169181549168,0.8646090554352375,0.6133803539568435,0.10519463599479223,0.6204188481675352,1
0.5390885101091023,0.6961094391596324,0.8639954549525866,0.6031347623654078,0.10283011981508927,0.6204188481675441,1
0.5378651229750685,0.6953037674681198,0.8645688626977917,0.5795591871740153,0.10283011981508855,0.6204188481675335,1
0.5403740961255158,0.6970618492007299,0.8640586851286862,0.6126797898880219,0.10401191590490505,0.6204188481675281,1
0.5419947619641614,0.6976224316448029,0.8644593967435052,0.6003484500788897,0.10164832372527238,0.6204188481675335,1
0.5410813896668494,0.6957247718575339,0.8642913272481283,0.5701366824779075,0.10401191590490594,0.6204188481675423,1
0.5401261597742775,0.6979095200894884,0.8635429769100418,0.6149971462500033,0.1040119159049056,0.6204188481675335,1
0.5411415840509384,0.6989720162154524,0.8623741456111396,0.6045358500341749,0.10283011981508872,0.6204188481675299,1
0.5391717033089531,0.6957354514042073,0.8651631801211355,0.566320694891673,0.10046652763545577,0.6204188481675281,1
0.5392925526467935,0.6968920364601883,0.8636104071632569,0.6138870041016224,0.10164832372527205,0.6204188481675317,1
0.5402169481089911,0.6951107202757077,0.8649006930596654,0.6114082739775455,0.10046652763545566,0.6204188481675317,1
0.5403021890342319,0.6962806467867544,0.8637306038411475,0.569703513776825,0.10283011981508905,0.6204188481675406,1
0.539759613079031,0.6952882550512467,0.8648307555380388,0.6065058012895053,0.10164832372527244,0.6204188481675388,1
0.5400551990085434,0.6961901155800594,0.8637767488196242,0.6196253930866444,0.10164832372527255,0.6204188481675281,1
0.5385216891551582,0.6953420277217913,0.8647977842985728,0.5775899035191712,0.10164832372527316,0.6125654450261759,1
0.5407828364669176,0.696157349778959,0.8638016658378558,0.585456753303159,0.10046652763545566,0.6125654450261706,1
0.5399302294166595,0.6953589363066704,0.8647781398628782,0.6241197963341572,0.10164832372527244,0.6125654450261742,1
0.5385452183441213,0.6961582055019038,0.8638176839915765,0.5953039590029355,0.10164832372527294,0.6125654450261759,1
0.5382803208816349,0.6953236796306783,0.8647647076186109,0.5762542449771202,0.10283011981508983,0.6204188481675406,1
0.5385887849580236,0.6963388684662731,0.8638292239928886,0.6095140318265594,0.10046652763545594,0.6204188481675406,1
0.5382686813619901,0.6964007873910161,0.8647545750143681,0.6080782923291175,0.10283011981508883,0.6204188481675335,1
0.5385937867810826,0.6957952911124639,0.8638383038606954,0.5721724042028623,0.10164832372527233,0.6204188481675281,1
0.5382632078186014,0.6972493369130817,0.8647462755004038,0.6024357211806753,0.10164832372527288,0.6178010471204232,1
0.5386039655683676,0.697544636558403,0.8638460445902478,0.6123262120520183,0.10283011981508927,0.6178010471204143,1
0.5382424225145741,0.6951893244729621,0.8647388998777947,0.5685481572694893,0.1004665276354556,0.6178010471204054,1
0.5386497850684839,0.6962163591541498,0.8638532403787863,0.590984861959135,0.10046652763545616,0.617801047120409,1
0.5381151701054552,0.6953311185708901,0.8647316866321029,0.6246011142584552,0.09928473154563994,0.6178010471204232,1
0.5397030827919299,0.6961652045420352,0.8638607072151319,0.5746858009599576,0.10283011981508927,0.617801047120409,1
0.5388213067412388,0.695352210066332,0.8647236484976468,0.585121207341882,0.09928473154563922,0.617801047120409,1
0.5381821491048997,0.6961593860291371,0.863869795024087,0.622971047760451,0.10046652763545594,0.6178010471204125,1
0.5392941188594049,0.6953472061472625,0.8647127052023578,0.5867722341425445,0.09219303100667064,0.6204188481675406,1
0.5400238461399078,0.6961750088326684,0.8638841319701793,0.5769207849567513,0.09928473154563894,0.6204188481675352,1
0.5420821368988287,0.6953173828838616,0.8646915190716958,0.6226302434409507,0.09928473154563977,0.6204188481675335,1
0.5399945362548572,0.6962303358052411,0.8639221907424897,0.5900221412413074,0.100466527635456,0.6204188481675335,1
0.5417441475446333,0.6951962776893489,0.8645867326663914,0.5842150062133221,0.09810201145575237,0.6204188481675228,1
0.5388094959464398,0.6967390188219776,0.8617693243272728,0.6144128731458316,0.09810201145575281,0.6204188481675441,1
0.542875317469474,0.6960493151640954,0.8648461344011327,0.5878481035328859,0.10046652763545616,0.6204188481675406,1
0.5410703111629256,0.6958678133708354,0.8637972273318308,0.5812226881008128,0.09810201145575237,0.6204188481675228,1
0.5388668513500302,0.6956787670692608,0.8647710706379025,0.6212070228854446,0.09928473154563983,0.6178010471204178,1
0.5389088110980652,0.6972256492519249,0.8638282908107096,0.5741903675586996,0.10046652763545594,0.6178010471204107,1
0.5379620606400723,0.6965780999839883,0.8647534438703606,0.5845306155279159,0.09928473154563949,0.6178010471204054,1
0.5389231599925233,0.6988385182219805,0.8638398884153138,0.623461714715804,0.09810201145575242,0.6178010471204143,1
0.5378240800017986,0.6964257613539064,0.8647451351514714,0.5771482878494901,0.099284731545639,0.6178010471204249,1
0.5398152649229329,0.6957590325486223,0.863846161295895,0.5875280922534415,0.09810201145575259,0.617801047120409,1
0.53872688738404,0.6956075889369031,0.8647402479875199,0.6290114119830915,0.0981020114557527,0.6178010471204107,1
0.5385721178330515,0.6959782089257783,0.8638500263803095,0.5770959137378561,0.099284731545639,0.6178010471204125,1
0.5381018916713123,0.6954697576320567,0.8647371955338992,0.5918924467387717,0.09692021536593654,0.6178010471204196,1
0.5434373631289509,0.6961435533957545,0.863852382054498,0.6270676438607786,0.100466527635456,0.6178010471204249,1
0.5391660955786424,0.6946320284524562,0.8647354863761292,0.5871433572620144,0.09810201145575276,0.6178010471204178,1
0.5401906923615205,0.6956923532329942,0.8638534395579911,0.5803801922510559,0.09692021536593615,0.6178010471204178,1
0.540767442634589,0.6956367946012376,0.8647351439667053,0.6254792304594936,0.0957384192761192,0.6204188481675317,1
0.5389233320856692,0.6959316637295633,0.8638529278083382,0.5928852429814832,0.09692021536593615,0.6204188481675281,1
0.5399511192634472,0.6955480677014012,0.8647367646375734,0.5802432430239378,0.0945566231863032,0.6204188481675352,1
0.5402983878177059,0.6959868516952661,0.8638497428260112,0.6152990596933927,0.0957384192761197,0.6204188481675406,1
0.5384772171384418,0.6955039571670538,0.8647423572817355,0.5958021377243754,0.09573841927611965,0.6178010471204285,1
0.5385494435411151,0.6960297468026255,0.8638400560054753,0.5781447083449416,0.09692021536593592,0.6178010471204036,1
0.5397775972968999,0.6954529248917232,0.864759952125309,0.6197310726762112,0.09573841927612009,0.6178010471204232,1
0.5383181094020709,0.6971074126306163,0.8638040545520238,0.5823566683287987,0.09692021536593615,0.617801047120409,1
0.5383444832037219,0.695276201923979,0.8648557748001252,0.5734514927182242,0.09692021536593631,0.6204188481675263,1
0.5393226625396301,0.6974007635674958,0.8631803361172484,0.6216831478026753,0.0969202153659362,0.6204188481675317,1
0.5391929802416324,0.6981450396648591,0.8639002914748306,0.5883105060709402,0.09692021536593637,0.6204188481675406,1
0.5391686988044124,0.6961465216407142,0.8631145805490075,0.5719189421904411,0.09573841927611998,0.6204188481675459,1
0.539358760864993,0.6954891665418044,0.8647849088996962,0.633540570226405,0.09692021536593604,0.6204188481675423,1
0.5392357895652153,0.6960118257230317,0.8638564125961155,0.594007766728912,0.09692021536593631,0.6204188481675406,1
0.5386317332680081,0.6954959277679944,0.864717262019761,0.5694918450819088,0.0969202153659362,0.620418848167537,1
0.5379110367765607,0.6960230604601619,0.8638775560996688,0.6142847024276624,0.09573841927611898,0.6204188481675228,1
0.5422089169761318,0.6954795394630717,0.8647075865146655,0.6209755784977543,0.09692021536593648,0.6204188481675406,1
0.541336844240442,0.6960423301066402,0.8638833555899443,0.567791727488936,0.09692021536593598,0.620418848167521,1
0.5393623708788254,0.6954571849548636,0.8647031342441648,0.5925503725710146,0.09573841927611959,0.620418848167537,1
0.5415812140758196,0.6960692611597983,0.863887623196099,0.6255521950948978,0.09692021536593665,0.6204188481675335,1
0.5421162728241646,0.6954223436595881,0.8646982591194456,0.5929250918484247,0.09573841927611942,0.6178010471204196,1
0.5391795542622898,0.6961203087224702,0.8638939644079778,0.5760692985115096,0.09810201145575292,0.6178010471204232,1
0.538575653086566,0.695323823630157,0.8646890940452752,0.6141661463003689,0.09219303100667015,0.6178010471204143,1
0.5383208029229489,0.6970774515548088,0.8639087444889594,0.6047765411199973,0.08864671873715041,0.6178010471204161,1
0.538501907518999,0.6955050000694056,0.8646612712000104,0.5722693683399945,0.09337482709648648,0.6178010471204178,1
0.5384063869563788,0.6962189220003753,0.8639801746434279,0.6009100938316637,0.09573841927611981,0.6178010471204196,1
0.5383503489443573,0.6983138012462072,0.8636941322321453,0.6132196386996263,0.09337482709648676,0.6178010471204143,1
0.5390635768976118,0.6960574495874643,0.8637163051951081,0.566877080708927,0.09573841927611948,0.6178010471204232,1
0.5395620500785004,0.6957551394924661,0.8647952026808041,0.5863224810659944,0.09573841927611909,0.6204188481675352,1
0.5378113205746664,0.6997391880637411,0.8638156593123669,0.6253318503777928,0.09692021536593642,0.620418848167537,1
0.5390508426918885,0.6977777317397336,0.8647631315918923,0.5832444538921642,0.09573841927611998,0.6204188481675352,1
0.5375837393574912,0.6955576725663657,0.8638302388763375,0.5742374762768572,0.09692021536593604,0.6204188481675459,1
0.5406448724567757,0.6957777731659127,0.8647560969894179,0.6247310722442001,0.09692021536593598,0.6178010471204143,1
0.5412715428287775,0.6958109178631472,0.863833090981974,0.597040750518129,0.09337482709648676,0.6178010471204249,1
0.537716478954899,0.695656595675985,0.8647560021481241,0.5712837741859701,0.09573841927611998,0.6178010471204143,1
0.5388340071591977,0.6958841145787265,0.8638310967511007,0.612539829408821,0.09455662318630365,0.6178010471204232,1
0.5381452326786806,0.6956062434944634,0.864759775602612,0.6139203471033546,0.09573841927611887,0.6178010471204018,1
0.5386619202394645,0.6959219579560323,0.8638256545199372,0.5720711170024019,0.09337482709648676,0.6178010471204249,1
0.5381954270957436,0.695575547025125,0.8647669057676437,0.5996205378445433,0.09573841927611987,0.6178010471204107,1
0.5397394334092147,0.6959498873888263,0.8638167209976231,0.6154583408596278,0.09455662318630298,0.6178010471204232,1
0.5391361294596493,0.6955389048804828,0.8647778314970067,0.5814543660725019,0.09573841927611954,0.6178010471204161,1
0.5399257432802163,0.6961216963852099,0.8638035820306083,0.5931099605977276,0.09692021536593637,0.6178010471204143,1
0.5392082958552388,0.6977577718771345,0.864793301673479,0.6139054425378805,0.09455662318630331,0.6178010471204178,1
0.5396312090983613,0.6968424063834009,0.8637862849278555,0.572670372430697,0.09455662318630309,0.617801047120409,1
0.5387132657606231,0.6972922802248616,0.8648089209031116,0.5991471021724177,0.0957384192761192,0.6178010471204125,1
0.53985425684409,0.70054044841493,0.8637952897775261,0.6096797113336802,0.09692021536593715,0.6178010471204107,1
0.5378260322511439,0.6975271970995564,0.8628845797293472,0.5663963068422794,0.09337482709648637,0.617801047120409,1
0.5410030880342711,0.7006623210326696,0.8633263314320896,0.6009234649850207,0.09573841927611904,0.6178010471204036,1
0.541978931944739,0.6996311880101547,0.8641444322150086,0.6210415766328212,0.09219303100667064,0.6178010471204161,1
0.5427840307140199,0.7008969102293255,0.8628729198753313,0.5665272737411384,0.09573841927611965,0.6178010471204143,1
0.5391459088525573,0.7018756584743594,0.8646163556141342,0.602555292952032,0.0945566231863032,0.6178010471204125,1
0.5416203117500876,0.696406994960217,0.8626038030171512,0.6251724839671449,0.09219303100667048,0.6178010471204285,1
0.5406678721273368,0.6955239054304387,0.8633886060541771,0.5770793953966428,0.09337482709648681,0.6178010471204054,1
0.5402294004454041,0.6959379324914051,0.8644173623508336,0.5845922820480582,0.09455662318630298,0.6178010471204232,1
0.5394808589988693,0.6955808473388565,0.8643345245963854,0.6306667142663465,0.09455662318630298,0.6178010471204161,1
0.5402137483527709,0.6959415021613281,0.8642355480657684,0.5920686122428035,0.09337482709648631,0.6178010471204196,1
0.541611221695532,0.6955223612493078,0.8638511047231003,0.5726201563611567,0.09337482709648598,0.617801047120409,1
0.5439420215420895,0.6963509551158404,0.8632514127600277,0.612081643157936,0.09219303100666987,0.6178010471204232,1
0.5449484554234509,0.6997330998603578,0.862934479275437,0.6170835181669619,0.09455662318630298,0.6178010471204125,1
0.5419429255533679,0.6963979403118195,0.8630853647125807,0.5749115267459316,0.09337482709648709,0.6178010471204285,1
0.5433047276130891,0.7016268054945699,0.8626122097007615,0.5964410312923418,0.09455662318630348,0.617801047120409,1
0.5425091627042071,0.7035635347786141,0.8615036089568973,0.6149893459156772,0.09573841927611981,0.6178010471204125,1
0.5426646635133681,0.7030046886970631,0.8628438131293563,0.5806781266631794,0.09337482709648659,0.6178010471204107,1
0.5414169106180694,0.7032021827119643,0.8616888422192028,0.5818257254392476,0.09337482709648687,0.6178010471204125,1
0.5426343912501854,0.7037837869135501,0.8614550428995895,0.6218717664586164,0.09219303100667015,0.6125654450261742,1
0.5399705121252363,0.7037254996445289,0.8625385066279567,0.5821681540888349,0.09455662318630359,0.612565445026183,1
0.5403336920400417,0.7025096056480165,0.8646992873935894,0.5724806191426811,0.09337482709648642,0.6125654450261742,1
0.5395849254203557,0.7019590130822286,0.862413632382145,0.6222998719365284,0.09455662318630348,0.612565445026183,1
0.5421719267340973,0.7012481793854043,0.8640636493693123,0.6014493817025783,0.09101031091678352,0.6125654450261795,1
0.5375980006987265,0.6992187798509116,0.864008470692456,0.5612962870383525,0.09455662318630303,0.6125654450261688,1
0.5389673306882274,0.6950854615841084,0.8646526137862129,0.6133229516665186,0.09101031091678358,0.6125654450261706,1
0.5380099778963561,0.69627897056815,0.86389507065079,0.6162180348728612,0.09219303100666948,0.6125654450261582,1
0.5388196236546738,0.6952923128485219,0.864734516745788,0.5894160700380111,0.0921930310066707,0.6178010471204161,1
0.5383993923285546,0.6961653373223811,0.8638000348967003,0.6658679310299416,0.0921930310066702,0.617801047120409,1
0.533774017758216,0.6959988690250415,0.8648725688707919,0.732131720013237,0.09101031091678374,0.6178010471204107,1
0.5317250323754509,0.7028255033566521,0.8635603499121993,0.4260787102954062,0.09101031091678335,0.6178010471204161,1
0.537329793240362,0.7036150417499629,0.8654163458343387,0.4525081881676366,0.09337482709648665,0.6125654450261759,1
0.5392067626957386,0.7041253251225478,0.8601486019917516,0.6832171075929926,0.09219303100666976,0.6125654450261795,1
0.5394866743526036,0.7027780507296177,0.8619834047010253,0.6737475772210001,0.09101031091678347,0.6125654450261742,1
0.536903865081659,0.7006811629601847,0.8650302280138469,0.577638643945057,0.08391861037781428,0.6125654450261795,1
0.5285447963870118,0.6972116531512225,0.8652058074873687,0.4982978615326831,0.09219303100667064,0.6125654450261742,1
0.5390047494091463,0.700743427681355,0.8619860131567825,0.5480427830536901,0.08982851482696669,0.6125654450261777,1
0.5718325497750589,0.7043239044110013,0.8456308207251888,0.6004509947200531,0.09219303100667015,0.6125654450261688,1
0.6128619522022798,0.7033239229143362,0.8174720807530191,0.6649667247972015,0.09101031091678335,0.6125654450261777,1
0.6502399085491826,0.7044023945227096,0.8006299547792141,0.6052399696153344,0.08982851482696724,0.6178010471204249,1
0.587376677020184,0.6993651463721154,0.8350503304466739,0.529800017604992,0.09101031091678363,0.6178010471204232,1
0.5349456014501504,0.6949039290963743,0.866522777824141,0.608502330262714,0.09101031091678347,0.6178010471204249,1
0.5516669327549908,0.6963129101501002,0.858709477800047,0.6329481044959205,0.0921930310066702,0.6178010471204054,1
0.5466065934674642,0.6952974338950142,0.8570744439247937,0.5707067899437173,0.0862831265575178,0.6178010471204125,1
0.5552061393466432,0.6961739109791323,0.8545558045015753,0.7040611209157994,0.09219303100667076,0.6178010471204303,1
0.5491623825845213,0.69534866019646,0.8609708357760915,0.6460651430221566,0.09219303100667015,0.6178010471204143,1
0.5225423788932937,0.6961781351479766,0.8711565082035231,0.42653246513666904,0.09101031091678352,0.6178010471204232,1
0.5215813707065494,0.695267360437001,0.873442785766708,0.6010831666417827,0.09101031091678319,0.6125654450261688,1
0.5272763569719443,0.6965921612552548,0.8713653824778864,0.6479296269597496,0.09101031091678391,0.6125654450261866,1
0.5358664309892265,0.6981542971949682,0.8662421945297969,0.5830685225984866,0.09219303100667026,0.6125654450261777,1
0.5376079340746108,0.7032969644628112,0.8636425735197657,0.6284179387016886,0.09219303100666992,0.6125654450261742,1
0.5386993153408784,0.7028434591771785,0.8648182420150332,0.6212567489264158,0.09101031091678352,0.6178010471204107,1
0.5390942460225985,0.7036253371524567,0.8638013375493522,0.548155379635477,0.08628312655751774,0.6178010471204143,1
0.5394641841390253,0.7037964268826014,0.8648117624833349,0.6142804101226627,0.09101031091678347,0.6178010471204196,1
0.5375635512102686,0.7037027911900345,0.8634424489930125,0.6221395392961607,0.09101031091678286,0.6178010471204107,1
0.5392462164778546,0.7038971574187459,0.8631806792064602,0.5724654482049162,0.08982851482696674,0.6125654450261777,1
0.5385128361357503,0.7028189956663351,0.8636530639847364,0.5980216822978455,0.08864671873715041,0.6125654450261777,1
0.5392848851431395,0.6989945712342382,0.8646931463204754,0.6262020020214161,0.08510133046770108,0.6125654450261759,1
0.5358652361219443,0.6957291124003535,0.8639529639198249,0.5695340351793879,0.08982851482696685,0.6125654450261848,1
0.5505113950763842,0.6962347451381365,0.8621007900745601,0.6087223691536613,0.08864671873715096,0.6178010471204232,1
0.530251793200861,0.6914195419779,0.8689854112563252,0.6477894050034814,0.08982851482696669,0.6178010471204178,1
0.4959452365417495,0.6857122270043401,0.8880042820608622,0.6952854498492275,0.09101031091678319,0.6178010471204107,1
0.4887065312661828,0.6893703497694876,0.891519262116342,0.5340272688273571,0.09101031091678319,0.6178010471204125,1
0.48795609687669206,0.6927609930844012,0.8881066879399838,0.4527090365509514,0.09337482709648681,0.6125654450261759,1
0.48896285153731917,0.6951900552164973,0.8868099415868418,0.626161545332799,0.09573841927611987,0.6125654450261866,1
0.49008636985973497,0.6957031539202633,0.8830610516205855,0.606248754596842,0.09573841927611981,0.612565445026183,1
0.4991366972578788,0.6956558257916043,0.8826162680356967,0.6016781592166287,0.09573841927611948,0.6125654450261795,1
0.5017984182709798,0.6998912219292878,0.8770902279719003,0.6158974861966522,0.09219303100667048,0.6178010471204249,1
0.5176509126295111,0.7045710343990111,0.8725056651311951,0.5829360831009275,0.09219303100667003,0.6178010471204125,1
0.5154213850211462,0.7031359046043363,0.8730266735253072,0.5896878382804114,0.09101031091678308,0.617801047120409,1
0.5204178311279806,0.7042837740696014,0.8672006656497449,0.5978268831103635,0.09219303100667048,0.6178010471204267,1
0.5323508404662864,0.7032699824372346,0.8637285894716176,0.559519412893653,0.08982851482696708,0.6178010471204178,1
0.5371147237322953,0.7042044797873013,0.863264032720713,0.5729157348450311,0.0921930310066702,0.6178010471204143,1
0.5337018450435116,0.7033238293354199,0.8648242503012893,0.6485878322614829,0.09101031091678363,0.6178010471204143,1
0.5401227518467857,0.7041644293130915,0.8638014899079175,0.5874249643240962,0.09219303100667081,0.617801047120432,1
0.5361040919465869,0.7033556775863153,0.8647906562490959,0.5741856993388981,0.09337482709648648,0.612565445026167,1
0.5389548668282771,0.7041377163289955,0.8637809700260477,0.623325441767574,0.09219303100667042,0.6125654450261777,1
0.5377833386458335,0.7033791159485387,0.8648357555098967,0.6017396503264658,0.09101031091678352,0.6125654450261795,1
0.5390612033327036,0.7041163256259937,0.8637053809615121,0.570272518498672,0.09101031091678374,0.6125654450261795,1
0.5378301059892492,0.7033993282516615,0.8639313582356067,0.6235073163560133,0.09219303100666953,0.6073298429319323,1
0.5389995457753596,0.7040966378138842,0.8628081824999942,0.5997752840265379,0.08982851482696719,0.6073298429319305,1
0.5378882897935082,0.7034190033355798,0.8645790139724394,0.5794597341960693,0.09101031091678347,0.6073298429319394,1
0.5389486103703691,0.7040765777649941,0.8628981710676807,0.6164440632088728,0.09101031091678352,0.6073298429319429,1
0.5379311932056445,0.7034397155210315,0.8645789785996376,0.5916506989513126,0.09219303100666976,0.6073298429319287,1
0.5389139901492843,0.7040551631937741,0.8638919805799854,0.5835551204834701,0.09101031091678341,0.6073298429319411,1
0.5379570289108266,0.7034614313389798,0.8647453475453821,0.6181606422984511,0.09219303100667015,0.6073298429319216,1
0.5388981743065535,0.7040346020870146,0.8638365400890147,0.5625653910595065,0.09219303100667076,0.6073298429319394,1
0.5379601797595619,0.7034766752169987,0.8645462301264782,0.5999256293068924,0.09101031091678341,0.6204188481675335,1
0.5389131733951573,0.7040366839878146,0.8625395521428905,0.6178321878898463,0.08982851482696735,0.620418848167553,1
0.5379150753778255,0.7034176895278486,0.8644160633850189,0.5656973416871443,0.08864671873715019,0.6204188481675281,1
0.5390172239336289,0.7043276470691303,0.8630703236493933,0.6109095112831983,0.08982851482696669,0.6204188481675335,1
0.5376968969272011,0.6974518021359503,0.8670495679419865,0.625283294134078,0.08982851482696691,0.6125654450261759,1
0.5480250862365579,0.6780933245011116,0.8638743883406477,0.5615720173030087,0.09219303100667015,0.6125654450261795,1
0.5655627340968805,0.6697989433942038,0.865771619518968,0.6060735025079111,0.08746492264733396,0.6125654450261759,1
0.5885118722634022,0.6581467462345373,0.8572959651699976,0.6266207994806434,0.08982851482696713,0.6125654450261706,1
0.6045130460750218,0.6559600962429666,0.8523539240691953,0.5678089548890256,0.08864671873714997,0.6125654450261742,1
0.5983388076678714,0.6487001953384728,0.8543173594644807,0.5557247045376655,0.08982851482696735,0.6125654450261777,1
0.6051972674254698,0.6485224331180435,0.8550033976357962,0.6336241103647775,0.09101031091678313,0.612565445026167,1
0.6136506683181888,0.6550534962053319,0.8481013560605519,0.606347253293918,0.08982851482696719,0.6125654450261813,1
0.6075290755136149,0.6542382460105294,0.8467886799531181,0.5928607034112288,0.08982851482696713,0.612565445026167,1
0.6171039714281159,0.6606954195808303,0.8457926949214538,0.6123942111130725,0.08746492264733374,0.6125654450261759,1
0.6272224216992978,0.6553700218116157,0.8369162147610052,0.621162261093322,0.09101031091678324,0.612565445026183,1
0.6236735337047363,0.6554501616008517,0.8445427083776341,0.5773260143843425,0.08746492264733419,0.6125654450261706,1
0.6488243247713371,0.6312917418952267,0.8311666732017321,0.5981978237174471,0.09101031091678319,0.6125654450261706,1
0.6670668366107566,0.6146049531066213,0.8217990670080717,0.6070977746202147,0.09219303100667042,0.6125654450261884,1
0.7326359894791612,0.6133628612507929,0.7731025556406417,0.6027337757560579,0.09219303100667048,0.6125654450261795,1
0.763906539212478,0.6170320751435736,0.7411503381019555,0.6552060864853121,0.09219303100666948,0.612565445026167,1
0.753936448471451,0.6255479127601642,0.7445846087625227,0.7311094925187662,0.09337482709648631,0.6178010471204054,1
0.7564689457607898,0.6331750923445603,0.7390019665962606,0.5214893680707761,0.09455662318630303,0.6178010471204178,1
0.7578288584901187,0.6304621384929092,0.7377634940462451,0.3469731966999604,0.09337482709648703,0.6178010471204249,1
0.758199184046034,0.6331094657947948,0.7367605876661809,0.6503283150909488,0.09455662318630376,0.6178010471204267,1
0.7527376042783596,0.6308133638074824,0.7396791985309485,0.6052307746303836,0.09219303100667003,0.6125654450261795,1
0.7546717698730994,0.6330833180380845,0.7391853351220423,0.5832888109403762,0.09337482709648642,0.6125654450261848,1
