wrist_ACC_1,wrist_ACC_2,wrist_ACC_3,wrist_BVP_1,wrist_EDA_1,wrist_TEMP_1,label
0.5200934786937963,0.5222811359184362,0.232044560818208,0.5106257349019672,0.6777293557733209,0.6173913043478301,1
0.5201442643584983,0.5213139544993225,0.23410693377729958,0.5268796475583807,0.67772935577332,0.6173913043477626,1
0.5199470486391488,0.5209725437840966,0.23225855627804137,0.5109699700649345,0.6756747646449798,0.6173913043478017,1
0.5186359577032116,0.5209543474784412,0.23084924133938206,0.49468525089154086,0.6797823417523409,0.6173913043477945,1
0.5180210899807647,0.5198823809237562,0.2277452136492179,0.49677783542397397,0.6736217786659616,0.6173913043478265,1
0.5162242381352581,0.5211728896258853,0.22917847409289793,0.525959880783181,0.6715687926869406,0.6173913043478017,1
0.5164657105888981,0.5197568357809055,0.22796278393355146,0.5091722487180749,0.6715687926869393,0.6173913043477803,1
0.5172447569336599,0.521275581093209,0.231381831489059,0.48677925222231727,0.671568792686939,0.634782608695641,1
0.5207372035933876,0.5196280141711622,0.23359701240309422,0.5132362261418297,0.6715687926869393,0.6347826086956267,1
0.5228358416099548,0.5216589112306634,0.2339393817407583,0.5305935928097768,0.6654082296005585,0.6347826086956196,1
0.5258377969186692,0.51991981351457,0.23623180292861712,0.5134111973911091,0.6654082296005589,0.6347826086956161,1
0.5268039150338839,0.5221911326339531,0.23620704278888266,0.518550993328835,0.665408229600558,0.634782608695609,1
0.5262607531640494,0.5187724656219401,0.23555581111835905,0.5285897172929707,0.6654082296005591,0.6347826086956339,1
0.5258858369918197,0.5214626621086211,0.23646786436600298,0.5259722937901766,0.6633552436215381,0.6347826086956516,1
0.5259424806841466,0.520494192667122,0.23554402227454257,0.5144031088677492,0.6613022576425168,0.6347826086956196,1
0.5261875564179614,0.520769022821607,0.23512903031472238,0.515703722860867,0.6592476665141779,0.634782608695641,1
0.5236025290277971,0.5201316293567392,0.23525205192220505,0.5296037170464978,0.6613022576425157,0.6347826086955841,1
0.5227501590025572,0.5209657592977309,0.2356132230360647,0.5122952165757262,0.6592476665141781,0.6347826086956694,1
0.5227289506180101,0.5219677001592223,0.23433008650770748,0.49776279952119307,0.6551416945561362,0.6347826086956339,1
0.5225591886006434,0.523041481478591,0.2354940112571609,0.5199445725344628,0.6551416945561358,0.6347826086956339,1
0.5227995455268994,0.5208788576950796,0.23258110439433294,0.5301671064961099,0.6530887085771159,0.6347826086956267,1
0.5229628301870437,0.5207685578541087,0.23584668567275147,0.504605951798684,0.6551416945561356,0.6347826086955983,1
0.5245366567673347,0.5202246691270473,0.23396301173672562,0.5108958491058594,0.6530887085771143,0.6347826086956019,1
0.5230486463988504,0.5207057080469911,0.23561529734692588,0.5317851821882466,0.6510341174487756,0.6347826086956019,1
0.5242741772993843,0.520344444100963,0.2329548921596652,0.5179849635558297,0.6510341174487754,0.6347826086956161,1
0.5224785328230122,0.5205559400868358,0.23693119452302946,0.4956002481303295,0.6489811314697561,0.6347826086956658,1
0.5255042642827908,0.5205215068125694,0.23106442174207104,0.5232751712443442,0.6469281454907335,0.6347826086956196,1
0.5202638184169711,0.5200884784021524,0.24030536922256657,0.5307838641661321,0.6428205683833742,0.6521739130434909,1
0.5061580471617447,0.5084407256114797,0.22824414625926126,0.5091802870453056,0.6469281454907344,0.6521739130434625,1
0.4753256670533835,0.45948117295811164,0.1990010018227723,0.4928593518581672,0.6407675824043536,0.6521739130434803,1
0.47726916064434066,0.4543220062314587,0.21354994067122074,0.5269130531325426,0.6469281454907351,0.652173913043498,1
0.46797956533635854,0.45455100088570827,0.20904146094667503,0.534386534726811,0.642820568383374,0.634782608695641,1
0.48220795193791,0.4485025560626503,0.22092213114285714,0.5236861734341517,0.6448751595117127,0.6347826086956196,1
0.4875002381746173,0.46355659011048345,0.21533732116673815,0.49342051985339386,0.6428205683833738,0.6347826086956516,1
0.4848553053705451,0.45327920971239877,0.22222419923623232,0.5087615676997952,0.6366616104463119,0.6347826086956196,1
0.4894180333023984,0.4581456579126783,0.22152096070342014,0.5060143748351073,0.636661610446312,0.6521739130434305,1
0.48781376910802476,0.4478962335220259,0.22098012730867572,0.4968939517375075,0.6325540333389513,0.6521739130434625,1
0.48719711547115085,0.4488678941710302,0.22299085935418578,0.45269534251146437,0.6305010473599313,0.6521739130434732,1
0.4856841996822914,0.4478705543256248,0.21804147342541536,0.5158504536538562,0.6243404842735502,0.6521739130434625,1
0.48543563888111774,0.452548967710897,0.21614522350533627,0.566249220634535,0.62639347025257,0.6347826086956019,1
0.48706753191918084,0.44976758769258135,0.22244949673042486,0.5042567471659085,0.6222874982945292,0.6347826086956161,1
0.484530690773749,0.4550041939883074,0.21542078596768288,0.5657291012928701,0.6263934702525699,0.6347826086956196,1
0.4854623399160466,0.4509661092943708,0.22120278202414068,0.5075840724455654,0.6222874982945292,0.6347826086956587,1
0.48531804082264074,0.45460321752493205,0.21893843366787613,0.4781822698233851,0.6243404842735489,0.6521739130434305,1
0.4864141068466482,0.45063127190679236,0.2205921545937493,0.5462222392627845,0.6202345123155081,0.6521739130434554,1
0.49034188583913296,0.4493416886604813,0.2217643019833448,0.5166806737220883,0.6222874982945299,0.6521739130434483,1
0.4906838287542221,0.4462715250182062,0.22721411641191802,0.5013690910166441,0.6222874982945289,0.6521739130434483,1
0.4886308242153288,0.4490268275021161,0.22070560326474187,0.552665302217572,0.6181799211871687,0.6347826086956196,1
0.4870539632538299,0.4454571616183477,0.22326432626522913,0.5303384402471462,0.6202345123155077,0.6347826086955983,1
0.4901244628340171,0.45246626036640214,0.22090343220591946,0.5315737284636401,0.6140739492291273,0.6347826086956339,1
0.4871249644626414,0.4503473585940297,0.2239232136366427,0.557124100366485,0.616126935208147,0.6347826086956019,1
0.4898204585646935,0.4527300205085357,0.2208489440997457,0.47778622629533946,0.6140739492291275,0.6521739130434412,1
0.4886137918169291,0.44675405312381045,0.2230638437209233,0.4771294604063677,0.6140739492291277,0.6521739130434661,1
0.4881851295438485,0.4530212593400442,0.22100555174790865,0.5382779398959109,0.6058604001637248,0.6521739130434234,1
0.48759926224977335,0.4488068413476374,0.22295264183023367,0.5284828789788382,0.6099663721217664,0.6521739130434128,1
0.4895436371717532,0.4495350258037608,0.22109921267101207,0.5099686026078246,0.6140739492291263,0.6521739130433915,1
0.48550301232454285,0.4465568610307151,0.22287101920828833,0.46950918983177486,0.6099663721217664,0.6521739130434625,1
0.4869491282782944,0.4475949774242105,0.2210877373572182,0.5259431179341079,0.6120209632501075,0.6521739130434625,1
0.4864024330649769,0.4491934547235209,0.22094627213033075,0.5428599665878543,0.6099663721217659,0.6521739130434305,1
0.4852444904900144,0.45450817823894296,0.21763996927714335,0.5240447943793739,0.607913386142746,0.6521739130434412,1
0.4848642235486643,0.44983596070247733,0.21940488622274112,0.4954257511725685,0.6038074141847056,0.6521739130434483,1
0.4851548419096391,0.4531550585604478,0.21981726073527325,0.4907553961583448,0.603807414184704,0.6521739130434554,1
0.4858052975690882,0.4500277671815053,0.22259026191823567,0.5322785622465047,0.5935392739909625,0.6521739130434234,1
0.4852527780238859,0.4528345993668904,0.21714619053115525,0.5293128274538339,0.6038074141847045,0.6521739130434874,1
0.48579442548279395,0.4479642301477881,0.2193719755956054,0.5078189682612724,0.6038074141847045,0.6521739130434803,1
0.48521680524085475,0.4483685361358312,0.220649261330579,0.49359706153729416,0.5996998370773449,0.6521739130434412,1
0.48590825993118614,0.4449393879698867,0.22207939054979614,0.5263285369009264,0.5996998370773443,0.6521739130434625,1
0.48458971747624724,0.4462014648385143,0.22103787091584287,0.5294296977951627,0.5996998370773438,0.6521739130434554,1
0.48526129667473505,0.4416098562878842,0.22297422475403145,0.49682886027249157,0.6017528230563651,0.6521739130434661,1
0.4855010894503923,0.44499692972214044,0.22069871260947727,0.4967297310270929,0.5996998370773436,0.6521739130434412,1
0.48560922937113216,0.4431356946548194,0.22231753877299637,0.5260801813136533,0.5955938651193039,0.6521739130434803,1
0.48539785116645884,0.44597049372156805,0.22081517164400366,0.5219330290983283,0.5955938651193019,0.6521739130434234,1
0.4856643409768976,0.4439802699585511,0.2215877015442672,0.4941047467380033,0.5955938651193023,0.6521739130434483,1
0.4853609522593295,0.44381476789349844,0.22135469214170378,0.5052763110897748,0.5976468510983239,0.6521739130434625,1
0.48569210933698603,0.44342363098466775,0.22264879165494966,0.5362733760930299,0.5955938651193021,0.6521739130434376,1
0.48533907125637576,0.44442653508588703,0.22134369792177794,0.5238485457343446,0.5935392739909636,0.6521739130434803,1
0.4857081615263018,0.44663123426834317,0.22268473128385757,0.49694181773525103,0.593539273990964,0.6521739130434803,1
0.48533450850973603,0.4497913616737257,0.22129321182080186,0.5067467858591097,0.591486288011943,0.6521739130434412,1
0.4856617649563828,0.4455214913976464,0.2227618562978828,0.5346796928791091,0.5935392739909628,0.6521739130434661,1
0.48428002240709556,0.4462290667757639,0.21901777382866622,0.5198719492665526,0.5914862880119431,0.6695652173913018,1
0.48602431268670865,0.4423484361670137,0.2200640033085825,0.49842399204501264,0.5894333020329228,0.669565217391277,1
0.48465608925984793,0.44417970464079987,0.2213951799260097,0.5161810361326669,0.5873803160539004,0.6695652173912592,1
0.485162891547369,0.44214811531273646,0.2225217385360836,0.5463596174734623,0.5832727389465407,0.6695652173913018,1
0.48547847466354466,0.44424641181129965,0.21938473374331324,0.5050252838824727,0.585325724925562,0.6695652173912805,1
0.48564263436145083,0.4421093208505949,0.22226838853275177,0.4871437524487464,0.5832727389465402,0.669565217391277,1
0.48536228268128057,0.4442757842432999,0.2208224761697163,0.5242227355468592,0.5873803160539012,0.6695652173912627,1
0.4857002172666548,0.44208271695532775,0.22236638947105686,0.53460824477239,0.5832727389465411,0.6695652173912627,1
0.48532512407600703,0.4455106235581041,0.22053589131974272,0.49568323102889333,0.5832727389465413,0.6521739130434625,1
0.48572827218347836,0.4420556900393432,0.21960643067092822,0.49350971644907105,0.5832727389465399,0.6521739130434376,1
0.4853012907438544,0.4443107207014996,0.2212823289141702,0.539543080190386,0.5812197529675193,0.6521739130434412,1
0.48575083007971165,0.4429978518826436,0.22253521574218577,0.5338508077209658,0.5812197529675215,0.6521739130434803,1
0.4852772702333632,0.4450616710458972,0.22147748137618528,0.5110421164329371,0.5791667669884986,0.6521739130434234,1
0.4857804190520104,0.4440845924650907,0.22255263801092873,0.480796673511564,0.5832727389465402,0.6521739130434554,1
0.4852328343386988,0.44486631115770614,0.22141060639113674,0.5275954162048357,0.5771121758601587,0.6521739130434163,1
0.48587184711519893,0.4428751500656618,0.22270812639380239,0.5364572821427531,0.5812197529675198,0.6521739130434661,1
0.484814560161294,0.4438966614240117,0.22001567770136882,0.5222005643411565,0.5750591898811389,0.6695652173912627,1
0.4846932856931263,0.4423722499450865,0.22211822574417084,0.4930149701297082,0.5771121758601598,0.6695652173912805,1
0.48420165695233863,0.4440369787358739,0.22173856012602655,0.5040029226188065,0.575059189881138,0.6695652173912627,1
0.48530955480770654,0.44442411526849546,0.22037302037033135,0.5402383711817343,0.5730062039021182,0.6695652173912805,1
0.48552751338097355,0.44640125060382885,0.21876760497778602,0.52940799195185,0.5709532179230971,0.669565217391277,1
0.48551483620335745,0.4424312639482686,0.22068623604326348,0.4982952453709386,0.5730062039021194,0.6695652173913018,1
0.485628208149395,0.44688897320006693,0.21964170919379672,0.5132848344844362,0.5730062039021168,0.6695652173912805,1
0.48419959374092947,0.4453754837133914,0.21828310153475933,0.5295680547590567,0.5688986267947572,0.6695652173913054,1
0.48256747974352054,0.44727488587973585,0.21765247718415398,0.5138963466031199,0.5668456408157372,0.6521739130434412,1
0.48481646218245367,0.4429660650988294,0.21884690618072067,0.48255589309933944,0.5688986267947569,0.6521739130434305,1
0.48448184457477494,0.4476281015131889,0.21867339631975302,0.5172464246161317,0.5668456408157372,0.6521739130434412,1
0.48590203830320833,0.44521714395692746,0.22075844313687626,0.5398534301475645,0.5668456408157362,0.6521739130434305,1
0.4852256955171814,0.4491852394436423,0.22055487286449604,0.5201456186832204,0.5668456408157377,0.6695652173912947,1
0.485752215188445,0.4464887761984788,0.21997409281016356,0.48824948205621554,0.5688986267947572,0.669565217391277,1
0.48539146497237695,0.44474894386456193,0.22134555820295482,0.4960934636670409,0.5565791057713141,0.669565217391277,1
0.4850936347212984,0.44353920695018423,0.2216926424168003,0.5379841651908897,0.5668456408157372,0.6695652173912805,1
0.4847689733531271,0.4477304884575946,0.2204741126268298,0.53137239717123,0.5647926548367156,0.6347826086956196,1
0.4859792485522145,0.44306391559597336,0.22114295959183372,0.5120645527315222,0.5647926548367163,0.6347826086956445,1
0.4851536976867292,0.4437046907053199,0.22115939401741563,0.4986996436980534,0.5627396688576957,0.6347826086956339,1
0.4858080241199193,0.4425936455242836,0.22135864954640144,0.5326264672474662,0.5627396688576956,0.634782608695641,1
0.4853773600219836,0.44377414232328594,0.22132352301096125,0.5286558969635338,0.5586320917503357,0.6695652173913018,1
0.4847153333589711,0.442764875082183,0.22122466310207195,0.4941131323995148,0.5586320917503333,0.6695652173912698,1
0.4839600797026977,0.44510094848948356,0.22038511984776105,0.4994749680945791,0.5565791057713141,0.6695652173912698,1
0.4855148722453755,0.44203916200789806,0.2204873456005093,0.5428043292504781,0.558632091750335,0.6695652173912698,1
0.48415003462792605,0.44597289147051977,0.2189481620609412,0.525802307476141,0.5565791057713138,0.6521739130434234,1
0.48568957635421195,0.445608290163642,0.2196736432218428,0.49885242850327777,0.5606850777293575,0.6521739130434803,1
0.483334419914101,0.4453160649260034,0.21845910825255055,0.4884122173600913,0.5565791057713138,0.6521739130434163,1
0.4857296209035583,0.4422767349886034,0.2205508326965671,0.5378173289709244,0.5586320917503353,0.6521739130434661,1
0.4839019055524697,0.4465595793924249,0.22231611504198773,0.5309471234118203,0.5586320917503353,0.6695652173912876,1
0.484182826737091,0.4464971059754006,0.21908123811630503,0.5135592611377046,0.560685077729356,0.6695652173912805,1
0.4836935337901751,0.44668824139077207,0.21981362246377023,0.4810351494602792,0.5463109655775739,0.6695652173912627,1
0.4854020509040633,0.4445078203690853,0.22046381155539735,0.5196444138677606,0.5545245146429737,0.6695652173912627,1
0.48560484064895004,0.4461018514225841,0.2189916663529684,0.5308703137913899,0.554524514642974,0.6521739130434625,1
0.48316599981778396,0.44316625122519276,0.22088190357678472,0.516398308620951,0.5483655567059129,0.6521739130434625,1
0.4847423420971295,0.44385945588918535,0.2193209118534677,0.500228636791219,0.5524715286639537,0.6521739130434128,1
0.48584157066615064,0.4434849833799855,0.22280442806048667,0.5289422311138374,0.5504185426849335,0.6521739130434483,1
0.48546786151029653,0.44444783756380113,0.22028270009509954,0.532115495353648,0.5524715286639535,0.6695652173912805,1
0.48455725886950285,0.4431256088684618,0.22020076450480114,0.49675505252180396,0.548365556705912,0.6695652173913018,1
0.4841885071101355,0.4456598238765769,0.21925739368894137,0.5074322255462355,0.5422049936195323,0.6695652173912805,1
0.48561422521514597,0.4470083931912493,0.21922963333515294,0.5421454632953633,0.5504185426849331,0.6695652173912805,1
0.48439416462653695,0.45068739468275976,0.21897781885187267,0.5222416712967486,0.5463109655775724,0.6521739130434661,1
0.48471519642914673,0.45002322103568804,0.220130458823528,0.4915591703614842,0.5463109655775739,0.6521739130434803,1
0.48439245295399946,0.45181174050647743,0.21853133520255746,0.5028160085866007,0.5422049936195318,0.6521739130434625,1
0.48642781113441247,0.44943998553178754,0.22060634880067015,0.5344755955527383,0.5463109655775722,0.6521739130434305,1
0.4840574603575083,0.44771495821503215,0.21862501409502805,0.5111024813542658,0.5442579795985529,0.6521739130434874,1
0.484977488940758,0.44481951265467606,0.22013194386918994,0.4943983396337099,0.5463109655775731,0.6521739130434483,1
0.484868554073171,0.44453449414579105,0.2213448360537556,0.5084585920481196,0.5422049936195316,0.6521739130434412,1
0.4861328923717583,0.44316804992966435,0.22182898253578565,0.5488715708119205,0.5401520076405112,0.6521739130434625,1
0.48390404615960814,0.44691537090389344,0.22023147686392913,0.514008498959839,0.5422049936195311,0.6521739130434057,1
0.4846216130018913,0.44254612822706163,0.2227623328350931,0.4933309742873268,0.5401520076405105,0.6521739130434234,1
0.48242021222320075,0.4438000854224422,0.22069746271869717,0.5267216176310335,0.5442579795985534,0.6521739130434803,1
0.4866023327140626,0.44259986430427856,0.22226464055117784,0.5391683581926422,0.5401520076405111,0.6521739130434909,1
0.483621317038633,0.4437456321376926,0.21914993958669515,0.4994440392833594,0.5401520076405109,0.6521739130434625,1
0.48341880657846004,0.44265307209682003,0.2203988135404109,0.4963419057077646,0.5257778954887284,0.6521739130434803,1
0.48484851113690186,0.4437112200069193,0.21895919283823106,0.5287642629751645,0.5380974165121712,0.6521739130434625,1
0.4862829564965244,0.44432815247901025,0.2224136836132095,0.5320492372287432,0.5360444305331504,0.6521739130434625,1
0.4840981528711855,0.44571043997515963,0.21884361919176665,0.503819436430574,0.53604443053315,0.6695652173912947,1
0.4851753601160028,0.4491021614820908,0.22211855513689432,0.4955217790401433,0.5401520076405111,0.6695652173912805,1
0.47840637537008834,0.45402851011145445,0.21609906513787958,0.5288559466436421,0.5380974165121698,0.6695652173912627,1
0.4781369994027702,0.45794674228939203,0.21145181242120098,0.526128616546893,0.53809741651217,0.669565217391245,1
0.47842014757578855,0.4638496402764843,0.21206607337454753,0.5034764241366942,0.5298838674467693,0.6695652173912947,1
0.47786917280607455,0.46186046384717844,0.20951680487770752,0.4908636672810582,0.5360444305331498,0.6695652173912876,1
0.47831217960668915,0.46483421083433196,0.21081812019753543,0.5282142118592661,0.5339914445541295,0.6695652173912627,1
0.4790716017928325,0.46217970198973446,0.21015626335412735,0.5291481834092354,0.5319384585751085,0.6695652173912592,1
0.4783962384264703,0.46731060523701107,0.2099731272522775,0.495586142470056,0.5319384585751088,0.669565217391245,1
0.4810120181697307,0.46376702002434,0.21181489670318354,0.5135429629210058,0.5319384585751095,0.6695652173912805,1
0.4802062138597779,0.4636569584192997,0.21326098038743407,0.535460556331514,0.527830881467747,0.6695652173912592,1
0.47964134442750117,0.4622845773998061,0.21261498829212255,0.5063477774155402,0.5278308814677489,0.6695652173913196,1
0.4820446922877806,0.4688832488978326,0.21311988978367086,0.48512685869514494,0.5298838674467701,0.6695652173913125,1
0.47876392153421,0.4715257381920529,0.21227634369735393,0.5396578185219406,0.5298838674467686,0.669565217391277,1
0.47513445751752204,0.4770097962775788,0.20586469228774923,0.5340643261125773,0.5278308814677488,0.6695652173912592,1
0.4748085819396719,0.4814644473462577,0.20244016205940918,0.4948441769213347,0.5278308814677489,0.6695652173913018,1
0.473075269250137,0.4830742109929689,0.20537585935256236,0.4917365000578755,0.5257778954887271,0.6521739130434305,1
0.4776540981856051,0.4820191656657478,0.2035205176709039,0.5425314106119008,0.5278308814677484,0.6521739130434483,1
0.47432331637741365,0.4820647246082596,0.20767497043031147,0.5161304000188401,0.5237249095097085,0.6521739130434909,1
0.47795295822948003,0.48149255056152185,0.20731079760922017,0.4905900332226392,0.5216703183813678,0.6521739130434483,1
0.4763323514300246,0.4822455303031722,0.20628455378478378,0.5087044079864359,0.5216703183813673,0.6695652173912627,1
0.47810071121116615,0.4813938152905009,0.20725930971425333,0.5554936772331525,0.5257778954887282,0.6695652173912379,1
0.47728989870898886,0.48230734293320043,0.20807712075254448,0.518920562196799,0.5216703183813677,0.6695652173913018,1
0.47856540871679454,0.48135333430338817,0.20734486363443966,0.5056003505396579,0.517564346423325,0.669565217391245,1
0.4773057951838662,0.48233333683905,0.20578431819889564,0.5407604802764294,0.5216703183813678,0.6695652173913054,1
0.4784344535951949,0.48133873729778187,0.2064929945923708,0.5277862288263824,0.5196173324023464,0.6695652173912627,1
0.47544773905126936,0.4823373541886883,0.20590684606830345,0.4889509365386115,0.5216703183813668,0.669565217391245,1
0.47844572205430025,0.4813466779607725,0.20871609801957058,0.5165752455007596,0.5237249095097078,0.6695652173912947,1
0.47630948246123783,0.4823124866349976,0.20847647048207185,0.5411736949484336,0.5196173324023464,0.6695652173912627,1
0.478814642323968,0.48140249427706927,0.20729128514076256,0.5208350865528674,0.5196173324023478,0.6695652173912805,1
0.47713133367709104,0.4821765353912223,0.20698009219427538,0.48155724960101404,0.5175643464233255,0.6695652173912805,1
0.4785742440919889,0.4820087790670981,0.20550295441165672,0.5106898502911575,0.5155113604443049,0.6695652173912592,1
0.47564186128812225,0.4832093802237697,0.20673591972786448,0.5349458781415283,0.5093507973579247,0.7043478260869556,1
0.478154820756754,0.4809770444143669,0.2091666932607424,0.5186592103642089,0.5175643464233253,0.7043478260869378,1
0.47630339372380215,0.4825997152517085,0.20610889456653458,0.503246947788631,0.5134567693159666,0.7043478260869236,1
0.47775141431527357,0.48111880043420074,0.20795393541693385,0.519780502923802,0.5155113604443052,0.7043478260869378,1
0.4762724276652358,0.4825353917459265,0.20653483835359054,0.5189901887242431,0.5155113604443055,0.6521739130434625,1
0.47876492756919153,0.481155313899021,0.20732352000939508,0.4938165976045383,0.5155113604443056,0.6521739130434625,1
0.4771189572692336,0.48251201010201594,0.20815411815802998,0.5142164643195936,0.5175643464233256,0.6521739130434305,1
0.4787000889006273,0.4811715155753864,0.2086978425122315,0.5369202262788444,0.5155113604443067,0.6521739130434909,1
0.4771511189562957,0.4825001097829663,0.20697184674171792,0.5136295663939849,0.5175643464233259,0.7043478260869556,1
0.47867339179561363,0.48118067705706336,0.2082157872307956,0.4868609622331151,0.5114037833369453,0.7043478260869627,1
0.4771869782668523,0.4824927654234242,0.20904613695170116,0.5134246512215722,0.5134567693159662,0.7043478260869556,1
0.4785816554992536,0.4811867844477722,0.20750141551768564,0.5305033525214875,0.5114037833369458,0.7043478260869307,1
0.4761952258377775,0.4824875092478998,0.20761349518922945,0.5041194656847336,0.5134567693159662,0.6869565217391234,1
0.47882531676689855,0.4811914592880602,0.20776812599834438,0.4900983926600859,0.5134567693159653,0.6869565217390985,1
0.4770512786823833,0.4824832168324187,0.2087420047510632,0.5314165928676365,0.5072978113789037,0.6869565217390736,1
0.47879020661075766,0.4811955246431221,0.20820493387237726,0.5414822668763084,0.507297811378904,0.6869565217391234,1
0.4769876006337198,0.48247924870646486,0.20717679781728576,0.49809527377764445,0.507297811378904,0.7043478260869236,1
0.47778406952621666,0.4811995128223576,0.2097361167483186,0.5113276087258809,0.5114037833369448,0.7043478260869414,1
0.47724061391491346,0.48247512513747376,0.20816859798870851,0.538815679138419,0.5072978113789026,0.704347826086881,1
0.4786290452760211,0.48120389528366275,0.20902607557401787,0.5118701916201854,0.5052432202505647,0.7043478260869307,1
0.47723867124072106,0.4824703407687623,0.2082981042091468,0.4858593980845083,0.501137248292522,0.6869565217390843,1
0.4777871487557007,0.4812092587385395,0.20757476715719714,0.5296646080178151,0.5031902342715439,0.6869565217391163,1
0.4769853514946386,0.48246416584990925,0.2086026488904243,0.5368811237614437,0.5011372482925242,0.6869565217391482,1
0.4787874002301351,0.48121656536986235,0.20840402440568362,0.49914566714090947,0.5031902342715426,0.6869565217390843,1
0.4770692618765785,0.48245526527497457,0.20917816125805977,0.48809825307122495,0.5052432202505633,0.6869565217390985,1
0.47875743897647605,0.48122775938228357,0.20909072981412863,0.5343641584418154,0.5052432202505642,0.6869565217391091,1
0.4770969518286893,0.4824406617116562,0.20869144392519962,0.5320055212666899,0.5052432202505627,0.6869565217390914,1
0.47869711230862333,0.48124767096944654,0.20719798577744292,0.4999019313192267,0.5031902342715441,0.6869565217391091,1
0.4773803419207293,0.48241193505578583,0.20885417405682533,0.4936258064145844,0.5052432202505623,0.6869565217390523,1
0.47972579256168535,0.4812924742805821,0.20917975071045797,0.5442517797014267,0.5031902342715437,0.6869565217391234,1
0.47578615253963896,0.48233318528935476,0.20900579877597752,0.5376146056633475,0.49292369922712076,0.6869565217391411,1
0.4789981304153146,0.48146481927606444,0.20917339664733797,0.49606042583036425,0.5011372482925219,0.686956521739102,1
0.4765177136574893,0.4816228962656103,0.2088880258070117,0.5097074857677463,0.49908426231350256,0.6695652173912805,1
0.4793181765330571,0.47914631518248996,0.20823854285665216,0.5370970507520952,0.49908426231350145,0.669565217391277,1
0.4803956260339739,0.48303562149518964,0.2096905741365102,0.510032645085983,0.4970296711851635,0.6695652173913018,1
0.480652026120046,0.47975586076538607,0.2095677492827494,0.49129324729878365,0.4970296711851617,0.6695652173912698,1
0.4789548159199275,0.4825131490538305,0.20891775192866874,0.5267034861425146,0.4970296711851635,0.6869565217391234,1
0.4806711966328522,0.4811054603745313,0.2091924991761681,0.5363517127800678,0.4970296711851633,0.6869565217391234,1
0.48112450173025234,0.4825812134858596,0.20899633204811596,0.5099230361426133,0.4990842623135008,0.6869565217390914,1
0.47887755999931225,0.4810915932702833,0.2091585228281745,0.4830757097424962,0.5011372482925226,0.686956521739102,1
0.4780270753333091,0.4825891707310996,0.20901543879311568,0.5168228493895882,0.499084262313502,0.7043478260869414,1
0.4829662045860925,0.4810819276104767,0.20914610539674555,0.5335389730547395,0.49908426231350145,0.7043478260869378,1
0.47902613359080326,0.4826026081928172,0.20902423889720434,0.5085783623776323,0.49292369922712087,0.7043478260869414,1
0.479844111430187,0.4810646059723805,0.20913958268128585,0.49872071060334516,0.49702967118516206,0.7043478260869414,1
0.48017384362878246,0.4826195307233184,0.20902908339235465,0.5339797287250493,0.49087071324809994,0.6695652173912627,1
0.4825378158488056,0.4810789616893697,0.20913621258259674,0.5339855940029343,0.494976685206142,0.6695652173913196,1
0.4793870850808788,0.4820846995901863,0.20903090021200232,0.49072609698924313,0.4949766852061408,0.6695652173912947,1
0.48078671314816424,0.4794704203663904,0.20913632209891725,0.5109977941691582,0.49292369922712176,0.6695652173913196,1
0.4797255939947499,0.4801184217659149,0.2090280572940203,0.5322146588903529,0.4929236992271213,0.6869565217390985,1
0.48083499787681094,0.47901525003437234,0.2091435296340146,0.5015832220254225,0.49087071324809994,0.686956521739134,1
0.4775330788636938,0.48022420690609424,0.20901293373612279,0.48369875266650136,0.49292369922712076,0.6869565217391269,1
0.4824304017674562,0.4820260641479571,0.2091758291448349,0.5352484115618034,0.49292369922712054,0.686956521739102,1
0.47860238937491684,0.48191546178221856,0.20892834741844557,0.5337800747757125,0.4929236992271213,0.6695652173912805,1
0.48008463870958984,0.48166437581809574,0.209818745108251,0.4943423390144975,0.49087071324810017,0.6695652173912876,1
0.4787677762536323,0.48204029818637606,0.20931626729784653,0.49279094894612446,0.4908707132480996,0.6695652173912805,1
0.4809023318875014,0.48166794532081675,0.20899499776957492,0.54437466644928,0.4888161221197618,0.6695652173913125,1
0.478464547966446,0.48181878181278737,0.2091118370206872,0.5263867335324963,0.4908707132480995,0.6869565217390985,1
0.48259080022000733,0.47831527875460145,0.20918384338578788,0.5010295624189068,0.4888161221197611,0.6869565217391234,1
0.4805250172860498,0.4801951482456718,0.21003459672921865,0.5202471237904001,0.4888161221197589,0.6869565217390665,1
0.48120273328399044,0.4806798602525956,0.2102441527068673,0.5461688095028412,0.4867631361407396,0.6869565217391589,1
0.47952682081768916,0.481506704207288,0.2094491762716451,0.4974411117545415,0.48676313614073907,0.686956521739102,1
0.4791344752062058,0.48093913678567257,0.20872462184416596,0.5008607687370856,0.49087071324810017,0.686956521739134,1
0.47847387726146773,0.4826059402462948,0.20978515249753,0.5328219854579443,0.48676313614073996,0.6869565217390914,1
0.48103919846243737,0.48023180950550026,0.21038459193612974,0.5275317124471024,0.4867631361407396,0.6869565217391234,1
0.4809411610378608,0.4801595150797062,0.208789834559734,0.49063248416776056,0.48265716418269744,0.7043478260869129,1
0.482895081488555,0.4806438832060468,0.209417577573127,0.5080498939362578,0.48676313614073996,0.70434782608692,1
0.47913996854952023,0.48275997861993303,0.21005382767077824,0.5361754013484314,0.4806025730543585,0.7043478260869236,1
0.48293107773924004,0.48098323311690294,0.20955005599659143,0.5158580058612482,0.4888161221197611,0.70434782608692,1
0.48106604697916866,0.4826756790196162,0.20903794138233556,0.4886909680901171,0.48265716418269844,0.7043478260869307,1
0.4807198429875792,0.4809859360084251,0.20903091088417275,0.5136912687525842,0.4826571641826988,0.7043478260869307,1
0.4806698368326584,0.4827730564000769,0.20985932167847465,0.5455373510763755,0.4826571641826981,0.7043478260869414,1
0.48144954818747465,0.4800437358399743,0.20919194004566788,0.5160870298208478,0.4806025730543586,0.7043478260869236,1
0.47953808948274423,0.48217579869942906,0.2090453446314552,0.4968486428152929,0.48265716418269866,0.6869565217391091,1
0.48238848795723077,0.481299120722838,0.2090944300588582,0.5255257228080691,0.4806025730543594,0.6869565217391589,1
0.48090881191409574,0.4824302084000136,0.20908834975660967,0.5203763431180489,0.4826571641826979,0.6869565217390914,1
0.48352837627256495,0.48122301786494304,0.20906656315158662,0.4909608611191727,0.47033603800993695,0.6869565217391163,1
0.47831847681988515,0.48246700819034194,0.20910939508229942,0.5120446138389391,0.4806025730543585,0.7043478260869129,1
0.48189079187886896,0.4812010562213246,0.20904934537033382,0.538394526844896,0.4662300660518961,0.7043478260869627,1
0.47981226241532127,0.48248204889861457,0.20912413692284465,0.5124445138758638,0.478549587075339,0.7043478260869627,1
0.48164604125834887,0.4811895841923298,0.2090364120309396,0.4848209625093657,0.48265716418269866,0.7043478260869378,1
0.4805504115260133,0.4824916284196241,0.20913556907075315,0.5158149572095968,0.48060257305435916,0.6869565217390914,1
0.4813877117201716,0.48118094501158143,0.20902642077968803,0.5354153061961064,0.48265716418269966,0.6869565217391411,1
0.4786078636113955,0.4824999366436357,0.20914394309341583,0.5076284282823917,0.46828305203091636,0.686956521739134,1
0.4802395614507089,0.4811725241218169,0.2090201586694671,0.49919355193528125,0.4806025730543577,0.6869565217390772,1
0.47919224708121844,0.4825088431506259,0.20914704106354615,0.5422880623607415,0.47854958707533846,0.686956521739102,1
0.4806550839728071,0.4811627681217784,0.2090224711501264,0.537877710802815,0.47854958707533957,0.686956521739102,1
0.4789496089311449,0.48251985499854244,0.20913392871881553,0.48732455064238034,0.47444361511729594,0.6869565217391234,1
0.4813235144642152,0.48114999421528315,0.20906297351486758,0.5080954053671458,0.4744436151172968,0.6869565217391411,1
0.47844835929102725,0.48253507752437785,0.2089726259058845,0.5386285328304908,0.4744436151172964,0.7043478260869307,1
0.478871122663454,0.4811313243954368,0.20821747640038146,0.5081850765031424,0.4744436151172954,0.7043478260868739,1
0.47861653639208146,0.48255874582241054,0.2093733395790855,0.48531889633041525,0.47444361511729605,0.7043478260869236,1
0.4814964246443034,0.48110007052193016,0.2088567684541361,0.5320715527332236,0.47649660109631775,0.7043478260869627,1
0.47890749900098306,0.48260229381361397,0.20926371636380853,0.5352571416134074,0.47238902398895666,0.686956521739102,1
0.4810899497289156,0.4810345789241549,0.20958898474415077,0.4998634906174702,0.4723890239889562,0.6869565217390843,1
0.4784981736605326,0.4827134039138361,0.20950835827057063,0.49245302577652555,0.4744436151172954,0.6869565217391163,1
0.482179144353862,0.4807975214792436,0.20865597017715531,0.5382498073471753,0.4744436151172964,0.6869565217390914,1
0.4777256624721019,0.4837758247401031,0.20837871675929143,0.5289777578517275,0.4723890239889562,0.6869565217390665,1
0.4811011993740685,0.4828659525291557,0.2100085724883185,0.5029272579306174,0.4764966010963173,0.6869565217390914,1
0.4788006982004087,0.48203106087518577,0.20824050117010706,0.510123431395467,0.4744436151172964,0.6869565217391234,1
0.4813999912224757,0.4814652569255138,0.20910549482457502,0.5405242519177063,0.4682830520309146,0.6869565217390914,1
0.4776573336949238,0.4822864315465947,0.2091515168088639,0.5031138738475494,0.47238902398895755,0.7043478260869485,1
0.4819920018764762,0.4813491148336888,0.20897151961021027,0.49344133765961007,0.4703360380099355,0.7043478260869307,1
0.47874914699000937,0.48235363656727526,0.20922319316330829,0.5335049291163169,0.4703360380099366,0.7043478260869485,1
0.4804384884681522,0.48130541296009954,0.20892227621497883,0.5361373608481436,0.4703360380099362,0.7043478260869236,1
0.4802507830982352,0.4823837517443754,0.20926196501068778,0.4966061780755944,0.47033603800993673,0.7043478260869414,1
0.48273124234574394,0.48128458054340195,0.2088888543110866,0.49517963613528587,0.47238902398895577,0.7043478260868881,1
0.4789867759062879,0.4823966492156557,0.20929278104557686,0.5262462963567267,0.4662300660518943,0.7043478260869236,1
0.4818794524178044,0.4812812458797107,0.20885877996032154,0.5246927651477663,0.4682830520309157,0.70434782608692,1
0.477845335468295,0.4823819120455646,0.2093238842623797,0.48895975588979246,0.46417547492355504,0.7043478260869414,1
0.4823164075625178,0.4813541490910026,0.20882405787493596,0.5086069981567543,0.4703360380099362,0.70434782608692,1
0.480757147526254,0.4817411396597502,0.20936816529835045,0.5520243122823213,0.4559619258581534,0.7043478260869236,1
0.48194740483249066,0.4799029194442904,0.2095543243153356,0.5139054642820473,0.4662300660518949,0.70434782608692,1
0.48105976267745776,0.48189022860627906,0.21012939360246308,0.48670540104437826,0.46623006605189454,0.6869565217390914,1
0.4833485031548501,0.4813533449014139,0.2089276243887947,0.525711023406852,0.4662300660518943,0.686956521739102,1
0.4817628196841057,0.4823921825918105,0.20930499378295514,0.5351767971830831,0.46417547492355415,0.6869565217390914,1
0.48615547689246374,0.48005051427134526,0.20884648471729733,0.5054844335197324,0.4641754749235547,0.686956521739102,1
0.48079441616877594,0.4824323689679162,0.21009501309310963,0.5058076029982216,0.4662300660518943,0.704347826086881,1
0.48385991009194185,0.4812352099531768,0.2092774496024986,0.5343887834677973,0.4621224889445349,0.7043478260869627,1
0.48001799815070223,0.4824483519473828,0.21166050198787084,0.5113942985404598,0.46623006605189454,0.7043478260869129,1
0.48586074115117994,0.4812228725825205,0.2103059757823914,0.4744433891869666,0.4621224889445338,0.70434782608692,1
0.4796594828926828,0.48245863337588757,0.2091184857867972,0.5210756737627825,0.4621224889445332,0.686956521739102,1
0.4839845723215539,0.48121383607302276,0.2088868288276181,0.5676312005362212,0.46212248894453345,0.6869565217391411,1
0.4796101863294785,0.48246688271245075,0.20934619957112416,0.5100396902260282,0.4600695029655143,0.686956521739102,1
0.48363322319386004,0.48120609397503444,0.20877951071818024,0.49410008545106054,0.46006950296551374,0.686956521739102,1
0.48108038801771824,0.4824743005591123,0.20941878901246191,0.5260864877399833,0.4580165169864927,0.686956521739102,1
0.48298666811311197,0.4811988737978907,0.2087192482802192,0.5226036138357465,0.4621224889445341,0.6869565217391091,1
0.48002539642810793,0.48248141488453833,0.20947647820379023,0.48289133691821534,0.462122488944534,0.6869565217391234,1
0.4833491400044574,0.4811917962810898,0.20865658971212953,0.5232328910593093,0.4600695029655143,0.6869565217391234,1
0.4826454788430884,0.4824885084113455,0.2095558157914335,0.5356003099181212,0.4600695029655134,0.6869565217390914,1
0.48360406713173276,0.4811846471732383,0.20852623573349527,0.5020461461166734,0.45596192585815376,0.6869565217391163,1
0.4781025388579032,0.4824957393512015,0.20999907500688497,0.4917692014512501,0.455961925858154,0.6869565217391482,1
0.48102437414917976,0.4811773252129676,0.20917952057193667,0.5366365477683414,0.4559619258581532,0.6869565217390914,1
0.4796113734878169,0.48250313479399987,0.2093466944326044,0.52148800348245,0.4539089398791337,0.6869565217391269,1
0.4833866443288306,0.48116992168811595,0.20873319354911113,0.4965341322020566,0.45596192585815287,0.686956521739102,1
0.47711059579807624,0.4825103869575553,0.20948375522918428,0.514286979461111,0.4559619258581541,0.6869565217391234,1
0.48540150227020273,0.48116318139937797,0.20863866687664478,0.5508026453783463,0.4559619258581531,0.686956521739102,1
0.4794627681001896,0.4825157789622909,0.2095921960184462,0.5096029784481704,0.4559619258581534,0.7043478260869556,1
0.4829558196945616,0.48116127535100955,0.20785552017509734,0.4990556489190398,0.45596192585815487,0.7043478260869627,1
0.47564986649329355,0.482507574985237,0.20942848229102623,0.5256657261308955,0.4559619258581532,0.7043478260869378,1
0.4825952452680773,0.48121051604693543,0.20866374177298747,0.5230215480703995,0.4580165169864936,0.7043478260869733,1
0.4792219226943947,0.4814546681555226,0.20953315634995112,0.48650399420305696,0.45596192585815265,0.72173913043477,1
0.4841323943817959,0.4807797273887918,0.20861543331079035,0.5157319507639119,0.4559619258581541,0.7217391304348126,1
0.4769613326939005,0.4814677694704971,0.20956221461548574,0.5386476188777141,0.4539089398791343,0.7217391304347878,1
0.48397432811415253,0.4811933980340217,0.20859759459301774,0.5187425146444503,0.44980296792108954,0.7217391304347274,1
0.4768944886258317,0.48247138338598544,0.20959361221942252,0.48333248998441153,0.45390893987913306,0.7043478260869556,1
0.48478348561730644,0.4786166759701569,0.21036978467729445,0.520270453701697,0.45185595390011246,0.7043478260869485,1
0.4784839910051063,0.4824204319959141,0.2101741224727866,0.5316375058775525,0.4539089398791314,0.7043478260869129,1
0.4850234675787952,0.47829855389752374,0.21019979498488806,0.5059263123367564,0.4539089398791335,0.7043478260869378,1
0.4816051413582817,0.47916145232355745,0.2150871974037346,0.49543736570217534,0.45801651698649337,0.7043478260868987,1
0.4877459114197559,0.4818281874957398,0.21174112989242871,0.5457349769892501,0.4600695029655131,0.7043478260869236,1
0.4793952702487929,0.4821508708430575,0.2111177510695223,0.5392043983320508,0.4580165169864928,0.7043478260869058,1
0.48576720128735595,0.4814089647326436,0.2077333925538818,0.5173929574605972,0.45596192585815265,0.70434782608692,1
0.47875709171939673,0.48232928115178286,0.21026849171965356,0.5244791953713298,0.44980296792109187,0.7043478260869485,1
0.485576550121694,0.48130972526579785,0.20862973914798277,0.5021802741330217,0.45390893987913195,0.7043478260869236,1
0.47919930267966804,0.4823923832474387,0.2104410938127404,0.44464391098534406,0.44774837679275203,0.7043478260869414,1
0.4857247495454907,0.4812663592056574,0.20775394688691634,0.4829886092151113,0.4539089398791317,0.70434782608692,1
0.4790191345681686,0.48242356223694804,0.21047862496438557,0.5483843602234738,0.449802967921091,0.7043478260869414,1
0.4879670548638484,0.4812434779110142,0.20856389851909896,0.5374765924262286,0.45596192585815354,0.7043478260869627,1
0.4795342278820254,0.482440281105077,0.21033592316485705,0.48942479642386577,0.4539089398791325,0.7043478260869058,1
0.4859163563445784,0.48123173030404415,0.2077481380305412,0.5115205505841344,0.45185595390011135,0.7043478260869058,1
0.477732687931527,0.4824476841254929,0.210481416933941,0.5503975513322384,0.4518559539001119,0.7217391304347842,1
0.4860652763100033,0.48122842175840097,0.20762302878662015,0.5248960824877811,0.4498029679210901,0.7217391304347274,1
0.47749837382243454,0.4824468643674712,0.2106093562490109,0.4985681628506648,0.44774837679275137,0.7217391304347345,1
0.48665498229585513,0.48123364826714843,0.20748589923268307,0.533003103297164,0.44569539081372966,0.7217391304347274,1
0.4767227064351425,0.48243671272963606,0.21075938403145672,0.5422793301307495,0.45185595390011224,0.7217391304347629,1
0.4859695888961688,0.48124950602331296,0.20731887261546095,0.49075214390647076,0.4436424048347092,0.7217391304347522,1
0.47505149817634995,0.4824140557692277,0.21095100685210544,0.5039921546849064,0.4498029679210903,0.7217391304347522,1
0.48427962525502133,0.4812804483516452,0.207077147546248,0.5424139515729551,0.4477483767927517,0.7217391304347274,1
0.4754329272986286,0.48237282599054687,0.2118965581025697,0.5237047983165951,0.44569539081373044,0.7043478260869378,1
0.48669559846965416,0.4813346664684418,0.2070498493951452,0.4889701811902389,0.4498029679210912,0.7043478260869414,1
0.4731010783729006,0.4823019463654509,0.21131049078572722,0.5163556028736563,0.44774837679275203,0.7043478260869236,1
0.4872647687352195,0.481427268771398,0.20668708324088392,0.537248314873625,0.4518559539001119,0.7043478260869414,1
0.4734525872697548,0.4821805244681387,0.21165998520029872,0.5153534525963577,0.449802967921091,0.7043478260869236,1
0.4908865144586838,0.48158768532636415,0.20630376701230996,0.491893660590757,0.4498029679210904,0.7043478260868952,1
0.4714210514201631,0.48196611225703134,0.21209747904736576,0.5069706984946108,0.44980296792109153,0.7043478260869627,1
0.4926232853246817,0.48187900971713216,0.2057905929995238,0.5349304010879616,0.44980296792109165,0.7043478260869556,1
0.4693313497532595,0.48156118332094566,0.21271755520001134,0.5104005210592191,0.4477483767927506,0.7217391304347274,1
0.4940303546121987,0.48246028251350037,0.2050101278094847,0.5006430537554136,0.44569539081373133,0.7217391304347593,1
0.46527469983116243,0.4806849863351558,0.2137672423443321,0.5088215892160434,0.44774837679275226,0.7217391304347878,1
0.4988942794144049,0.48389771188440067,0.20339723976729962,0.5465077999088283,0.44364240483470985,0.7217391304347629,1
0.4572789331632299,0.4778393997133054,0.2176706429967738,0.5040864844114964,0.4436424048347102,0.7043478260869236,1
0.528543487342908,0.49829261603021946,0.24245063972377928,0.49559328826475907,0.4436424048347102,0.7043478260869627,1
0.49596699829337987,0.5867781555704588,0.23391986292083772,0.5209650295490436,0.445695390813731,0.7043478260869129,1
0.7964526998296569,0.6664073688339238,0.2942291505930339,0.5303877837169739,0.4436424048347102,0.7043478260869307,1
0.7792332172165625,0.4282456353211105,0.4388179290372328,0.48007463769474357,0.43953482772734964,0.7043478260869236,1
0.2587288672597036,0.33945313647267134,0.6527870993668413,0.5153621297009173,0.5482548014029011,0.7043478260869485,1
0.2127127152935169,0.2690976582075664,0.7987197188833395,0.5038903295021212,0.5441472242955412,0.7043478260869662,1
0.21579307585571816,0.09618282033666037,0.742820979462022,0.5529526010968437,0.5420942383165203,0.7043478260869236,1
0.14579437945400303,0.2695086095871866,0.8407826940034048,0.5178090188625452,0.5420942383165187,0.7217391304347132,1
0.313380476550625,0.45534915202506954,0.6312569410915807,0.5182149343951765,0.5420942383165196,0.72173913043477,1
0.6345679828560631,0.6455182752389493,0.8471319465363164,0.511727572095095,0.5379882663584784,0.7217391304347629,1
0.6476368100194282,0.8432243748895236,0.6792886451301317,0.5117598331618353,0.5482548014029002,0.721739130434738,1
0.6787584887249237,0.7155889181196252,0.49908421354140164,0.49740380224568576,0.5646818995337047,0.7043478260869414,1
0.671616582260015,0.6822287520059483,0.5063420904516294,0.5992756785045856,0.5626289135546846,0.7043478260869485,1
0.6612883632092523,0.5853818218455606,0.6029099739912913,0.5782688843095419,0.5605743224263435,0.7043478260869236,1
0.6064857092830271,0.4892175145977975,0.7277444393742304,0.572124218545924,0.5523607733609418,0.7043478260869485,1
0.5668238335879009,0.3161974246596635,0.6630493539319569,0.3348952547328411,0.5318277032720978,0.7043478260869307,1
0.5013669392782515,0.23912093566919396,0.6617774889305603,0.4608838416027339,0.5174535911203143,0.7043478260869485,1
0.45511664242399985,0.16895439417767139,0.6250581349375512,0.4305529620447359,0.5051324649475528,0.7043478260869414,1
0.4619501564063402,0.15473873788111664,0.6121070987602476,0.4541569635411645,0.503079478968531,0.7043478260869236,1
0.4874220580400893,0.15151119525392642,0.5991213014303627,0.6208115881335072,0.4989735070104905,0.7043478260869414,1
0.4698857135342275,0.15809784234880792,0.5959213810526991,0.4890259031592374,0.5010264929895107,0.7043478260869058,1
0.4973205666994649,0.1539804232069597,0.5828366813259369,0.5645970983702955,0.49486592990312983,0.70434782608692,1
0.4780543789132874,0.15617583295798498,0.5873593622273898,0.5663720849709036,0.4969189158821502,0.70434782608692,1
0.4845722979072432,0.15054089930077308,0.5806752872331442,0.5074489320754354,0.4969189158821512,0.72173913043477,1
0.47547232278881435,0.1536720092350612,0.58413922715902,0.5292490259951903,0.4928129439241099,0.721739130434802,1
0.48281322813297234,0.1487383151539038,0.5779390415294574,0.5520517455142027,0.4928129439241081,0.721739130434738,1
0.4736819154188914,0.14879739984395163,0.5865646589524017,0.4935027158262994,0.48665238083772777,0.7217391304347593,1
0.4802089917238035,0.1428627139327735,0.5758320856923768,0.5265633629095684,0.4907599579450883,0.7304347826086683,1
0.47185142706600536,0.14453460190917555,0.5796866219696258,0.5380829773717483,0.4866523808377281,0.7304347826086612,1
0.480028379625169,0.14269850735784478,0.5749310057989026,0.4954289831161451,0.4887053668167487,0.730434782608711,1
0.47275605846005586,0.14462704167702545,0.5795801130097291,0.5079630094975424,0.4763858457933049,0.7304347826086612,1
0.47876152642550307,0.14213018602879213,0.573842364117082,0.5400575052286747,0.48665238083772844,0.7217391304347593,1
0.47065249838908063,0.13988634108205905,0.5790569230723578,0.49655435751584814,0.4845993948587066,0.7217391304347451,1
0.4737968785492208,0.13730993015820986,0.5743977197002841,0.5054832076305504,0.4825464088796866,0.7217391304347842,1
0.47303424575589637,0.13635126495869876,0.5764856644330019,0.5383190900858674,0.4845993948587074,0.7217391304347629,1
0.4789630902226031,0.14213995079177943,0.5690465668227842,0.5136444731373374,0.4804918177513472,0.7304347826086683,1
0.47196384512204503,0.13660430888948005,0.5728335166481525,0.48544523033101133,0.48254640887968625,0.7304347826086754,1
0.4801130816649858,0.13452682461743265,0.5689008575875382,0.5261360834116651,0.4763858457933037,0.7304347826086328,1
0.4679049473749799,0.13670776549301156,0.5728997615328801,0.5305297369381197,0.48049181775134675,0.7304347826087003,1
0.473446901773939,0.1338500381986849,0.5698494169532793,0.4977666386549342,0.48049181775134575,0.7043478260869236,1
0.4684229494659432,0.1341196919922647,0.5724032325512405,0.49587427806139306,0.4784388317723254,0.7043478260869414,1
0.4726593223454447,0.1338261137387497,0.5692893508928398,0.5362694878915746,0.4763858457933058,0.7043478260869804,1
0.46802684903294656,0.1340783945489984,0.572482913041068,0.5185469000709476,0.47638584579330423,0.7043478260868987,1
0.47210268035835123,0.13388435080322375,0.5680351363587733,0.48944812396656195,0.47433285981428486,0.7304347826086861,1
0.46642442705357656,0.1340083829856209,0.5717270978034621,0.513954547548623,0.47638584579330534,0.7304347826086683,1
0.4699222789675861,0.13397026501646941,0.5684943570486337,0.5341195093425799,0.47638584579330534,0.7304347826086754,1
0.46810843830004645,0.13389186073284892,0.5688161064632847,0.4925783746737703,0.4640647196205425,0.7304347826086257,1
0.46987822040804483,0.1341681257437311,0.5671557883320607,0.5039045545862578,0.4743328598142845,0.7304347826086612,1
0.4661059206349045,0.1332197245047279,0.5714508441172148,0.5393061497873916,0.4681722967279033,0.7304347826086932,1
0.4693215321684443,0.13321051652019772,0.5669947558493569,0.510881323875441,0.4722782686859447,0.7304347826086683,1
0.46462938768869566,0.13415320503431394,0.568662405339467,0.4933571293669338,0.4722782686859458,0.7304347826086506,1
0.46991964035043243,0.1339929944196243,0.5676563162691491,0.5379418798739513,0.4681722967279033,0.7565217391303882,1
0.4677266207334557,0.1330100749660646,0.5694335675113205,0.5301740101857327,0.470225282706924,0.7565217391303953,1
0.46768439102681947,0.13350121817980676,0.5693427737402349,0.48895549308541164,0.46817229672790384,0.7565217391304309,1
0.46361629496098755,0.13423286160688008,0.5721260681856376,0.5084057409920801,0.4702252827069252,0.7565217391304451,1
0.46595623390179264,0.13346069321030873,0.5712423598672206,0.5472594944182296,0.46817229672790217,0.7304347826086754,1
0.4625117319042923,0.1300714647022126,0.5769667058126834,0.51889509851176,0.4702252827069251,0.7304347826086612,1
0.4603419172376152,0.1305346966904375,0.5759529040228009,0.4938585586065648,0.46817229672790384,0.7304347826086754,1
0.46075176347173374,0.12923883384054702,0.5770589869764556,0.5240283400974142,0.4661193107488829,0.7304347826087003,1
0.4631858032709092,0.12903651329300625,0.5746099025673489,0.534755825431641,0.4620117336415216,0.7304347826086612,1
0.46024106917068264,0.12840669253233145,0.5761263181635538,0.48966861556973257,0.466119310748882,0.7304347826086435,1
0.4643895465889315,0.12947139153000498,0.5746288410036597,0.5046104883707319,0.4640647196205431,0.7304347826086506,1
0.4596109220428817,0.12615089973063714,0.5741969832456867,0.5397312967834147,0.4681722967279033,0.7304347826086577,1
0.46241808595392886,0.12779984771630137,0.5707082166197915,0.5152803836285011,0.4640647196205425,0.7304347826086612,1
0.45861985632824287,0.12605682288065112,0.5727041547796518,0.4871738283826801,0.4661193107488818,0.7304347826086257,1
0.4632964809701152,0.1256811464594665,0.5705409595429597,0.5256825060257669,0.4620117336415228,0.7304347826086932,1
0.46197094886636125,0.12583598224344278,0.5730233550195151,0.5381210869977707,0.46201173364152215,0.7304347826086612,1
0.461519104844922,0.12881019912673203,0.5722954800155815,0.5047897390841394,0.46201173364152215,0.756521739130406,1
0.4573373281818235,0.12795210537750507,0.5742731688186444,0.49028868873416115,0.45995874766250133,0.7565217391304238,1
0.4649190990909453,0.1269091073835476,0.5719445459130843,0.5367096989600726,0.4599587476625019,0.7565217391304238,1
0.4595790312027275,0.1281145136607798,0.5753231060569424,0.5340477315457778,0.4537981845761203,0.756521739130406,1
0.4635797665613691,0.12701771266362138,0.5698304080647278,0.49499210961450485,0.45995874766250133,0.7304347826086506,1
0.4613996144387038,0.12915962780626178,0.5727804582159859,0.4922413576634472,0.44969221261807857,0.7304347826086364,1
0.46398148278668816,0.13023353718317532,0.5692493326104813,0.538627468226953,0.4579057616834801,0.7304347826086506,1
0.45991192988811946,0.1281107923794259,0.5723661909822686,0.5241885814470565,0.45585117055514024,0.7304347826086612,1
0.4636193972867281,0.1290935995456544,0.5694186733115878,0.49032682247435555,0.4579057616834801,0.7304347826086683,1
0.4614810752904276,0.1317097332944065,0.5722606274557591,0.5191344673033936,0.45585117055514157,0.7304347826086826,1
0.4631014027872221,0.12770930281358006,0.5694913729855982,0.5408543714945646,0.45379818457612064,0.7304347826086754,1
0.46099425828085394,0.1268912080073622,0.5722121086382638,0.5065635919548765,0.4558511705551407,0.7304347826086435,1
0.46319411433720126,0.12871587898257075,0.5695146901513096,0.4881106442255625,0.4455846355107196,0.7304347826086826,1
0.4619005190196518,0.1253804866370236,0.5722282061954612,0.5301605433216007,0.45585117055514135,0.7304347826086826,1
0.46336719000380067,0.12608003884207575,0.5693965268143633,0.5355953797068368,0.4496922126180797,0.7304347826086826,1
0.46043109090413925,0.129328392711195,0.5732044952413062,0.5056657244324961,0.45379818457612076,0.7304347826086861,1
0.46194312700224505,0.12861136004677098,0.5714122084231872,0.4889166243930203,0.4517451985971004,0.7304347826086826,1
0.4591620067714681,0.13193030176057485,0.5732761756955156,0.5287524270259658,0.44969221261807946,0.7304347826086861,1
0.46321485245772087,0.12809735706753728,0.5712218406863034,0.5370818281093718,0.4537981845761204,0.7304347826086826,1
0.46341350727288033,0.13017884523613282,0.5722048502690174,0.5072274424350742,0.44353164953169855,0.7304347826087252,1
0.4634550821245408,0.131851032536967,0.5697110913094318,0.49048876469225866,0.4517451985970994,0.7304347826086612,1
0.46306202345358527,0.133724414900096,0.5719677976735668,0.5265208343678385,0.4517451985970997,0.7304347826087003,1
0.46529746920396564,0.13225017986750232,0.569775037789561,0.5272188781440352,0.4414786635526773,0.7304347826086612,1
0.46189712241201675,0.1318674488150885,0.5719337629012865,0.4912677924350267,0.4496922126180797,0.7304347826086861,1
0.4635782528089416,0.13120724787417637,0.5697977880659758,0.5108253141030686,0.4455846355107187,0.7565217391303953,1
0.46187391482583573,0.13467749581043215,0.5719180265094924,0.5383457034398692,0.44763762148974007,0.7565217391304309,1
0.4635234682278013,0.13117866168878056,0.569805835574949,0.5149930360972054,0.4394240724243379,0.7565217391304202,1
0.4619964839711851,0.12974140290701863,0.5719264640611725,0.48691105681482527,0.44558463551071836,0.7565217391304131,1
0.4653973348576699,0.13180150924305878,0.5697106381515246,0.5293492491261228,0.4476376214897402,0.7304347826086683,1
0.4606697522638403,0.1300200274512993,0.5708284058635359,0.5412703751318482,0.4455846355107195,0.7304347826087003,1
0.46460685176777383,0.12846248869105625,0.5686549289550008,0.5097527069939135,0.4455846355107178,0.7304347826086435,1
0.4618772216339979,0.1303923631526281,0.5713450921359577,0.486310765948718,0.44353164953169855,0.7304347826086826,1
0.4625487523283893,0.1323630063767655,0.5692655898632005,0.5325412132513286,0.44353164953169777,0.7304347826086826,1
0.4634673531479312,0.12953205642057564,0.5713375458033659,0.5408103410275252,0.44353164953169644,0.7304347826086683,1
0.46348197079176223,0.13097967925633863,0.5680793855039824,0.5094653241627655,0.4414786635526782,0.7304347826087181,1
0.4636299321594728,0.12940628043464203,0.5699555791113851,0.48859494758175237,0.4414786635526773,0.7304347826086612,1
0.46382027725282005,0.1326763204138815,0.5694196664685619,0.5265649488287505,0.43531810046629615,0.7565217391304202,1
0.4647208903424689,0.13153262963339885,0.5720472860613635,0.5354241761121616,0.44147866355267706,0.7565217391304131,1
0.4659911493877754,0.1348156212694993,0.5685983159030032,0.49783373488493826,0.44147866355267706,0.756521739130406,1
0.4657948344659324,0.1327726113849002,0.5712830465792847,0.49986899726295564,0.4414786635526765,0.7565217391304238,1
0.4675610067191299,0.1335477332400929,0.5710347949441782,0.5375708354904275,0.4394240724243378,0.7304347826086612,1
0.46612015748158797,0.13391122246351372,0.5713619188114402,0.5249936892638818,0.44147866355267706,0.7304347826086826,1
0.4653982985350049,0.13409659110984318,0.5702544279092051,0.48959475956550536,0.4394240724243371,0.7304347826086435,1
0.4682828961383716,0.13380658205049623,0.5715151077446473,0.5073498768692224,0.4394240724243378,0.7304347826086861,1
0.4680162675315055,0.13413848818481083,0.5701797660707844,0.538623134728436,0.4414786635526785,0.7304347826087003,1
0.4632685058407354,0.1337820547390543,0.5715591948477063,0.5205752551902995,0.43737108644531597,0.7304347826086364,1
0.4690435030800548,0.13415832108462733,0.570162630222937,0.49121857925005225,0.43942407242433756,0.7304347826086612,1
0.4636660171712246,0.1337615648771796,0.5709451070719136,0.5000504033358849,0.4250515654218737,0.7304347826086506,1
0.468173705138325,0.13418300733503624,0.5693963883147827,0.5426171966584262,0.4373710864453172,0.7304347826086826,1
0.4657966998192964,0.1337287324664711,0.5713096307692719,0.5199387309794441,0.4373710864453182,0.7304347826087074,1
0.4683389938465029,0.13423068336006194,0.5696275127812079,0.4953943655788966,0.43737108644531664,0.7304347826086683,1
0.4679605644523598,0.13365083703865088,0.5711415917297995,0.503572158305174,0.4353181004662965,0.7304347826086826,1
0.4688769348882189,0.13438926383452765,0.5680314501169662,0.5476206042547184,0.4332651144872762,0.7304347826086826,1
0.4679417994530535,0.13301988483659516,0.5713096581312687,0.5071814094085891,0.4373710864453174,0.7304347826086861,1
0.46672631117522223,0.1333852296921147,0.5704138845236717,0.4942338698061188,0.4250515654218743,0.7304347826086435,1
0.46850213533189344,0.13401513517877178,0.5711586119228301,0.5254892564028464,0.4353181004662967,0.7304347826086612,1
0.468039206963731,0.1340460075383325,0.5685994474247136,0.5387572623820635,0.43531810046629615,0.7565217391303953,1
0.4680041654868148,0.13379102549155958,0.5713360840316662,0.4979023508216449,0.43326511448727534,0.7565217391303989,1
0.4698184827733414,0.13427811302271708,0.5667002572684795,0.5055889885339034,0.4312105233589363,0.7565217391304131,1
0.46737618015948046,0.13309734277488205,0.5550061396819852,0.5387708899256887,0.43121052335893606,0.756521739130406,1
0.46809839344470094,0.13339477542826972,0.5558080898199855,0.5292658328159103,0.43121052335893584,0.7304347826086612,1
0.46674811090103663,0.13337504345221135,0.5575121212040741,0.4876328729037217,0.42299697429353356,0.7304347826086577,1
0.46806862943685845,0.13060391045034536,0.5568728150992703,0.5009817017292061,0.43531810046629615,0.7304347826086826,1
0.46930713729654117,0.13045909701029196,0.5584754698974806,0.5413359313282212,0.43326511448727534,0.7304347826086506,1
0.4654084322448746,0.1321029900832028,0.5575647891608795,0.5305330620578688,0.4312105233589353,0.7565217391303882,1
0.46635017491868225,0.1310792827724534,0.5581480215705581,0.5001165733842574,0.4312105233589355,0.7565217391304131,1
0.46366648206374406,0.12988925828211279,0.5569476809789835,0.48899592157803273,0.4332651144872749,0.7565217391303882,1
0.4654380791008941,0.1306449417197566,0.5580908360523531,0.5353404983502084,0.4312105233589355,0.7565217391303882,1
0.4653266529935558,0.12948463352384176,0.5580351364748072,0.5317430911300853,0.4209439883145133,0.7304347826087003,1
0.46502330263354863,0.12849253905807773,0.5574760794945756,0.4910838994351658,0.4271045514008953,0.7304347826086754,1
0.46705964655738963,0.12820179820482136,0.5581051592940548,0.5027210169535035,0.4312105233589355,0.7304347826086506,1
0.46649846927934346,0.12460070682331764,0.5540510216011248,0.5408131894257716,0.42710455140089487,0.7304347826086754,1
0.4627113430767138,0.1263983680198219,0.5545483404385042,0.517666808905424,0.429157537379915,0.756521739130374,1
0.46109278323109093,0.1273917466188999,0.5598038283020896,0.4855655758957904,0.4250515654218746,0.756521739130406,1
0.4697157873137304,0.13189157477498104,0.5579454842097424,0.5266730865857746,0.4291575373799156,0.7565217391303882,1
0.47640762937472847,0.13502536330112813,0.5668955611449715,0.5414992008487657,0.429157537379915,0.7565217391303882,1
0.4707807624207564,0.13525538785565716,0.5627844407839854,0.5039826575358798,0.4312105233589357,0.7565217391304131,1
0.474201002690943,0.13823575475741456,0.5598689322540094,0.4669361607203528,0.4332651144872759,0.7565217391304486,1
0.4794468650264523,0.13376555219605807,0.5456504487070262,0.4969304716303206,0.43326511448727545,0.756521739130374,1
0.47190944858893036,0.13429663741488973,0.5547401384557343,0.5221935354816523,0.43531810046629593,0.7565217391304238,1
0.4738364856033065,0.13334374372800228,0.5512157069502941,0.5521638183404258,0.4291575373799147,0.7739130434782169,1
0.4668867367126718,0.127927887076756,0.5589667033375931,0.5020723721613835,0.4332651144872759,0.7739130434782524,1
0.46244837508233794,0.12689463362504927,0.5557981290812843,0.5280839860420258,0.4312105233589347,0.7739130434782027,1
0.4613937035722283,0.1265348812316669,0.5602002822987463,0.5732588846407674,0.43121052335893606,0.7739130434782844,1
0.4602331432139042,0.13137084204454202,0.5564521675647525,0.5328367364690824,0.43121052335893584,0.7565217391304309,1
0.4621603081546217,0.12544353673929415,0.560567271849206,0.4879963801252686,0.4291575373799148,0.7565217391303989,1
0.4687924746390171,0.1310441832447346,0.5550709442571345,0.5085600206136289,0.4291575373799148,0.7565217391303953,1
0.4705366249022995,0.1287591409167732,0.5598868324714152,0.5109106902301229,0.427104551400894,0.756521739130406,1
0.4623420890888831,0.13167345005310543,0.5623759968013069,0.48303234572472015,0.42915753737991447,0.7565217391303811,1
0.4722056745376765,0.13568232099113475,0.5696637790047572,0.5241214541014586,0.42299697429353533,0.7565217391304238,1
0.4776404106209189,0.14116575831619071,0.5724182962288271,0.5322096400609434,0.42710455140089454,0.7565217391304238,1
0.4751379615877428,0.13921411501284847,0.5708180733552807,0.48820251214609206,0.4250515654218727,0.756521739130406,1
0.4703303574173804,0.1357563073551114,0.5667895168123532,0.5172533634156864,0.4271045514008951,0.756521739130438,1
0.47612946054749494,0.13633006868700132,0.5688371166449674,0.5294776462193317,0.4250515654218727,0.7565217391304202,1
0.47375456538383987,0.1353606078389023,0.5654740782462715,0.4933699178645692,0.42505156542187517,0.7565217391304451,1
0.4706610840119937,0.13364108999706475,0.5616070621261587,0.5252282845628322,0.4271045514008951,0.7565217391304131,1
0.47501071249750615,0.1343298590898186,0.5630849704320486,0.5408419541650425,0.4250515654218735,0.7739130434782275,1
0.4736787988679805,0.1350294839476402,0.5610293382795648,0.5017516821057698,0.4250515654218743,0.7739130434782453,1
0.474488562094578,0.13390676115041372,0.5629632017982644,0.4852449471534999,0.42505156542187417,0.7739130434782417,1
0.4718958735933788,0.13398523801225137,0.5639293063425621,0.5347035734481962,0.4250515654218744,0.7739130434782275,1
0.4748723921521586,0.13395364065384419,0.5627183679394823,0.5338137007352961,0.4250515654218746,0.7565217391304309,1
0.4718135503155356,0.1339750396576545,0.5628786321687088,0.5005184329874877,0.41478342522813216,0.7565217391304451,1
0.4734618269179127,0.13395611291109577,0.5611069413205453,0.5085981316848646,0.41273043924911157,0.7565217391303989,1
0.471175628997339,0.13397484139282873,0.5618358407138289,0.5419027620589595,0.4188910023354925,0.7565217391303811,1
0.4713463246347822,0.13395551313135035,0.5616471208577948,0.5169845511071424,0.4188910023354915,0.7565217391303634,1
0.4704092120184754,0.1339757753587862,0.5613669847840369,0.49329186586238555,0.42094398831451385,0.7565217391303882,1
0.4704245815661555,0.13395439707723422,0.5625125608986113,0.5132384286705963,0.4188910023354926,0.7565217391304131,1
0.47010397609306276,0.13397702673749967,0.5627529206134438,0.5350783358281195,0.4209439883145133,0.7565217391304238,1
0.4718691039893893,0.13395302113453827,0.5620199182353386,0.5026625792225214,0.42094398831451485,0.7565217391304309,1
0.4709747436528806,0.1339785272258998,0.5640279576594409,0.494608030288165,0.4188910023354917,0.756521739130406,1
0.46996059090967945,0.13395139511252163,0.5609065215259079,0.5268628532065045,0.41889100233549226,0.7565217391303882,1
0.4709342563784651,0.13398027675007457,0.5653024890392502,0.5317644847584012,0.4168380163564718,0.7565217391303953,1
0.47079678128082814,0.13394952913542163,0.5612685848028696,0.49788192680529175,0.41683801635647133,0.7304347826086506,1
0.4709776847426286,0.1339822456310158,0.5649276960609736,0.4938413124659728,0.41273043924911124,0.7304347826086826,1
0.4706148723545518,0.1339474790823877,0.5619883444009036,0.5281639316755434,0.41478342522813194,0.7304347826086612,1
0.47188236710318543,0.1339843446019035,0.5636367770791906,0.5311848122718609,0.4147834252281323,0.7304347826086506,1
0.47079439761971176,0.13394537740655355,0.5602719905667772,0.4934246350966524,0.4147834252281315,0.756521739130406,1
0.47181782448194787,0.1339863836973148,0.5634825682430279,0.5031234022748182,0.4147834252281325,0.7565217391303882,1
0.4723935783718298,0.1339434929358203,0.5604541415574976,0.5363558236342214,0.4147834252281325,0.7565217391303989,1
0.47175359090033364,0.13398798300315917,0.5629879827599082,0.5138030385305684,0.41683801635647155,0.7565217391303953,1
0.4711183532810419,0.13394236618209882,0.5580194590039987,0.4904598460759263,0.4168380163564712,0.773913043478192,1
0.4708778744748664,0.13398836332421882,0.5621872716664752,0.5338763401619753,0.41683801635647255,0.7739130434782275,1
0.47122445975294025,0.13394314272586771,0.5603443637677491,0.5339520740187649,0.41478342522813194,0.773913043478192,1
0.47223365276586515,0.1339857931323135,0.5587429606082948,0.509573853734654,0.4127304392491107,0.7739130434782027,1
0.471702876759554,0.13394854526814814,0.5559814592524631,0.4875702076027545,0.41067745327009153,0.7565217391304131,1
0.47411106286350935,0.13397572714788658,0.558926893790508,0.5363579659798072,0.41273043924911046,0.756521739130406,1
0.47386587659548396,0.13396696427292615,0.5569727619412478,0.5308249643593457,0.4106774532700904,0.7565217391303953,1
0.4701210525158258,0.13393927408752854,0.5595277947311165,0.5145262651183657,0.4106774532700911,0.756521739130374,1
0.47311771427519267,0.1352772656619371,0.553619263406258,0.48689401072641236,0.40862446729106994,0.7739130434782027,1
0.47434784534433905,0.13527850665149832,0.5463787155131133,0.5313550321750612,0.4106774532700911,0.7739130434782169,1
0.4701699705433602,0.131929377396039,0.5350000129062308,0.5342994041499277,0.40862446729107027,0.7739130434782595,1
0.4671463337219206,0.12555583221939565,0.5194194183541145,0.5227700168057703,0.4086244672910687,0.7739130434782027,1
0.46373717868403574,0.12279503979778067,0.5132987849247559,0.4887795895650423,0.4106774532700912,0.7565217391304131,1
0.4649658804802419,0.12475297933821167,0.5104498645659084,0.5048939657316149,0.4106774532700911,0.7565217391303953,1
0.46581068900805267,0.12405276667681314,0.5112280500846237,0.5306500486842556,0.4086244672910697,0.7565217391303953,1
0.4698316236070048,0.12471224853886836,0.5313360828461738,0.5266319781811655,0.4024639042046877,0.7565217391303882,1
0.4639008259284204,0.13489620365477162,0.528733940957434,0.5047991969699256,0.4045168901837092,0.7739130434782275,1
0.49982755325573625,0.1541051732077242,0.5309531582663485,0.49115859949328794,0.4045168901837096,0.7739130434782417,1
0.502265223396457,0.16954840408552846,0.5919567148382294,0.527581179447534,0.4065698761627291,0.7739130434781707,1
0.5125128963298881,0.2666901369692378,0.6886574490880004,0.5248963898724224,0.3963033411183089,0.7739130434782453,1
0.5439342493321321,0.27124368859516323,0.6761809743399237,0.4730058442231453,0.41067745327009053,0.8086956521738884,1
0.5398891901166706,0.2406464773962877,0.6376551498948728,0.46388487534589373,0.4147834252281317,0.8086956521738813,1
0.5312357759310063,0.24013907590786382,0.6333205356155626,0.5605248337120795,0.416838016356472,0.8086956521738706,1
0.5285305275714012,0.2265765857701999,0.6287932179197284,0.5635133172683469,0.41683801635647233,0.8086956521739133,1
0.5273821710489622,0.2209593487475343,0.6294163933687691,0.5326311248611155,0.4147834252281334,0.7739130434782631,1
0.5176523572146761,0.2129435446031649,0.6287258710784918,0.5191025375155439,0.41683801635647133,0.7739130434782275,1
0.5158584959172313,0.2119601837758915,0.6285491583692511,0.5267005499760751,0.4106774532700911,0.7739130434782453,1
0.5160796499762351,0.2079311070175957,0.6273140237976818,0.4993424705706474,0.41683801635647155,0.7739130434782417,1
0.5100696686755833,0.20171877501781954,0.6180091298521942,0.49285958721636386,0.4127304392491111,0.7913043478260491,1
0.5075217026092435,0.19849381409878986,0.6216572608712183,0.5263367580365587,0.41273043924911246,0.7913043478260597,1
0.5150020312729807,0.20119587187712967,0.622473786456026,0.5299660764872763,0.41273043924911157,0.7913043478260668,1
0.5068707642501712,0.20160736840724036,0.6226786380258953,0.4950866915130107,0.41273043924911146,0.7913043478260491,1
0.5109250760850504,0.2016788453345752,0.6186623354332867,0.503107990891382,0.41683801635647233,0.7913043478260668,1
0.5102556826900327,0.20058701244358557,0.6203035685579781,0.5380177769619895,0.41478342522813216,0.791304347826074,1
0.5124712886825092,0.19895665252997097,0.6169199327860636,0.5235328416805062,0.4147834252281325,0.7913043478260917,1
0.5070784298871337,0.19423788447975487,0.6161690047759875,0.4970416171741293,0.4147834252281327,0.7913043478260491,1
0.511208113754962,0.1960343485686457,0.6158502989420912,0.5107195506098258,0.41067745327009053,0.7739130434782169,1
0.5080875448002246,0.19421426928510427,0.6163651404243649,0.5350276953481414,0.40862446729106927,0.7739130434782098,1
0.5092504723593487,0.1937457707560295,0.6158233500686559,0.5045355294298802,0.41067745327009153,0.7739130434782595,1
0.5071930833386121,0.19161032814901552,0.61577808389642,0.5025418640952503,0.412730439249112,0.7739130434782417,1
0.5098318072403563,0.1922169213533309,0.6127877806980989,0.5325765301322879,0.412730439249112,0.791304347826042,1
0.5084820122339698,0.19170273864906395,0.6098071335047945,0.5281127757061439,0.4147834252281325,0.7913043478260668,1
0.5107491672187185,0.19216566021515225,0.6096732886315726,0.49350163796753443,0.41273043924911224,0.7913043478260597,1
0.5070799736561057,0.19173654913628957,0.6106644374510175,0.5029759781559933,0.41067745327009153,0.7913043478260668,1
0.5094239726044304,0.1921427414713891,0.6088636170775641,0.5360390360561805,0.4127304392491117,0.7739130434782204,1
0.507278518749807,0.19175026049946037,0.6103935956430198,0.5247613498615875,0.410677453270091,0.7739130434782453,1
0.5093498995579329,0.19213979296881245,0.608732603635633,0.49481835999339335,0.40862446729106994,0.7739130434781956,1
0.5072955506278459,0.19173483039555006,0.6111004921123757,0.5024846635821988,0.4086244672910697,0.7739130434782346,1
0.509399410558344,0.19220810989505166,0.6101647116102892,0.535134143014258,0.4065698761627301,0.7913043478260597,1
0.5069230229626278,0.1906397233174556,0.6099223689226623,0.5216643129486512,0.40246390420468847,0.7913043478260597,1
0.5078059983358028,0.19069141260928485,0.609108313423752,0.49972728766019964,0.40862446729107005,0.7913043478260668,1
0.5061502691702386,0.19190158026090826,0.6104563788715345,0.5030805297475234,0.4106774532700912,0.7913043478260846,1
0.5098238321894273,0.1920150436504524,0.6097304243051189,0.5402532099071202,0.4065698761627303,0.7913043478260668,1
0.5072387887457454,0.19185406917401315,0.6100703622610213,0.5138476370179347,0.4086244672910705,0.7913043478260562,1
0.5078532509352537,0.1920586830857019,0.6088705021625216,0.4967285240239112,0.40656987616273166,0.7913043478261343,1
0.5077415064531893,0.19178239288714738,0.6100556289324491,0.5170680204100517,0.4086244672910705,0.7913043478261059,1
0.5092257070446722,0.19224280098884994,0.6094097505659648,0.5368911947222188,0.41067745327009153,0.7739130434782417,1
0.5067199705588386,0.19062324993488855,0.60803202545582,0.4984937244168111,0.40862446729107016,0.7739130434782098,1
0.5079811000909126,0.18911215895812689,0.6081320418434986,0.4997686401883372,0.40862446729106994,0.7739130434782169,1
0.5072464166048852,0.19004522335802787,0.6088241349737186,0.5316560978781238,0.4045168901837105,0.7739130434782169,1
0.5048693114697153,0.18873531127613286,0.605170357139159,0.5305958936768536,0.40656987616273044,0.7913043478260846,1
0.504856213432036,0.1848967632582097,0.6066975868290335,0.4948480142701348,0.4045168901837096,0.791304347826074,1
0.5090454875067549,0.18355448021222942,0.6049638681815355,0.508288018336414,0.4024639042046889,0.7913043478260349,1
0.49956853279320723,0.18725466132986368,0.6112321011225911,0.5353092192197477,0.40451689018371007,0.7913043478260597,1
0.513741087960017,0.18332393763903637,0.5702532006737497,0.5251799977704951,0.4065698761627312,0.7739130434782169,1
0.5231856984915385,0.1802843895344155,0.5426559366049651,0.49439321293295396,0.40656987616273044,0.7739130434782346,1
0.5131368197229154,0.17896032762374392,0.5402626791726179,0.5119495320837435,0.40451689018371007,0.7739130434782417,1
0.5186108095316255,0.17135813506377406,0.5371502466798319,0.5344616310910147,0.4024639042046889,0.7739130434782453,1
0.5036560272574,0.17011159556676203,0.5585059850319937,0.5228253051741888,0.40041091822566766,0.7739130434782453,1
0.4954274428127584,0.16988857321100387,0.5785780627080055,0.5041959317942237,0.40041091822566843,0.7739130434782098,1
0.49973152272247634,0.17170949905381522,0.5866681993563712,0.5444004643795232,0.39630334111830756,0.7739130434782275,1
0.4965475809573202,0.17205014862460777,0.5915389659274788,0.5433613633914158,0.3983563270973278,0.7739130434782098,1
0.49665739363998374,0.1666232189202883,0.5761106263904903,0.47620705407077046,0.3942503551392871,0.8086956521739062,1
0.5013531131866643,0.16250400374021362,0.5696317941999193,0.4757833642385627,0.3921973691602668,0.8086956521738813,1
0.4988774361832037,0.16323791865038428,0.5705588849760198,0.5194512155271954,0.3921973691602668,0.8086956521738884,1
0.49814885219838856,0.16274884089784053,0.5715022139616823,0.527865640154459,0.3921973691602675,0.8086956521738884,1
0.4966302009103891,0.16311427640713289,0.5698264392802658,0.4903221116211273,0.39219736916026615,0.8086956521739062,1
0.49912470804925047,0.16282937438067036,0.574460981141101,0.506359899165663,0.3921973691602664,0.8086956521738955,1
0.4996114912772117,0.16305029986945618,0.5718381647496362,0.5350947945126219,0.39219736916026715,0.8086956521738955,1
0.49456734224551113,0.16289187579338332,0.5722363176088451,0.5163357419285903,0.3901427780319273,0.8086956521739133,1
0.49372143365070886,0.16297082639182447,0.5734017258194768,0.4951120149173857,0.3880897920529055,0.7739130434782027,1
0.49530306562167814,0.1630390048605479,0.573471426864508,0.5243807621182108,0.38603680607388535,0.7739130434782204,1
0.49661677501138746,0.16236658416077943,0.5727792201260312,0.5400366037170354,0.386036806073885,0.7739130434782098,1
0.4943725476196341,0.1619874361350122,0.5704565124234344,0.507649340808528,0.3860368060738858,0.7739130434782275,1
0.49656498234753554,0.16344186844109776,0.5722806551450494,0.4965282080388533,0.38808979205290683,0.808695652173899,1
0.49672236606530173,0.1625123189870753,0.5714770421495942,0.5286777635310984,0.39014277803192754,0.8086956521738884,1
0.4951708709965762,0.1633867842658593,0.5714862072307252,0.52878110509624,0.38808979205290595,0.8086956521738813,1
0.49294321342626357,0.15766125813141935,0.5618234413715912,0.49561202974403457,0.3860368060738848,0.8086956521738777,1
0.492594839460364,0.15279675123573694,0.5539304036213332,0.5137396092924168,0.38808979205290606,0.8086956521739062,1
0.49234137165827396,0.15351961313104806,0.5507778144383788,0.5352565056490383,0.38808979205290606,0.8086956521738529,1
0.4901174558522462,0.15316272504920064,0.5524359224058184,0.5196516478133977,0.3880897920529057,0.8086956521738635,1
0.48660294117509983,0.15333020472081738,0.551439342587521,0.4953510307305165,0.38192922896652537,0.8086956521738813,1
0.4874573352736832,0.15055686686819397,0.5528787895762654,0.5173337625846259,0.3819292289665245,0.7913043478260562,1
0.4868806082007978,0.1478291085469956,0.545867362525167,0.5297692194836267,0.3860368060738846,0.79130434782601,1
0.48777484699316154,0.14846446846569478,0.5378696818383025,0.5121086876655822,0.3819292289665258,0.7913043478260811,1
0.48506201529740844,0.1458894096239493,0.5390250666288844,0.49396916646248173,0.3839838200948641,0.7913043478260491,1
0.4891495841811061,0.14999271966303995,0.5382468711942444,0.5207353952358509,0.38192922896652504,0.7913043478260668,1
0.4895895952427157,0.15075965692989612,0.5381535939945097,0.5302300098070856,0.383983820094864,0.7913043478260597,1
0.4893678342392245,0.15073567629734957,0.5376227952649265,0.5053207411047586,0.37782325700848396,0.7913043478260846,1
0.4879021853721518,0.1528487047546629,0.5370896415921743,0.49928231759399927,0.3778232570084833,0.7913043478260597,1
0.49133263310032416,0.15259109529933346,0.5384689509585405,0.5300046959973411,0.3798762429875049,0.8260869565217277,1
0.4897021822058074,0.15170390349958301,0.5369097330654343,0.5173139288797206,0.37987624298750455,0.8260869565217028,1
0.48709584241248083,0.15203003858997233,0.5357182293538958,0.49241295499061855,0.3778232570084822,0.8260869565216922,1
0.48877416729799683,0.15214490292570437,0.5364546339873443,0.5231939065286628,0.3716626939221035,0.8260869565217099,1
0.48797593204419,0.14678808749190791,0.5351892748433283,0.5353279711648863,0.3778232570084844,0.808695652173899,1
0.4845376601472884,0.14369833655038006,0.5381760920885326,0.49903138752904924,0.37577027102946203,0.8086956521738529,1
0.4862333668497262,0.14351855168327127,0.5369030185592489,0.5065933702355975,0.37987624298750433,0.8086956521738635,1
0.4846147587814743,0.14354493470116103,0.5368980166876923,0.5343196025401394,0.3778232570084833,0.8086956521738706,1
0.48492269174307556,0.1422622489548523,0.5361291171546311,0.5109169912268606,0.37577027102946303,0.8086956521738955,1
0.48476891311649506,0.14412207140407407,0.5385503041376198,0.4901872392308628,0.3778232570084846,0.8086956521738706,1
0.4840526121604758,0.14323489445986282,0.5381330896677076,0.5256309434514053,0.37782325700848385,0.8086956521739062,1
0.48108200124164946,0.14398088584899604,0.5387506574096982,0.5392206497549498,0.3778232570084832,0.8086956521738813,1
0.48133260592150917,0.14330265261162967,0.5375546340787585,0.5049325085457947,0.37371567990112287,0.843478260869567,1
0.48502456693536855,0.1439274506452921,0.5376575975283153,0.5016466197914984,0.37577027102946303,0.8434782608695137,1
0.4829947143077954,0.1433786104803531,0.5377004222889893,0.5383126165543016,0.3593431728986597,0.8434782608695492,1
0.4825270823432788,0.14368704030358032,0.539145873007487,0.5226457165810335,0.37371567990112364,0.8434782608695386,1
0.4853380090189894,0.14209385342973957,0.5373056019460365,0.4954813668063888,0.3737156799011234,0.8086956521738706,1
0.4834590624066156,0.14432208449996842,0.5387948245337497,0.5190940147630382,0.3737156799011232,0.8086956521738529,1
0.48189937291715124,0.14114757112703324,0.5374237477054511,0.5383346278663159,0.37166269392210327,0.8086956521738777,1
0.4842350100280045,0.1435231021591259,0.5390289459292327,0.5025604929071895,0.3716626939221036,0.8086956521739204,1
0.47924144332065854,0.14123777358098377,0.5382993781628531,0.5017329973782523,0.3737156799011232,0.8086956521738635,1
0.4794210388577699,0.14238291546596504,0.5382284115884671,0.5328398733838048,0.3655021308357219,0.8086956521739062,1
0.48404614607626606,0.1408289128216348,0.536617742800893,0.5227577432251342,0.37371567990112375,0.8086956521739204,1
0.48205413398809427,0.14241893486340168,0.5374513043236719,0.4930253439847133,0.37166269392210216,0.8086956521738777,1
0.4819459628954037,0.14411126335685476,0.5401735783452674,0.5100083178805316,0.3716626939221034,0.8086956521739062,1
0.4863297806049287,0.14293434698347612,0.5437842737701122,0.5382444096660735,0.3696097079430809,0.8086956521738564,1
0.4805228105502315,0.14867773463134404,0.5642504624290291,0.5180950353371793,0.3696097079430817,0.808695652173899,1
0.48108233259917865,0.1517985725374037,0.573820623370262,0.49291748076465536,0.36755672196406053,0.8086956521738706,1
0.4805736528865836,0.14938451501363675,0.5703053920441855,0.5189645444242875,0.3572885817703203,0.7913043478261059,1
0.48520545503555557,0.15249591905708393,0.5762513236149757,0.5359557814965202,0.367556721964061,0.7913043478260491,1
0.4855244159419143,0.15281008772121957,0.5720523944995489,0.5002101100587262,0.36755672196406186,0.7913043478260668,1
0.48213536819312963,0.15388127791670336,0.5774310819527672,0.4909589357208472,0.3675567219640611,0.791304347826074,1
0.4840777222787177,0.15259313835494692,0.5735812443122934,0.5245441208432637,0.3675567219640602,0.8086956521738635,1
0.4864536772812683,0.15526208550689852,0.5795717341955138,0.528493719928855,0.36755672196406175,0.808695652173899,1
0.48791913828027134,0.1602061867413072,0.5848306697302359,0.5033438750031918,0.36755672196406053,0.8086956521738458,1
0.4910532357128955,0.1639378955269305,0.5907338150580205,0.5208307462283472,0.36550213083572103,0.8086956521738955,1
0.489310376449994,0.1621579201294862,0.5896845280064983,0.5390219759974445,0.36344914485670177,0.8086956521738813,1
0.4906148028496635,0.16367681414927965,0.5908485332748615,0.5061677357359626,0.36550213083572036,0.8086956521738706,1
0.48986761569748494,0.16232602570260696,0.5895676493951907,0.49631602746353415,0.3634491448567009,0.8086956521738813,1
0.4890335207068385,0.16307832331192296,0.5910730009194375,0.5307651530191067,0.3634491448567009,0.8086956521738777,1
0.4842407682044805,0.1573670310971535,0.5882984983373366,0.5224237297975364,0.3634491448567,0.8260869565216957,1
0.4865785268916637,0.15850458332496076,0.5865645008914948,0.4923275063797244,0.3634491448567003,0.8260869565216957,1
0.48452352201964854,0.1545220200072278,0.589448054833059,0.5145911314855716,0.35728858177032086,0.8260869565217526,1
0.48651820704233695,0.15499905413312587,0.5881587962468111,0.5382582342093815,0.3613961588776794,0.8260869565216922,1
0.4844573813309112,0.1547242092145542,0.5891605542980356,0.5134917800855653,0.36139615887768006,0.8260869565216922,1
0.48697259372023005,0.15567720724093348,0.5894520336180858,0.49025229253410874,0.3613961588776804,0.8260869565216851,1
0.4853245177257678,0.15177347174494427,0.5861862388882223,0.5232070241349163,0.36139615887767995,0.8260869565217099,1
0.48576501879142764,0.15476061172220285,0.5879358386006635,0.5319122740680463,0.35934317289866013,0.826086956521717,1
0.48391566279176423,0.15179362315839817,0.5862956702332053,0.4958404926006782,0.3613961588776806,0.8086956521739204,1
0.4868757298113493,0.15485228540229817,0.5856894614374573,0.5082059179707309,0.35934317289866013,0.8086956521739133,1
0.4828351914284831,0.15164285112918258,0.5853716947212906,0.538420889227464,0.3613961588776795,0.8086956521738884,1
0.4860502087092994,0.1550576343463314,0.5872966462009603,0.5143660470762162,0.3613961588776804,0.8086956521738884,1
0.4846191180790961,0.15136008207069296,0.5851237938877374,0.49263661238921785,0.35934317289865947,0.8260869565217277,1
0.4861284230705537,0.15555845232457693,0.5862741577755717,0.5262568595564028,0.36139615887767906,0.8260869565217099,1
0.48380255838147546,0.15234777627005786,0.5852189359468281,0.5341804525170741,0.35934317289865914,0.8260869565216957,1
0.4890700979340823,0.15810315952121828,0.5870160986416747,0.4999565134044875,0.3613961588776806,0.8260869565217348,1
0.48217083131328586,0.15328899921961947,0.5877510782732243,0.49804325247719605,0.3613961588776794,0.8086956521738884,1
0.48836330135188877,0.15520582221134027,0.5894343969893416,0.5346535532585888,0.3613961588776794,0.8086956521738706,1
0.4800007940929236,0.1551134025087288,0.5865937603820928,0.5291414606510582,0.3572885817703195,0.8086956521738706,1
0.5015522690751166,0.1702919508321898,0.5897062583640457,0.49837916625923173,0.35728858177031964,0.8086956521739062,1
0.49791152661425486,0.16877813679542186,0.582875620881393,0.4998857870682375,0.34907503270491747,0.8260869565217028,1
0.5047954708954289,0.17771219490662732,0.5772551123759276,0.536083308632906,0.35934317289865947,0.8260869565217028,1
0.5049574621359385,0.17109369436580296,0.5788158805278001,0.5205415082236943,0.35728858177031964,0.8260869565217099,1
0.5309136664401213,0.2173438705736389,0.6286978323401768,0.4821690125394584,0.35728858177031986,0.8260869565217099,1
0.5276207606446084,0.2502535907356546,0.6235830042411712,0.5115740168903896,0.3593431728986599,0.826086956521717,1
0.5610017680060313,0.22669047959865718,0.6165666213554725,0.5607245591656349,0.35934317289866025,0.8260869565217099,1
0.5047668153408333,0.2106726220375938,0.6402206248561662,0.507252624786727,0.3593431728986589,0.8260869565216922,1
0.5347734506115278,0.2961058257034585,0.697936777666774,0.464429286587438,0.3572885817703191,0.8260869565217099,1
0.4861771002582621,0.42526132658884597,0.8181928069993064,0.5055715411964785,0.3634491448567,0.8086956521738315,1
0.421813500870427,0.41497739881628937,0.8199961186355801,0.5507268527952817,0.3696097079430809,0.8086956521738706,1
0.5001505112348199,0.3787867719407758,0.8044937843206652,0.50397876036578,0.37371567990112453,0.8086956521739062,1
0.4863422696019484,0.3855304915344201,0.7894884514578686,0.4984946963050307,0.3675567219640604,0.8086956521738635,1
0.5111845981847712,0.38303076760314425,0.7765335367183721,0.5720242427123441,0.36755672196406075,0.8260869565216957,1
0.4753011495176567,0.3970843485499511,0.7990021069462219,0.606437725208938,0.36550213083572114,0.8260869565216922,1
0.4756689624785333,0.38258283851435,0.784408570845395,0.43767925013775105,0.3655021308357217,0.8260869565217028,1
0.5647878283432944,0.43693712392361445,0.7668675262209739,0.46227858929621435,0.36550213083572214,0.826086956521678,1
0.6003138764125749,0.3792067683835134,0.6980809344127383,0.5441202671856531,0.36344914485669977,0.8086956521738706,1
0.4989005415463076,0.2296773810327895,0.6256999381305354,0.49956902774939,0.3593431728986589,0.8086956521738706,1
0.5078127051517074,0.19555683940700624,0.6242814012052654,0.5114078803059889,0.3531826098122779,0.8086956521738884,1
0.5234860565257564,0.21775640397532198,0.6430109559997332,0.5260439625206248,0.35523559579129915,0.8086956521738884,1
0.5389773395351015,0.2321256313180799,0.6071891073504041,0.539800351806314,0.3490750327049176,0.8086956521738564,1
0.5506169191600564,0.22044034956991188,0.5820132216110377,0.5718453265629664,0.3552355957912988,0.8086956521738884,1
0.5602861125310987,0.22553905866999463,0.5687140491139991,0.44975045734368,0.35318260981227856,0.8086956521738813,1
0.5237249940250257,0.19683342305856533,0.5707326693797423,0.48193186514413106,0.35318260981227734,0.8086956521738564,1
0.511703163355451,0.18406626778513935,0.5725087713680578,0.505486681654408,0.34907503270491835,0.7913043478260668,1
0.5061988078083325,0.16980473780448724,0.5724619432881072,0.564484451829232,0.34907503270491813,0.7913043478260491,1
0.5024491251920724,0.1704622169136748,0.570761510159706,0.5344050013591338,0.349075032704917,0.7913043478260491,1
0.49674699791192156,0.16069072688268232,0.5711825737325561,0.48459618922553904,0.3470220467258973,0.7913043478260562,1
0.5010275189834524,0.1658432875432444,0.5666074591496931,0.5185923844354481,0.35112962383325763,0.8260869565217206,1
0.49581557146033406,0.16015999240041995,0.5676180239237292,0.5381949945740571,0.3511296238332581,0.8260869565217348,1
0.49707919683564183,0.16219032778028908,0.5670284779444944,0.4967276325952601,0.3490750327049178,0.826086956521717,1
0.495965230528564,0.15802879927550267,0.5700276940309761,0.49299172779110334,0.3470220467258962,0.826086956521717,1
0.4910350009653176,0.15624099100262678,0.5683221244613953,0.5252190435893058,0.34907503270491735,0.8086956521738458,1
0.48793811627502126,0.15243991726449796,0.5718111936187465,0.5109775207918617,0.3490750327049178,0.8086956521738884,1
0.48800605810935294,0.15626797605502374,0.577810004095492,0.48882467579375555,0.34702204672589687,0.8086956521738706,1
0.4862719883851687,0.1512636233531897,0.5781727530130125,0.5306438335885973,0.34907503270491724,0.8086956521738529,1
0.4850361639884063,0.15558184682933784,0.5777621826095423,0.5350995711630762,0.3490750327049186,0.8260869565217206,1
0.4869580565824625,0.15256121828636027,0.5775042210022884,0.5014637298118061,0.3511296238332575,0.8260869565216922,1
0.48580014081527845,0.15472957582234437,0.5769881919395744,0.511373769059166,0.3490750327049168,0.8260869565216851,1
0.48224498365306767,0.1511601836735053,0.5778047415143818,0.5371277273938204,0.34702204672589776,0.8260869565217526,1
0.4837149626099242,0.1538134532377931,0.5765664419088756,0.508080838884228,0.3470220467258981,0.8260869565217277,1
0.4827650957237476,0.15259927356129593,0.5759596091137248,0.4942125342584427,0.3449690607468766,0.8260869565217206,1
0.48023990180362974,0.14896767681241158,0.5776663977869062,0.5275629620528787,0.34291607476785524,0.8260869565217099,1
0.4722926447110072,0.14319273362415597,0.5783777323330683,0.5255468186835677,0.349075032704918,0.8260869565217348,1
0.4787681704392769,0.14662925721192277,0.5770074897089036,0.4892639296879643,0.34496906074687683,0.826086956521678,1
0.47322745237096253,0.14892480618681087,0.598505418769252,0.5175957091015926,0.3470220467258971,0.826086956521678,1
0.4715754356150367,0.1650244726405249,0.6200237740454031,0.5369614483542412,0.3449690607468777,0.8260869565216957,1
0.5024014612827997,0.16231829927527108,0.5777024628252988,0.4943883685877034,0.3449690607468765,0.8260869565217277,1
0.49015135526603004,0.16265142724385995,0.5855411863774005,0.5004882998781373,0.34291607476785657,0.8260869565217277,1
0.4817667402656074,0.15047095962694867,0.5822572869927595,0.5385909167895068,0.34702204672589787,0.8260869565217099,1
0.4859813683020453,0.15517478799362944,0.5787403986876489,0.4899329921042174,0.3470220467258973,0.8260869565217099,1
0.47903713201559406,0.14945291497248875,0.5765358278084677,0.4997128207180855,0.34496906074687683,0.826086956521717,1
0.4812389435480787,0.1508371635132525,0.5766067452255034,0.5434387792474644,0.34291607476785635,0.826086956521717,1
0.47931281737645315,0.14401885782273743,0.5735588059128437,0.5687573355946719,0.33880849766049426,0.826086956521678,1
0.4836756131659684,0.14665188654295508,0.5737719414882173,0.4819683376506837,0.34291607476785635,0.8260869565217277,1
0.47794482637468594,0.14448643753790658,0.5710767200220916,0.5047733690867114,0.3408614836395164,0.8260869565216922,1
0.4802646191823218,0.14446476428853527,0.5712502619413808,0.5240142838911647,0.3429160747678546,0.8260869565216709,1
0.4780228577855825,0.14404841076095282,0.5699272540155126,0.5060532167538001,0.3388084976604956,0.8260869565217348,1
0.4797564143902625,0.14410284785018151,0.5711989946386667,0.5118281340011165,0.342916074767856,0.8260869565217206,1
0.4771332196618341,0.14161200604060192,0.569973214688895,0.5280325951808361,0.34291607476785535,0.8260869565217277,1
0.4794271831805512,0.1449765569991428,0.5696716249459944,0.5150811524561635,0.34086148363951563,0.8086956521738706,1
0.47768307521546105,0.1423768764382332,0.5697029634075819,0.49712755190481384,0.3429160747678559,0.8086956521738706,1
0.47889689820861314,0.14481315091492591,0.5687366193456277,0.5454558214706409,0.3347025257024533,0.8086956521738813,1
0.4787724523629303,0.14177959316799527,0.567193561028047,0.5287014016638472,0.3408614836395166,0.8086956521739204,1
0.48109446907301856,0.14676122179733092,0.5614284757020414,0.49036996033591107,0.33675551168147577,0.8260869565217455,1
0.4853061712320357,0.14210411559425734,0.5479953558268527,0.519146908727089,0.34291607476785524,0.8260869565217028,1
0.48770574099740316,0.15293426904598179,0.5465792560645041,0.532601586502028,0.3408614836395162,0.8260869565216957,1
0.4876041438669676,0.14825134134937906,0.5417328204339819,0.4994806780586172,0.3408614836395166,0.826086956521717,1
0.4913287185707709,0.15072842185971458,0.5434220895625687,0.4935344171970684,0.3388084976604956,0.8086956521738884,1
0.4929536439796446,0.15279513926959454,0.5447899859022112,0.5326791581497652,0.33880849766049626,0.808695652173899,1
0.48984404363656253,0.15389982003956088,0.5563932592078449,0.5173596960852912,0.3388084976604955,0.8086956521738777,1
0.48502679429565987,0.1525809962078144,0.5668489150321568,0.5242872490388933,0.33675551168147433,0.8086956521739062,1
0.48655222283483435,0.15408921892919936,0.565880708230042,0.5249545395006844,0.3388084976604948,0.8260869565216709,1
0.48485928936914546,0.1523979712718625,0.5681093249866531,0.521629007509113,0.33880849766049526,0.8260869565217277,1
0.4858640983072746,0.1543363015287177,0.5660374772701409,0.5040843629276986,0.3367555116814739,0.8260869565216851,1
0.4842192259386404,0.15179330834514299,0.5666130586314885,0.48913708681343787,0.3244343855087122,0.8260869565216922,1
0.4870076045530801,0.1535023128492352,0.5664015224402001,0.5249119585785753,0.336755511681475,0.8434782608695564,1
0.4850068127827458,0.1513511354521973,0.5654897178291669,0.5305260196314818,0.33470252570245296,0.8434782608695173,1
0.4845464515550093,0.14957644452176844,0.5649025298901574,0.5011136337643157,0.33470252570245407,0.8434782608695244,1
0.4848858789704005,0.15379584638419191,0.5655571758284897,0.49402125748048137,0.3347025257024543,0.8434782608695386,1
0.48592680583616665,0.15271115645687072,0.5636473067552336,0.5304196356583065,0.3326479345741138,0.8434782608695173,1
0.4824059768153416,0.15236665458819598,0.566817203645221,0.5283228473532515,0.33470252570245407,0.8434782608695315,1
0.4849586621844052,0.15216091776734808,0.5649072363059818,0.49424004990326265,0.3326479345741147,0.8434782608695315,1
0.48500785445659733,0.1501598501466858,0.5642956181537565,0.5036658070986628,0.33675551168147455,0.8434782608695492,1
0.4860224452243095,0.1521044417317693,0.5644242380880211,0.5371329337066116,0.33264793457411435,0.8260869565216922,1
0.4850486323775538,0.15135770121677683,0.5643887458902522,0.510823682101,0.3326479345741149,0.8260869565217277,1
0.4859478994543732,0.15392181408864136,0.5644697743994851,0.4960745494813464,0.3285419626160726,0.826086956521717,1
0.48516063270671916,0.15154936007404973,0.563644662633558,0.5302153583586023,0.3285419626160734,0.826086956521717,1
0.48575247627434603,0.15369549419052092,0.5621730467669673,0.5248878574227942,0.33059494859509386,0.8434782608695315,1
0.4857697760262879,0.1528045195054189,0.5638307175207504,0.49020793325811396,0.33059494859509364,0.8434782608695315,1
0.4863061839568298,0.15379227020985936,0.563666134802437,0.5177657661597909,0.3305949485950934,0.8434782608695244,1
0.4860914936413112,0.15280066113281993,0.5647922203054814,0.5409035818593961,0.3223813995296926,0.8434782608695599,1
0.4872616452630123,0.15375054610238992,0.5636077171660646,0.4997835450478271,0.3305949485950933,0.8260869565216709,1
0.48450563413722325,0.15291445119442276,0.5641546941975382,0.503291561665396,0.32854196261607216,0.8260869565216922,1
0.48632220007912275,0.1533177617018967,0.5644304356763947,0.5392383579298168,0.33059494859509453,0.8260869565217277,1
0.4836682391401459,0.15175515179661092,0.5644024515812451,0.5207874828069657,0.3285419626160718,0.826086956521678,1
0.4868953075624741,0.1541260807820134,0.5630885466593735,0.4912502925508444,0.32648897663705134,0.826086956521678,1
0.4854471916806289,0.15260614394238337,0.5634308409160202,0.5234144447060933,0.3285419626160737,0.826086956521717,1
0.4859432921449779,0.15368443843816232,0.5641012393988675,0.5353154344350705,0.3285419626160724,0.826086956521678,1
0.4850574898231774,0.15089622575620193,0.5625735633985343,0.4976746403631283,0.3285419626160737,0.8260869565217348,1
0.485988111577764,0.1534433540956719,0.5635785040077818,0.5081475955029856,0.32854196261607294,0.8434782608695492,1
0.48501868078678967,0.1527484930533652,0.5627435265661891,0.5382965025787674,0.32648897663705057,0.8434782608695066,1
0.48496295223906605,0.15388324005743936,0.5615019327270536,0.5087837803097337,0.32854196261607327,0.8434782608695386,1
0.4886472164453992,0.1526884020821715,0.5586309004491551,0.49674869232342206,0.3264889766370528,0.843478260869567,1
0.48794623167628015,0.15389703866433946,0.5575891070330585,0.5317922750621018,0.3244343855087126,0.8434782608695492,1
0.48822983982743284,0.15268764860274692,0.5582947845749556,0.5263239504348864,0.32854196261607294,0.8434782608695137,1
0.4887716944618823,0.15389273890401411,0.5572779012703654,0.49103819051402786,0.3285419626160724,0.8434782608695137,1
0.4907178260037546,0.15269436884967125,0.5565342760876183,0.5064525002198995,0.3264889766370517,0.8434782608695421,1
0.49193503324817434,0.15388458869524513,0.5577628764745236,0.5432589705355105,0.3244343855087126,0.8434782608695386,1
0.49159465805543867,0.1527035929086471,0.5584117956469392,0.5219647123914115,0.3244343855087123,0.8434782608695492,1
0.48934603849812064,0.1538743435086542,0.5580222109001928,0.488864316162853,0.3223813995296908,0.8434782608694746,1
0.48906074971686453,0.1539228901177283,0.5587815585541281,0.5201191894132374,0.3264889766370519,0.8434782608695066,1
0.4923084165025762,0.15386146881649138,0.5576729392549411,0.5350232969609489,0.32443438550871284,0.843478260869567,1
0.49016174754915487,0.15272986456932452,0.5583850552333093,0.49669278301469955,0.32443438550871206,0.8434782608695492,1
0.4930724870879879,0.15384376352868318,0.5589508912552557,0.5032319347226935,0.3223813995296919,0.8434782608695137,1
0.48780579083676034,0.15275182147609628,0.556757844563752,0.5338735598508939,0.32443438550871295,0.8434782608695315,1
0.4893041150538452,0.15381502953157472,0.5577315042868419,0.5116520757370805,0.32648897663705134,0.8608695652173282,1
0.4868620027032533,0.1527923713827602,0.5579876468313292,0.495560560338462,0.32648897663705134,0.8608695652173317,1
0.48901814562378365,0.15375056334764536,0.5580665835599021,0.5297061488357292,0.3244343855087124,0.8608695652173566,1
0.48601965408799763,0.1529235164069181,0.5584106207826381,0.5299465357586919,0.32032841355067165,0.8608695652173637,1
0.4863571201164981,0.1525584508480627,0.5578816735155671,0.49420311309761034,0.322381399529691,0.8434782608695315,1
0.48451075996479553,0.15281818359923494,0.558364981240569,0.509937977135847,0.3223813995296908,0.8434782608695386,1
0.4862392315867453,0.15292153589804958,0.5577179234753883,0.5406816889506968,0.3244343855087126,0.8434782608695244,1
0.4864530821917803,0.1501115815602287,0.5579419125442652,0.5141522901155456,0.32032841355067165,0.8434782608695564,1
0.4895104615467216,0.15374436372474154,0.5570648416779034,0.4918962736093524,0.32238139952969236,0.8608695652173814,1
0.4860496360299339,0.15245787337313993,0.556962118435208,0.5253534530577596,0.3121148644852688,0.860869565217353,1
0.4878147903110489,0.15278687727516743,0.5571444137466522,0.534807447450789,0.32238139952969136,0.8608695652173566,1
0.4878769181419895,0.15276134471507657,0.5585577853691465,0.496187347813566,0.3223813995296919,0.8608695652173779,1
0.48938340527670854,0.1538705017506356,0.5561653821822115,0.5104696598256598,0.31827542757165017,0.8434782608695137,1
0.4877446454944714,0.15270451828306364,0.5574052167598168,0.5364632503598733,0.32238139952969125,0.8434782608695137,1
0.4866021294623565,0.15387298795573412,0.5570485073573774,0.5047993382531522,0.3182754275716507,0.8434782608695421,1
0.48747513873177406,0.15273267115577344,0.5576396745290776,0.4964067756115148,0.32032841355066977,0.8434782608694924,1
0.48742909032354087,0.1537656423182855,0.5577653049953571,0.5345428256199984,0.3162208364433098,0.8434782608695315,1
0.4852027923140172,0.15146736346026923,0.5564592097680916,0.5234702737557817,0.32032841355067165,0.8434782608695386,1
0.48688905828842066,0.15407325009562628,0.5578995533946269,0.49178365007989466,0.32032841355066943,0.8434782608694817,1
0.48456173484466813,0.15259009039104615,0.55802765719414,0.5186985564816515,0.3203284135506701,0.8434782608695386,1
0.48703009018602916,0.1533028953088993,0.5578364918414677,0.5382223628807141,0.31827542757165017,0.8434782608695386,1
0.48523100286123555,0.15028699997618916,0.5580534720494624,0.5056098789080328,0.31622083644331067,0.8434782608695137,1
0.485902000431073,0.15311205852484155,0.5578182346967059,0.495733975310492,0.3182754275716506,0.8434782608695492,1
0.4851859654764371,0.15298095901753794,0.5580825398563073,0.5314485344255571,0.3182754275716506,0.8434782608695315,1
0.4856958895606355,0.15370572571337293,0.5577030143962495,0.5203328300078056,0.31827542757165095,0.843478260869567,1
0.48608490688764017,0.15284041776249963,0.5557153549141439,0.4879780533810005,0.31416785046429063,0.8434782608695421,1
0.48702352280785155,0.15375516612864365,0.5575672001879234,0.524783548079023,0.31006187850624967,0.8434782608695564,1
0.48639831153300017,0.1528321540250644,0.5556661370906818,0.5384192570249086,0.31416785046428963,0.8434782608695137,1
0.4896420497870235,0.1537271177749409,0.5547304278592978,0.4987420922544737,0.31622083644331167,0.8434782608695741,1
0.48714357718396484,0.15292753887446736,0.5553330294174923,0.5046043404217357,0.31827542757165117,0.8434782608695315,1
0.48792886697680393,0.1533185811841138,0.5573446522732349,0.5389044751727826,0.3141678504642903,0.8434782608695137,1
0.4852626582756213,0.15173366071529476,0.5580781676094093,0.5120707619903567,0.3162208364433098,0.8434782608695244,1
0.4883192052049101,0.15418337005570204,0.5554110277229833,0.49090932194758413,0.3141678504642901,0.826086956521717,1
0.4875593471413684,0.15246822429752155,0.5581412859364014,0.5283721968632388,0.31827542757164984,0.8260869565216957,1
0.48693932450386934,0.15417269114029108,0.5577700985509331,0.535211866581498,0.3141678504642901,0.8260869565217348,1
0.48537776881010375,0.15155310525713167,0.558083355654794,0.4961524962485726,0.3141678504642902,0.8260869565217099,1
0.48582892411874334,0.15360198198416303,0.5578218243841193,0.504589197723361,0.31211486448526726,0.8434782608695244,1
0.4850331358217166,0.1525414913020317,0.5580327459734572,0.5409904881948453,0.31622083644331134,0.8434782608695421,1
0.4868504311873888,0.15205563244896408,0.5578793865308369,0.5160233500958796,0.3141678504642895,0.8434782608695137,1
0.4862048866660773,0.15229245339043912,0.5558165545403594,0.4912968352058566,0.31416785046428986,0.8434782608695244,1
0.4877811450456543,0.15387253358958775,0.5560064186896344,0.5237385685896989,0.31416785046428963,0.8434782608695386,1
0.4871139600719582,0.15283617615345552,0.5561751226514225,0.5360915310668,0.3141678504642904,0.8434782608695386,1
0.48629864397091527,0.15292555701114136,0.5574175655524445,0.49716911652366214,0.31416785046428974,0.8434782608695386,1
0.4879474387106516,0.15115912746007337,0.5533873137834047,0.5068889080623357,0.31211486448527015,0.8434782608695386,1
0.48660389962979367,0.15390866479577975,0.5558157149238807,0.5386172060897039,0.31622083644331056,0.8434782608695244,1
0.48481626103248043,0.1504289316272402,0.5566490564856107,0.5190065576038517,0.31211486448526904,0.8434782608695315,1
0.48667350166420653,0.1534931141495388,0.5565624689528924,0.48763955450682633,0.31416785046429063,0.8434782608695315,1
0.48650522794347273,0.15166499742793466,0.5563078346289514,0.5169615548724246,0.310061878506248,0.843478260869567,1
0.4865869942645362,0.15222504354162825,0.5565811309903839,0.5388508333017484,0.3080072873779094,0.8434782608695315,1
0.4876736329259359,0.14944758046259154,0.5566878385838238,0.507703397689695,0.31211486448526915,0.8434782608695244,1
0.4873941837633652,0.15319645811103044,0.5570893438375509,0.491830427697398,0.31006187850624867,0.8434782608695564,1
0.48861988356096375,0.15207005794027223,0.5598502348995017,0.5287862103292335,0.31006187850624756,0.8434782608695066,1
0.4860450820191875,0.15426549960857894,0.5571392356666135,0.5329563032722793,0.3080072873779094,0.8608695652173779,1
0.4854908972922233,0.1523884688071821,0.5585191183652898,0.4971373746598748,0.3121148644852688,0.8608695652173388,1
0.4880211618778607,0.1541655114141301,0.5574580803315781,0.5001005791350936,0.3080072873779094,0.8608695652173566,1
0.48669250992394053,0.15243193762908747,0.5583712305500329,0.5356292403474573,0.31006187850624867,0.8608695652173459,1
0.4867002167304183,0.15413715529730104,0.5575369096870451,0.5196946965051741,0.3080072873779077,0.8608695652173317,1
0.48791239091060323,0.1525011586241103,0.5583375983813313,0.48998572593238204,0.3080072873779093,0.8608695652173779,1
0.4888727455269716,0.15328046047438637,0.5575094541245073,0.5250388769991239,0.30390131541986654,0.8608695652173566,1
0.4882198043200261,0.15173532416595636,0.5590941415606236,0.5322716323179033,0.3100618785062489,0.8608695652173779,1
0.4886033394552656,0.1548910916877973,0.5570015213517974,0.49147674556142223,0.3080072873779077,0.8608695652173317,1
0.4859573862085037,0.15051302472047673,0.5580269615373002,0.512128106797889,0.305954301398887,0.8608695652173388,1
0.48614804282042523,0.15261572507363752,0.5577872035093054,0.5431907943614475,0.3080072873779087,0.8608695652173814,1
0.4843001986363331,0.14799274798800405,0.5581100955279129,0.5055723747037572,0.3039013154198671,0.8608695652173317,1
0.4855511882294127,0.15101449875677286,0.557766795691738,0.49706150558955503,0.305954301398889,0.8608695652173814,1
0.48521444461928087,0.1484831186710806,0.5581126881916184,0.5364943506209384,0.29774075233348574,0.8608695652173566,1
0.4858929642955214,0.14821128119846727,0.5577726470243655,0.5235777756856992,0.30800728737790906,0.860869565217353,1
0.48353171715528476,0.15123967082822953,0.5581009905458304,0.49035145492383103,0.3059543013988886,0.8608695652173637,1
0.4854978329908496,0.15245298858888218,0.5577903078558518,0.5217479365533083,0.3039013154198672,0.8434782608695244,1
0.48531794528549344,0.1508095512798101,0.5580747774250217,0.5372893591391804,0.3018483294408467,0.8434782608695315,1
0.48576583620315306,0.15098653600755885,0.5578326833614091,0.5009715449524079,0.3018483294408467,0.8434782608695315,1
0.48526281615166744,0.15288042251963024,0.5579908139931002,0.49639491506184,0.30390131541986676,0.8434782608695137,1
0.4857772086044778,0.1525387295872332,0.5581254305470376,0.5344615005700478,0.3018483294408465,0.8434782608695315,1
0.48527512110214976,0.1515147192565785,0.5587672031026258,0.5184486103898779,0.30390131541986753,0.8434782608695421,1
0.48573687163765267,0.149448817368238,0.557575467666557,0.4941703723827731,0.2936347803754442,0.8434782608695315,1
0.4853935357948721,0.1477866149024042,0.5582316156081593,0.5286166266929986,0.3039013154198672,0.8434782608695315,1
0.48663875765394693,0.15007291471359846,0.5576795586250778,0.528301057654657,0.3039013154198673,0.8608695652173459,1
0.48415683623426653,0.14999790617832426,0.5581848905096236,0.4941840750797117,0.30595430139888813,0.8608695652173886,1
0.48605385692428493,0.15014804352005073,0.5585133150930116,0.5158957499295076,0.30390131541986654,0.860869565217321,1
0.4844492176050249,0.1497295116719382,0.5581691976544564,0.5380863608407594,0.29979373831250766,0.8608695652173459,1
0.4850216769506046,0.14976708093761337,0.5577143999157687,0.5021093853733488,0.29568776635446536,0.8260869565217099,1
0.48465945321141,0.1497371397993375,0.5581668456377042,0.4976575213593865,0.3018483294408463,0.8260869565216922,1
0.4860174840492827,0.15025454000269217,0.5577092118245339,0.5352839289440764,0.29158018924710594,0.8260869565217099,1
0.48507822150366386,0.14845488294701048,0.5581843840455007,0.5260207733475457,0.2997937383125069,0.8260869565217028,1
0.485025983382499,0.15110219773864603,0.5576631385817071,0.49275329470188,0.29774075233348696,0.8434782608695421,1
0.48331663049729834,0.14909562517202146,0.5583520074450443,0.5088541560053116,0.30184832944084594,0.8434782608694995,1
0.48569160366501607,0.1476227730978691,0.5585021822597043,0.5390184060165262,0.2977407523334862,0.8434782608695315,1
0.4853091361225792,0.14941774775146693,0.557956446743782,0.5093034965712965,0.2997937383125071,0.8434782608695244,1
0.4857002921101685,0.152734091331247,0.5578635223221989,0.49357036603056836,0.29979373831250766,0.8608695652173459,1
0.4855010588015307,0.15138693957494453,0.558038423980605,0.5289843344757063,0.2997937383125069,0.860869565217353,1
0.4866784847552339,0.1521151929612431,0.5578330255867102,0.5250605820153067,0.2977407523334862,0.860869565217353,1
0.4850513923562536,0.15152608706818949,0.5580520847561377,0.48974897699039893,0.29568776635446514,0.860869565217353,1
0.48590613205603983,0.152525144842733,0.5578272374545201,0.5196007665289726,0.29774075233348574,0.860869565217321,1
0.48517461648710347,0.14879806601576095,0.5580533300609741,0.5387655408384232,0.2997937383125071,0.8608695652173459,1
0.4858346975975295,0.14711794159646668,0.5578291041050273,0.49921797610590113,0.29774075233348585,0.860869565217353,1
0.48524199956015646,0.1494826696647068,0.5580489371761508,0.5014071990326999,0.2977407523334865,0.8608695652173388,1
0.48574227340658294,0.15042824001680577,0.5578359431861253,0.5401331103333439,0.2956877663544646,0.8434782608695315,1
0.48638221962015926,0.14764613690259343,0.5580392792272817,0.5200995428734628,0.29568776635446703,0.843478260869567,1
0.48381389889952,0.15017192397504792,0.5578494219838961,0.49025360528066786,0.2977407523334856,0.8434782608695137,1
0.482434584216515,0.14656782772763383,0.5580197459640132,0.5230316554894056,0.2977407523334873,0.843478260869567,1
0.4851826384643865,0.1466043003082494,0.5578803979632081,0.5403014713707581,0.2977407523334856,0.860869565217314,1
0.4825036393128588,0.1498187330821364,0.5579607607089268,0.5043095343555494,0.2977407523334864,0.8608695652173814,1
0.4851583514161064,0.14906922358907954,0.5580606872804025,0.49457363808637866,0.2915801892471056,0.8608695652173708,1
0.48540449215734294,0.14775412466473636,0.5587871567460642,0.5357184442441721,0.2956877663544655,0.8608695652173459,1
0.48509753457460014,0.1464153332697739,0.5576779638124703,0.5276263248787497,0.29363478037544655,0.8608695652174028,1
0.48429245032227086,0.1494486469563691,0.5581352585217927,0.492650647394352,0.2936347803754443,0.8608695652173104,1
0.48477733903213727,0.14793685829101927,0.5577738172150695,0.5110112150031448,0.28747421728906364,0.860869565217353,1
0.48423872930637457,0.14753930023913375,0.5580899605107976,0.5379071601714179,0.2936347803754443,0.8608695652173317,1
0.48544471982283866,0.14738543749905836,0.5578035761290869,0.50435067574901,0.28336664018170366,0.8695652173912549,1
0.48449060292701684,0.14560686209883117,0.5580662688952579,0.49809277589403594,0.2956877663544665,0.869565217391294,1
0.48368029238920063,0.14614398605031742,0.5578252623744367,0.533904242238749,0.2956877663544659,0.8695652173912514,1
0.4836618578715183,0.14737411177939197,0.5580440456331855,0.5215143163981699,0.29363478037544477,0.8695652173912549,1
0.48287149960481446,0.1455029190601726,0.5578504016086132,0.4897506427715324,0.29363478037544566,0.8608695652173388,1
0.4830174956356501,0.14553347530044103,0.5580127883408762,0.5185878629800782,0.2874742172890632,0.8608695652173459,1
0.48255451029189744,0.14735978221214535,0.5578934374867354,0.5373539131717743,0.2915801892471055,0.8608695652173388,1
0.48144393347533987,0.14558625577854317,0.5579453040962548,0.5012844599038105,0.29158018924710505,0.8608695652173814,1
0.4832641377332183,0.1454930055609283,0.5580245415909333,0.4935253030133736,0.2936347803754452,0.843478260869567,1
0.4846463991262262,0.14367981539128283,0.557473568464028,0.5344443620847877,0.28131365420268173,0.8434782608695137,1
0.48427034680718195,0.14739559874831132,0.5574895151231083,0.5245731090021031,0.2895272032680847,0.8434782608695315,1
0.4832716147437537,0.1465231656635213,0.5570725435633311,0.4945605165980426,0.2895272032680838,0.8434782608695315,1
0.48671038942734457,0.14941971209149124,0.5564559848055638,0.5242503156626759,0.2874742172890631,0.8608695652173317,1
0.48417670516612166,0.14928769650973295,0.557854619761155,0.5353761935762058,0.2915801892471044,0.860869565217353,1
0.4842380136814821,0.1493728418876994,0.5564187894612719,0.49752134162749,0.2895272032680847,0.8608695652173814,1
0.4853348611063877,0.14759908554092654,0.5580080540710526,0.5078112571813979,0.28952720326808445,0.8608695652173637,1
0.4847956596294545,0.14920057730349295,0.5576808178646059,0.5382610532014612,0.28336664018170277,0.8695652173912123,1
0.48450667027080085,0.1473337053753177,0.5583575435472932,0.5141138496343806,0.2915801892471046,0.8695652173912372,1
0.4839134898499027,0.14646227296115777,0.5584896471695611,0.4923857943298576,0.2874742172890633,0.86956521739123,1
0.48162645752638544,0.14557830502514546,0.5579722705249918,0.5252088350394779,0.2874742172890633,0.8695652173912691,1
0.4819451810598243,0.149273857199669,0.5578452348157162,0.5338019987485414,0.28747421728906364,0.8608695652173317,1
0.4821843024151635,0.14331811900986924,0.558059289309569,0.49929545548562787,0.28542123131004316,0.8608695652173637,1
0.48442544898324413,0.14633407480529448,0.5578090644858854,0.4994500068280634,0.2854212313100427,0.8608695652173388,1
0.4844295145638442,0.14583964931263854,0.5580799067782793,0.5347221242556768,0.2854212313100424,0.8608695652173459,1
0.4848257340145731,0.1480822175847108,0.5577945641616361,0.5163654039361688,0.28747421728906286,0.8608695652173388,1
0.4847691324506834,0.14503850511479832,0.5580921174095018,0.49280193366800906,0.2854212313100434,0.8608695652173779,1
0.48578226854588724,0.14589832524442686,0.5577825604031048,0.5256063461086572,0.2874742172890645,0.860869565217353,1
0.48196192636944757,0.14299794833666046,0.5581054449091716,0.529943786196678,0.2833666401817021,0.860869565217314,1
0.4848786009250362,0.14440461893636802,0.5577663921900834,0.4947041243874173,0.2854212313100437,0.860869565217353,1
0.4815924199508347,0.1444540980441823,0.5581262763559409,0.5049656134472446,0.28542123131004227,0.8608695652173388,1
0.4836170942382836,0.14674085402389486,0.5577391196277234,0.5394027650261092,0.28336664018170277,0.8608695652173104,1
0.4831586270043269,0.1440932814777423,0.5581528169389743,0.5163103498897895,0.2854212313100447,0.8608695652173886,1
0.4804997175673177,0.14359579914282022,0.5581224476499078,0.49104308292848137,0.2854212313100434,0.8695652173912691,1
0.48256921602530267,0.14375590172282188,0.5626160695550169,0.5227941663018227,0.2874742172890633,0.8695652173912372,1
0.4819268568257995,0.14499011538640005,0.560631357519128,0.5391362959131337,0.2854212313100445,0.8695652173912691,1
0.47980014290469475,0.1431424373031439,0.5592625980786455,0.5012170245900633,0.28542123131004393,0.8695652173912691,1
0.4840980087857857,0.14393005201443237,0.5577717159498412,0.49828325412996294,0.2833666401817031,0.8608695652173708,1
0.4847048162380746,0.1446177050787832,0.5580915981060212,0.5366288075265289,0.28336664018170477,0.8608695652173814,1
0.4833375672535465,0.14717681124125842,0.5577719895860084,0.518347391979808,0.28131365420268284,0.8608695652173708,1
0.48542969473541564,0.14458020520015125,0.5581444482061279,0.4915970138530307,0.28336664018170177,0.8608695652173317,1
0.48484124086165314,0.14841890496332866,0.557665330329923,0.5306637829696249,0.2813136542026834,0.8695652173912869,1
0.4836984841903489,0.14606932333398875,0.5584707543953655,0.5265973080191614,0.2854212313100437,0.8695652173912798,1
0.4845968037869707,0.14610293090574777,0.5583914801409693,0.4912322538211432,0.2813136542026822,0.86956521739123,1
0.48476118239979993,0.14358799182943027,0.5580033279857922,0.5182134201906052,0.283366640181702,0.8695652173912443,1
0.48508283295605403,0.14643777062772523,0.5576932174460142,0.5386585819857875,0.28131365420268306,0.8608695652173566,1
0.48305056629584053,0.1457378476857361,0.558633853635665,0.49909594207953445,0.2813136542026822,0.8608695652173708,1
0.4870126549830127,0.1489938119509442,0.5615651752891607,0.5013078144082048,0.2813136542026812,0.8608695652173459,1
0.48427804946297415,0.1482451539021053,0.5579710365579996,0.5374893147519205,0.2833666401817031,0.860869565217314,1
0.48428992244409075,0.1494553528489715,0.5596567053102863,0.5234008944919247,0.2710471191582595,0.8608695652173033,1
0.48473711023333854,0.1466637623550342,0.5583530221145241,0.49149429278457046,0.28131365420268306,0.8608695652173459,1
0.48664042476069547,0.14939918363398563,0.558816308501259,0.5238747646672824,0.2813136542026836,0.8608695652173708,1
0.4855042492400312,0.15102924998471534,0.5592471474262366,0.5373269225522512,0.27926066822366213,0.8608695652173566,1
0.4858289944177695,0.1484865681119782,0.5592631931330833,0.49817680043233714,0.27926066822366213,0.8608695652173708,1
0.48604409387888414,0.15088044973611014,0.557584319977362,0.505063823650058,0.27926066822366213,0.8608695652173779,1
0.4856635270187718,0.15234046984752658,0.5573195896627626,0.5400638202196821,0.28131365420268206,0.8608695652173459,1
0.4841203222913475,0.1482323034833063,0.5580007829757838,0.5103742324707717,0.27926066822366347,0.8608695652173886,1
0.4849874262431523,0.14809800378986554,0.5579228935380545,0.4939526889491495,0.2813136542026834,0.8695652173912762,1
0.48565591915610584,0.14943317174684778,0.5579578538753952,0.5301720902367072,0.2813136542026826,0.8695652173912762,1
0.4857584313710225,0.1522941020030526,0.5579023895060498,0.5296134851823173,0.27926066822366136,0.8695652173912549,1
0.48516488794710444,0.15058215427836785,0.5580279372632682,0.49031689901727993,0.28131365420268295,0.8695652173912869,1
0.4856732296200009,0.14806603025410414,0.5577211911548956,0.5098315126655122,0.27515309111630215,0.8608695652173637,1
0.48535734239109796,0.14866596970985502,0.5589525051127732,0.5379837665682303,0.2792606682236627,0.8608695652173708,1
0.48483043319645347,0.14853844059428645,0.5589782010385403,0.5118481691203635,0.2772076822446421,0.8608695652173957,1
0.48379381654010356,0.14763747304974878,0.5575211843322825,0.4912828235852598,0.28131365420268184,0.8608695652173459,1
0.4849588857541183,0.1493660339520232,0.5596068087336586,0.5261551844999945,0.2772076822446419,0.8608695652173708,1
0.48676312229530705,0.15054696117296718,0.5576997946975388,0.5333943125556964,0.28131365420268295,0.860869565217353,1
0.4849783191242084,0.15314472392856326,0.5574215876273467,0.4970970367199778,0.27720768224464054,0.8608695652173317,1
0.484936485585972,0.1517234995540283,0.5579653068853941,0.499296098727223,0.27720768224464165,0.8608695652173282,1
0.48553546277012327,0.15056513868378352,0.5580066552516121,0.5384790607702435,0.27926066822366236,0.8869565217391084,1
0.48443940251513196,0.14740384096514292,0.5578118584856694,0.5125510808315256,0.27515309111630104,0.8869565217390836,1
0.4859087801569344,0.14845487016095676,0.5582150791966154,0.49309135482459,0.27515309111630215,0.8869565217390836,1
0.485032012886652,0.14739142381344528,0.5586379014002224,0.5324786363378263,0.27310010513728056,0.8869565217390836,1
0.4845175796933826,0.14818560769302697,0.5578101522063291,0.5311450390281978,0.2772076822446411,0.8695652173912514,1
0.4829001029982287,0.1458599726991478,0.5580427058184083,0.48929463465675543,0.27515309111630093,0.8695652173912372,1
0.48566227620563696,0.1477307085307339,0.5577574720401132,0.5165511393559707,0.27515309111630193,0.8695652173912762,1
0.4847810790930417,0.1478984981963647,0.5589083993462782,0.5415396155210673,0.27720768224464165,0.8695652173912514,1
0.4828929038169534,0.1481940768210236,0.5589764570207927,0.5074188431032552,0.27310010513728056,0.8695652173912514,1
0.4833521239348051,0.1473763590178297,0.5588801164606632,0.4934531574119091,0.2792606682236618,0.8695652173912691,1
0.484808872611466,0.14807819922872784,0.5594211520514024,0.5335356541950684,0.27104711915825985,0.8695652173912762,1
0.4832609522862248,0.14811361705523834,0.5585418591148167,0.5282343611938658,0.2751530911163014,0.8695652173912869,1
0.48445305952885365,0.14938172060540006,0.5579006218794184,0.49251557828415293,0.2751530911163016,0.8695652173912549,1
0.4847356889869554,0.1471627324185224,0.5578885145349561,0.51302688635508,0.2731001051372809,0.8695652173913011,1
0.4840917370697826,0.1502513360118306,0.5580293049739373,0.5392651731354532,0.2710471191582604,0.8695652173912691,1
0.48465506776051925,0.1496507466153993,0.5578308600176356,0.5036110529803594,0.27310010513728056,0.869565217391262,1
0.48606949940799604,0.1467464368838785,0.5580637913124167,0.49974465041056193,0.27104711915825963,0.86956521739123,1
0.4850307084301617,0.14811831625619298,0.5578070171579429,0.5343992907877834,0.27310010513728156,0.8695652173912372,1
0.4860034963466112,0.15263277478984405,0.5580806043054835,0.5258271661277152,0.27310010513728145,0.8695652173912869,1
0.4850114015364333,0.14609666118425207,0.5577986006403729,0.4915823510435691,0.2628335700928587,0.8695652173912762,1
