wrist_ACC_1,wrist_ACC_2,wrist_ACC_3,wrist_BVP_1,wrist_EDA_1,wrist_TEMP_1,label
0.6630681655107369,0.13245535618778753,0.13456809201179099,0.5222756823064989,0.16205468870693673,0.30405405405406327,1
0.673701040039661,0.13109503137422113,0.11664176120254466,0.44816769324374006,0.13833771048972676,0.30405405405405617,1
0.6688750317343166,0.12526473542466232,0.14527236378876596,0.4007320333964132,0.12648231113857544,0.32432432432433345,1
0.699038252845837,0.12671617869073337,0.1068378159440454,0.4400585983349333,0.1304341109222925,0.324324324324337,1
0.6519264190646141,0.17086124737832398,0.14108818590759814,0.4420632209949923,0.10671713270508332,0.32432432432433345,1
0.5963638141341947,0.15726094060591006,0.13471983502018536,0.38789721332875593,0.11462382202997112,0.324324324324337,1
0.5529805831714228,0.21074034986554535,0.0936487327999651,0.43038218509621756,0.11067202224625328,0.3243243243243228,1
0.5333093883331887,0.22627166310697228,0.06019103138281101,0.610003733788884,0.11067202224625405,0.3243243243243228,1
0.572802774439501,0.21893011640239685,0.07038756900843651,0.47708667830545176,0.11857562181368786,0.32432432432432634,1
0.5506482016532941,0.1993707118816278,0.10155868069002189,0.33565996686631117,0.12252742159740526,0.3243243243243228,1
0.5052526623632136,0.15216821177906464,0.21858798742961874,0.5154285221089205,0.1225274215974047,0.3040540540540526,1
0.5194879215680075,0.12658194158686265,0.232128949812946,0.5241385980992109,0.13438591070601003,0.3040540540540526,1
0.5394943930491874,0.10494052695400657,0.24113752773812316,0.3657678101689878,0.13833771048972676,0.3040540540540526,1
0.5660527430337703,0.1012561479501381,0.25250324977647387,0.5367661894768226,0.14229260003089816,0.3040540540540526,1
0.47617778594750493,0.11360432994165898,0.2326958705237132,0.69105814818858,0.14624439981461457,0.32432432432431924,1
0.5179281235616529,0.07206435906507519,0.3037165794603568,0.49196697150850177,0.15415108913950226,0.32432432432431924,1
0.5486040646851325,0.08597595003722697,0.32902519331465996,0.4230706576520288,0.1501961995983323,0.3243243243243228,1
0.49066493810663675,0.08721852895458948,0.29586545816181803,0.5066382597822808,0.14229260003089828,0.32432432432431924,1
0.5221873098138836,0.0841049779788674,0.31305726930758965,0.40358068638909994,0.1422926000308976,0.32432432432433345,1
0.4908987724921415,0.09966864205887965,0.295930953977562,0.3730076603509108,0.14624439981461457,0.324324324324337,1
0.49319974112027887,0.10379048022088377,0.26408653151689876,0.583347783231148,0.146244399814615,0.32432432432433345,1
0.4925022296751182,0.10843572145607999,0.26150528318064903,0.4427031391309764,0.1462443998146149,0.324324324324337,1
0.5186820415959436,0.10151730440620976,0.2309616123811554,0.4215159146943745,0.15019619959833175,0.32432432432433345,1
0.5739095157672074,0.09221458748070555,0.24724630162476308,0.6181807563702642,0.15019619959833208,0.324324324324337,1
0.6451786908714323,0.07061053619007235,0.22833497189583776,0.48301745881275004,0.15019619959833175,0.324324324324337,1
0.6983101827828354,0.061429002176346226,0.21567023410256617,0.43571853100538527,0.146244399814615,0.324324324324337,1
0.6549596731358737,0.062480658684060275,0.2525566078374829,0.6021189138903502,0.14229260003089794,0.3243243243243228,1
0.5922474522432328,0.07207931425572872,0.25534212379464405,0.5279739699271934,0.14624439981461457,0.32432432432432634,1
0.6172506110580849,0.06630726516061586,0.26191714687941936,0.4219454557798654,0.13438591070600958,0.3243243243243228,1
0.6011381963682759,0.06825321647708238,0.25713668909330406,0.6345599515999404,0.1501961995983323,0.32432432432432634,1
0.6129386840672661,0.06713406773385489,0.2657888714348293,0.45905150613648893,0.14229260003089728,0.3040540540540704,1
0.5951109324650791,0.06985645807613461,0.2508925226803426,0.2975918435234592,0.14624439981461468,0.3040540540540704,1
0.6270334875794379,0.06453307802783298,0.26574604420557224,0.498447511912974,0.1422926000308976,0.3040540540540775,1
0.6010525134214071,0.06673982278747559,0.2591875502352573,0.4451304250498781,0.13043411092229285,0.3040540540540704,1
0.6173057463830011,0.06324427202731042,0.2602898455219552,0.4535199984786899,0.13043411092229262,0.32432432432432634,1
0.6179707235114063,0.060151958802675376,0.2567232472804044,0.550880940036682,0.12648231113857622,0.32432432432433345,1
0.6434537328768934,0.055371170019522076,0.28004344406234394,0.43119863592304797,0.13043411092229285,0.32432432432432634,1
0.6290922162914643,0.05329164291465571,0.27595868208810803,0.45134679585378434,0.10671713270508265,0.32432432432433345,1
0.645543508068614,0.05279104734676082,0.27966809439062773,0.5690356072204759,0.12648231113857578,0.324324324324337,1
0.6254357995566687,0.05918380804594281,0.26077120219746225,0.4293855240922671,0.12252742159740448,0.32432432432433345,1
0.6430453048906128,0.06296006703531859,0.25140740021310115,0.42461577354969504,0.12648231113857644,0.324324324324337,1
0.6260553063138692,0.06511930214255746,0.23336071437558764,0.5618356778626094,0.12252742159740448,0.32432432432433345,1
0.6635038865335005,0.06864620108426733,0.25139911738184473,0.4465056513783773,0.1264823111385759,0.3243243243243228,1
0.5999587636186757,0.08708300361443888,0.2104092174278856,0.4388576563868763,0.13438591070601003,0.32432432432432634,1
0.6571409975928306,0.08827409764963329,0.2114921011119645,0.5871933812859836,0.1304341109222935,0.3243243243243228,1
0.6394227689727909,0.10146206728783008,0.16591363308377338,0.5239424433532618,0.13438591070601003,0.32432432432432634,1
0.5674392898303738,0.12832153079323283,0.2110924004081872,0.3773153283599655,0.13043411092229285,0.32432432432431213,1
0.5572046275652649,0.13470112791040878,0.1291273531763753,0.524062159502663,0.13438591070601036,0.32432432432431213,1
0.34561211201304054,0.2001762673812471,0.30126798812913386,0.5466298581468958,0.1343859107060097,0.32432432432431924,1
0.6014322627198219,0.12872821857880318,0.09370526735949547,0.37006470525827523,0.1185756218136883,0.32432432432431213,1
0.47582630232768963,0.12281037855177335,0.294300871768731,0.35075827590743713,0.12648231113857522,0.29729729729729826,1
0.48372110142930874,0.11682236480433789,0.6317733101375581,0.6056159899623312,0.13438591070601003,0.29729729729730536,1
0.7931123134212782,0.019542137156255857,0.553330767187844,0.6225261307312108,0.12252742159740493,0.29729729729729826,1
0.7024816948148551,0.028065358656121475,0.5834144428171276,0.5014573650970922,0.12252742159740537,0.29729729729730536,1
0.6948337876469448,0.01508412543509674,0.5188808623755896,0.3555651225805071,0.11462382202997112,0.29729729729729115,1
0.6812489703075313,0.02886617097105265,0.5632006751254715,0.3703160331189367,0.1185756218136883,0.29729729729729115,1
0.6739529973055746,0.01967946731119058,0.5317885104381412,0.4579063081647817,0.11857562181368786,0.29729729729729115,1
0.6831465851976631,0.02561823292158749,0.5512882191751521,0.4175205063064348,0.11067202224625361,0.29729729729729115,1
0.6760899614364237,0.021451743691989544,0.5350118037445017,0.3817257519074056,0.11067202224625361,0.3243243243243228,1
0.6922398244646673,0.02532368769846438,0.5501814448200849,0.3353070020051606,0.10671713270508354,0.3243243243243228,1
0.6882117026893491,0.017214645652857186,0.5333553423998669,0.5061730406587436,0.1106720222462545,0.3243243243243228,1
0.7033056455811497,0.021356504205902627,0.547051072301388,0.5899240277662579,0.10671713270508332,0.3243243243243228,1
0.6875393158797434,0.01948699730322162,0.532989666733198,0.41438637002921475,0.11462382202997023,0.32432432432431924,1
0.6787465562264304,0.023673099628901795,0.5427175635291119,0.49155941430013816,0.11462382202997112,0.32432432432431924,1
0.680911105508629,0.02098331535151049,0.5274999022850377,0.5992899508371736,0.11462382202997057,0.3243243243243228,1
0.6692784496163965,0.02559934797632718,0.5347567840199222,0.4710215549579413,0.11067202224625439,0.32432432432431924,1
0.6687807710313531,0.02220281468219859,0.52905058376768,0.4053194074882072,0.11462382202997023,0.3243243243243228,1
0.664621294255918,0.02593595568923146,0.5357964670013329,0.5731655198881083,0.1225274215974057,0.3243243243243228,1
0.6750962884264153,0.022193829548840693,0.5297052939331981,0.4889458834902451,0.11462382202997112,0.3243243243243228,1
0.6694196680619233,0.025917375054745007,0.5364054740000339,0.40354578278869263,0.1146238220299709,0.3243243243243228,1
0.6686043778987787,0.022199154707005564,0.5240080408056351,0.5531467500833945,0.11067202224625416,0.3243243243243086,1
0.6683954806801999,0.02595902433873687,0.5283272702076465,0.5529462793706805,0.11067202224625383,0.3243243243243086,1
0.6712252504182927,0.02197024141115439,0.5232300942290795,0.37684633106497034,0.1106720222462545,0.3243243243243086,1
0.6666467324623895,0.022232878064738004,0.5233752978869282,0.4858024811367119,0.11462382202997068,0.3243243243243086,1
0.6688161242757868,0.02073700533211953,0.5151732263353362,0.6082024787726094,0.11067202224625361,0.3040540540540668,1
0.6699235082445812,0.02433158535553731,0.5224078221843318,0.4728475943194867,0.11857562181368819,0.3040540540540704,1
0.6690538892954145,0.02190259739914474,0.5152232285016656,0.3761637779862432,0.1146238220299709,0.3040540540540668,1
0.6656095156095487,0.024041360099627818,0.5232612093405143,0.5520288001366455,0.11462382202997157,0.3040540540540704,1
0.674144796337844,0.020825348654453346,0.517430565837536,0.5616521665943572,0.11857562181368708,0.324324324324337,1
0.6663744885951406,0.02049801490006803,0.5214725730642109,0.40808192345162875,0.11857562181368742,0.324324324324337,1
0.6713951751379201,0.02254243295586844,0.5188221539045157,0.4217650818884301,0.11462382202997123,0.3243243243243441,1
0.6692824134530371,0.02083927245623496,0.5225657830310991,0.5743817522941219,0.10671713270508365,0.324324324324337,1
0.6771011625732364,0.02009374118703361,0.5147708413071012,0.44827799465884854,0.1146238220299709,0.3040540540540526,1
0.6665524640343742,0.023675799897650285,0.5216757396909502,0.42249358313521,0.1146238220299709,0.30405405405405617,1
0.6751223473279696,0.020892684859804722,0.5150449066388879,0.5520879444873289,0.10276533292136592,0.3040540540540526,1
0.6709652968382509,0.02460366754802973,0.5160739947131256,0.5386567085757762,0.11067202224625472,0.30405405405405617,1
0.6440094075421863,0.02074471494666269,0.5028606426820861,0.3759448833309339,0.11462382202997068,0.3040540540540384,1
0.6523326894100403,0.02610749528054479,0.5124509493916558,0.46819494830666153,0.11067202224625383,0.3040540540540384,1
0.6525515046406496,0.02214192838261736,0.5053710682199276,0.5691576138845936,0.11067202224625405,0.30405405405404196,1
0.6571971453402654,0.025927971937621974,0.5164637033572929,0.4720038395191264,0.11462382202997068,0.3040540540540384,1
0.6533322837093528,0.022252438049765955,0.5096948067953296,0.37252306428522874,0.11462382202997057,0.30405405405405617,1
0.6384347485940715,0.027115663468739892,0.5161959363559687,0.522820928346878,0.1146238220299719,0.30405405405406327,1
0.6694492950492102,0.02462382128238194,0.5325199110594061,0.5227525223069495,0.1067171327050831,0.30405405405405617,1
0.6427517320700227,0.029379658276110443,0.533616184564994,0.4002618365674047,0.11067202224625483,0.30405405405406327,1
0.6665278846258307,0.024427772705682527,0.5141609733143369,0.45973159937556307,0.11462382202997023,0.33783783783782795,1
0.54987044060241,0.057708555822161944,0.5230238325202866,0.620367359397582,0.09486173335393144,0.33783783783782795,1
0.5094103285992362,0.060862102157308584,0.49317978949641716,0.5280959260919881,0.10671713270508298,0.33783783783782795,1
0.5351038742350196,0.057666705581703614,0.47853263055763673,0.3709829421562812,0.11067202224625405,0.33783783783782795,1
0.552744403727948,0.0466515697451782,0.46856926517738523,0.3979893667483371,0.11067202224625328,0.3243243243243228,1
0.5421812045821868,0.054607237944937714,0.4820461092422282,0.4530674470910689,0.11857562181368786,0.32432432432432634,1
0.524405725437777,0.05358941281052643,0.4636525868889456,0.39745489945979623,0.09881353313764829,0.3243243243243228,1
0.5495841180739547,0.07684346784278984,0.5320090238360798,0.5242470641519116,0.11067202224625416,0.32432432432432634,1
0.5022707202849868,0.08101017591766685,0.40606521242260607,0.5403111020699116,0.11857562181368786,0.32432432432431924,1
0.506678098620805,0.08646261576405456,0.3044794102041261,0.4433389818945458,0.1304341109222933,0.32432432432431924,1
0.3140174926003413,0.1349500094946402,0.4326859912845667,0.4551944757668035,0.15019619959833197,0.3243243243243228,1
0.4087538001396146,0.10602133190141583,0.4296951883586539,0.8512943226345502,0.11462382202997112,0.32432432432431924,1
0.4704774404917976,0.0839802947188224,0.5009871164524348,0.5612700792280432,0.12648231113857644,0.3378378378378244,1
0.617666428824844,0.04448809257807085,0.49290382367734387,0.280215133665423,0.12648231113857622,0.33783783783782795,1
0.5592870196018669,0.0428452444973384,0.4778897346567364,0.3379339785155948,0.1185756218136873,0.3378378378378244,1
0.577701188521774,0.04635798730703311,0.5024928103948366,0.20411368525741713,0.12648231113857644,0.33783783783782795,1
0.5568933024596754,0.043272424886099226,0.4706944158914371,0.35446764029670574,0.12252742159740448,0.33783783783784216,1
0.563104326997883,0.046123715193294335,0.46087352419287175,0.4620617087936572,0.1225274215974047,0.33783783783784216,1
0.5649370722518616,0.04250399556062323,0.453784669665127,0.6056289593874518,0.11857562181368819,0.33783783783784926,1
0.5916032652651182,0.03620669317331121,0.4464461695706286,0.35274752448198887,0.11857562181368819,0.33783783783784216,1
0.5756999763169691,0.04086325463013818,0.4764734593622076,0.4794740772021905,0.11462382202997068,0.33783783783784926,1
0.5814212405717072,0.04199481869338384,0.4869318406666821,0.7010680806129268,0.11857562181368786,0.3378378378378528,1
0.5830778740554654,0.04106586698072551,0.4815335668902597,0.510124513834798,0.11462382202997157,0.33783783783784926,1
0.5855178608100056,0.04249879159591402,0.4865855331894658,0.4582738308029679,0.11462382202997057,0.3378378378378528,1
0.5805016427759002,0.03905236926947708,0.4845548251565939,0.597947551620212,0.11857562181368797,0.35135135135136863,1
0.5783649758534694,0.04117195361052017,0.4874705866966746,0.4548774433840221,0.11462382202997112,0.35135135135136863,1
0.5772125505478038,0.041121406161135965,0.48389644752586985,0.334542437206264,0.11067202224625361,0.3513513513513722,1
0.5804403680691712,0.044188365176567934,0.4865273356791289,0.5415663308631198,0.11462382202997112,0.35135135135136863,1
0.5709774416353,0.042583598026930125,0.4855658387038212,0.6154152065463536,0.11857562181368797,0.3648648648648738,1
0.5703994396651381,0.047099427465551846,0.4824513156815025,0.3852603636182929,0.11462382202997146,0.36486486486487735,1
0.5611443449254323,0.04680166483038434,0.4771437618783341,0.4585647277443113,0.11067202224625361,0.3648648648648738,1
0.5631785393217994,0.04839814121618485,0.47648204532112387,0.617855617725431,0.10276533292136647,0.36486486486487735,1
0.5617288535293228,0.04584660789505557,0.46565273784950895,0.5043540370529459,0.11067202224625361,0.33783783783782795,1
0.5654734308834876,0.04634786025410431,0.4603147821985788,0.3636653466834523,0.10671713270508243,0.33783783783782795,1
0.5451591744385009,0.047913357558406366,0.45476145282706926,0.4922367785328436,0.11067202224625328,0.33783783783782795,1
0.552186105864314,0.048895536455761834,0.4572663393492076,0.5839293938963256,0.1146238220299709,0.33783783783782795,1
0.5509486289317835,0.04723330493349198,0.459440998322873,0.41226306631191906,0.11067202224625361,0.3513513513513402,1
0.5777918816358651,0.04171076150388403,0.46303908044522224,0.40541347833523855,0.1146238220299719,0.35135135135134377,1
0.5920182472554429,0.03737101814729116,0.4705304608325113,0.5538210043571266,0.11067202224625405,0.3513513513513402,1
0.5976444249480901,0.0357627562988696,0.4665528781482401,0.5057378371010988,0.11462382202997057,0.35135135135134377,1
0.6074299008125545,0.03837866415031471,0.4848180871250908,0.37041558968501687,0.11067202224625383,0.3513513513513544,1
0.5878921099503394,0.05968777454277968,0.4700305534698894,0.4589455877472133,0.1146238220299709,0.35135135135134377,1
0.3236809931174711,0.11633210249905557,0.482197239273039,0.5965792542980101,0.10671713270508265,0.35135135135135087,1
0.4460515806336216,0.09692733111780494,0.49035419722292845,0.4945521197636217,0.10276533292136658,0.35135135135134377,1
0.524816798937258,0.06986412857325869,0.4888435528245935,0.37954602678603827,0.09486173335393244,0.35135135135135087,1
0.5051016486409039,0.06861327433085157,0.48491543978302354,0.49302610711665434,0.0988135331376494,0.3513513513513544,1
0.5208434827105468,0.06031278364331927,0.46617580751225995,0.4840264662442446,0.10276533292136625,0.35135135135135087,1
0.5120189425593891,0.06399195011685782,0.4680347029345813,0.38030080161584456,0.1067171327050831,0.3513513513513544,1
0.5278285553770512,0.061622524215381336,0.45919813880169286,0.48601842167713244,0.11067202224625361,0.3513513513513544,1
0.5122518405426346,0.07604267461033243,0.4530879293420189,0.5454871896424325,0.11067202224625361,0.3513513513513544,1
0.38534538003419094,0.11580337480648384,0.4845341589923012,0.42712717105103354,0.11067202224625405,0.351351351351358,1
0.38154215568671324,0.12102454556897763,0.4645970876391824,0.37705494375761395,0.10671713270508265,0.3513513513513544,1
0.4142748599465722,0.11592039100367063,0.4647622597675166,0.5349939031432258,0.10276533292136558,0.33783783783784926,1
0.4190208590665555,0.1146246563361697,0.45607461074037164,0.4443882850310606,0.1027653329213668,0.3378378378378528,1
0.3805704564416684,0.13327738867925681,0.4685602953330299,0.34240131358394793,0.10276533292136603,0.33783783783784926,1
0.3504183986257746,0.14853656681985383,0.47900163238496485,0.5579918296027755,0.09881353313764951,0.3378378378378528,1
0.34003973771989315,0.15244029524596614,0.4763684780037353,0.6151395108568904,0.10276533292136525,0.3513513513513722,1
0.33575241910658704,0.1595925945050914,0.48653157097396343,0.403471211614957,0.10671713270508199,0.3513513513513722,1
0.3428049196022468,0.15432573120816162,0.4741315751137683,0.4319802068697656,0.10671713270508243,0.3513513513513722,1
0.3652101262132247,0.13977844190471894,0.4586233334975424,0.5827517544153168,0.10671713270508332,0.3513513513513722,1
0.380973349044334,0.13543602200732924,0.4561701165362267,0.4737725190684162,0.11067202224625361,0.36486486486486314,1
0.37361856626957624,0.13463150568911098,0.4606344892674789,0.4121177854634524,0.11462382202997112,0.36486486486487024,1
0.3826201659022933,0.1308622911177852,0.456670308556724,0.5786432045447175,0.11067202224625383,0.36486486486486314,1
0.3877031287580487,0.1308731002374297,0.4665741575015623,0.4950441675008616,0.11067202224625383,0.36486486486487024,1
0.3836717208506434,0.12918780725014156,0.4588511361565762,0.41929859564757965,0.10276533292136492,0.35135135135135087,1
0.3893390745759878,0.1277117510811328,0.46080435974757816,0.5487520077859568,0.11067202224625361,0.35135135135135087,1
0.38792827384725237,0.1268804122501923,0.4602242147302904,0.4949368346195548,0.08300324424532646,0.3513513513513544,1
0.3882468793829671,0.12806739072147233,0.46351466760489435,0.39412742647488413,0.11462382202997123,0.35135135135135087,1
0.3936825301026715,0.12466120367577133,0.4570849348514474,0.5408585861413213,0.1067171327050821,0.3513513513513544,1
0.3863231709448329,0.12830547356716288,0.46330399232608477,0.5124808797772228,0.11067202224625328,0.351351351351358,1
0.3827824878288394,0.13176844111228286,0.4513327793600887,0.4055090596880369,0.09881353313764885,0.3513513513513544,1
0.3595016986064741,0.14178270358564654,0.45105990321133355,0.5171568836849516,0.10671713270508298,0.351351351351358,1
0.3602939485988328,0.14307107913078787,0.4499772852153099,0.5102376382816483,0.10671713270508276,0.36486486486487735,1
0.3465509263799105,0.14909095390806026,0.4551137995501196,0.3896235028061555,0.10671713270508265,0.3648648648648738,1
0.33959121755508237,0.15427408059143277,0.47458720822456674,0.5033442979358493,0.11462382202997112,0.36486486486487735,1
0.3458595205367173,0.15205656752071556,0.46699072997523666,0.5365241539361756,0.10671713270508276,0.3648648648648738,1
0.34546983994940206,0.15153484693135078,0.46713518533202514,0.40666054467911766,0.1067171327050831,0.3513513513513402,1
0.3467884125415761,0.15203068555153376,0.46675817793627233,0.4549740128125269,0.11462382202997179,0.35135135135134377,1
0.34496186971898124,0.15147767729001904,0.46340734404726225,0.5710830996916636,0.1106720222462535,0.3513513513513402,1
0.34732088027593433,0.15207496545766613,0.46505013524259037,0.4608733912347562,0.11462382202997157,0.3513513513513402,1
0.3450774254497059,0.15143483498428317,0.4636711987018613,0.40160320182551,0.11067202224625361,0.3648648648648738,1
0.347509936390314,0.15219031478098322,0.4667162009153475,0.5276554346641245,0.12252742159740437,0.3648648648648738,1
0.3438828818683968,0.15331921849985625,0.46477474363274845,0.5266352808380957,0.11462382202997157,0.3648648648648738,1
0.337779463920279,0.15689971508545342,0.4699133368565706,0.40667746313199576,0.11857562181368853,0.3648648648648738,1
0.3409124901576017,0.15348101800290903,0.46651952876021896,0.4510846543241549,0.11462382202997057,0.351351351351358,1
0.34088444714071464,0.15209995769058654,0.4682061035059172,0.5345158222489625,0.11857562181368786,0.351351351351358,1
0.33962812999019076,0.15210547281069425,0.46518655359003175,0.4370062848524704,0.1106720222462535,0.351351351351358,1
0.33967084991691054,0.15509963260488813,0.4674378602020422,0.4244417860580703,0.11462382202997112,0.351351351351358,1
0.3401220707811956,0.15458891764593224,0.46546792699983963,0.5312754691711988,0.11067202224625361,0.36486486486487024,1
0.3380142257417207,0.1549475837132126,0.4645757469906607,0.47711260166073416,0.11857562181368797,0.36486486486487024,1
0.3340251667550507,0.15493198206105968,0.4695016411851674,0.3876910506964665,0.11462382202997112,0.3648648648648738,1
0.3457325829604867,0.1497765893883357,0.46102938654025055,0.48697196449462865,0.1146238220299709,0.36486486486487024,1
0.35858426424926726,0.143110163683139,0.4424382709129783,0.5381463005605771,0.11462382202997123,0.351351351351358,1
0.36124279373984247,0.1434808583277163,0.443403852163436,0.40979509887448506,0.1185756218136883,0.351351351351358,1
0.3598267950656656,0.14314568229570274,0.4341966285536647,0.43379653661389855,0.11857562181368786,0.351351351351358,1
0.3649436878084108,0.1437089842131299,0.4402605116385934,0.550519139608625,0.11462382202997112,0.351351351351358,1
0.36001301173727895,0.14123791586673684,0.43599062845617836,0.4814229449157101,0.11462382202997057,0.36486486486487024,1
0.36589964117657026,0.1430433339479475,0.44195798639082234,0.3854186902381979,0.11067202224625328,0.36486486486487024,1
0.3377203141716957,0.13811371433323755,0.4321540177144027,0.5136692306122773,0.1146238220299709,0.3648648648648738,1
0.3894347795369625,0.12857335269029707,0.4762537037762684,0.5184056283167648,0.10276533292136658,0.36486486486487024,1
0.4849258678059596,0.11165088281838909,0.5923806998009182,0.4012542569455127,0.11462382202997057,0.3648648648648738,1
0.5423362355585246,0.09962197673158679,0.6210076234647732,0.49689326640233683,0.1185756218136883,0.3648648648648738,1
0.5096458376222921,0.10016641726007663,0.5880486862993385,0.552345797631035,0.11462382202997123,0.3648648648648738,1
0.46584942781903105,0.107900880188038,0.5622435496756708,0.36655106683042593,0.11462382202997057,0.3648648648648738,1
0.4619572189329325,0.11362651407384061,0.5001470396346378,0.4454597956173668,0.11067202224625416,0.3648648648648596,1
0.2896200331142138,0.17722415797064917,0.3825777716593013,0.6729658202241576,0.11857562181368742,0.36486486486486314,1
0.21234349294990884,0.22031455199111627,0.46150259720040665,0.4893627975777708,0.11067202224625416,0.36486486486487024,1
0.3159434627349279,0.1739646957040935,0.38211965566174977,0.3677112201025283,0.11857562181368853,0.36486486486486314,1
0.4044026256383517,0.14093883968992582,0.38513043435662003,0.5014556227974164,0.11067202224625416,0.3648648648648596,1
0.36645090633436794,0.14125614009414122,0.40358798658032197,0.5978403863162852,0.11462382202997068,0.3648648648648596,1
0.3727592889752702,0.13619974660599898,0.3815295226702116,0.4686282100072974,0.10276533292136558,0.3648648648648596,1
0.37398650091860364,0.13577137682010998,0.40115666853722376,0.37956701846804847,0.10671713270508265,0.3648648648648596,1
0.3754338959064526,0.1354543584411988,0.3939053923909192,0.5384101858784476,0.10671713270508232,0.35135135135134377,1
0.38892060636190573,0.13329864552168985,0.40201513759677726,0.49698601647443624,0.10671713270508265,0.35135135135134377,1
0.3940429855378563,0.1380594653224611,0.39063230037433866,0.4031930341395604,0.10671713270508243,0.3513513513513544,1
0.34165005378021174,0.17024779785039446,0.38192787849754545,0.5073852109955472,0.10671713270508298,0.35135135135135087,1
0.3279906708382443,0.22459163120713627,0.3403912512464258,0.5416913208816482,0.11067202224625361,0.36486486486486314,1
0.24457607645125945,0.28889606764130116,0.19375031560559514,0.3980185587129188,0.1264823111385759,0.3648648648648738,1
0.32316010518691396,0.2826726420585807,0.17394127341864918,0.4185830544853345,0.13438591070600958,0.36486486486486314,1
0.3261933491800578,0.25177306248778425,0.20985063657508962,0.5628468152552363,0.12648231113857555,0.36486486486487024,1
0.31815478709566425,0.2141066699802061,0.2729267328837923,0.6721502686171397,0.12648231113857544,0.33783783783783505,1
0.3913038998422277,0.1530845917985033,0.3051747021196318,0.7099212882079885,0.13043411092229285,0.33783783783782795,1
0.47881486798297335,0.10162489281547565,0.37977990304303255,0.28818121142871767,0.12252742159740526,0.33783783783783505,1
0.4771690581258909,0.086192511549952,0.4039635345113542,0.40062292178963965,0.1225274215974047,0.33783783783782795,1
0.45105343597309755,0.08990515654814107,0.3901490387032076,0.2453657893629783,0.11462382202997035,0.36486486486486314,1
0.4541893933291822,0.09324267677150821,0.39606334731237003,0.3199947651742976,0.11462382202997068,0.36486486486487024,1
0.4529756046729225,0.09492803316182002,0.3910391547120936,0.5481298653939953,0.11462382202997057,0.36486486486486314,1
0.44775109815082836,0.09545638392233685,0.3826505609053276,0.509447004054109,0.11462382202997112,0.36486486486487024,1
0.4583541443105834,0.09171919789063865,0.3834261085995312,0.40962275906464085,0.11462382202997035,0.35135135135135087,1
0.4513578184548658,0.09289991566716377,0.37862780108382016,0.47616688437001936,0.1185756218136873,0.35135135135135087,1
0.45320279596423974,0.09271032505994137,0.3762667316746493,0.5839493267983934,0.11462382202997057,0.3513513513513544,1
0.45482367497388887,0.091371661782638,0.3778935977362744,0.4891542946958122,0.11462382202997001,0.35135135135135087,1
0.44957690737740874,0.09432750957881031,0.3751967798350001,0.4199030133717461,0.12252742159740448,0.37837837837837895,1
0.45917842347218574,0.09194805390405342,0.3785617509584934,0.5335416362847548,0.11857562181368819,0.37837837837838606,1
0.45364550442978424,0.09255468812231199,0.37611903356302945,0.548990934540254,0.11067202224625361,0.37837837837837895,1
0.45347164141319996,0.09279087005254655,0.3771968921077746,0.4297136933135761,0.11857562181368786,0.37837837837838606,1
0.4530130502241482,0.09200841358085265,0.37522252173661264,0.4393194898391142,0.11462382202997057,0.3648648648648596,1
0.45781675297896296,0.0940784253432656,0.37882832568521496,0.5477459999604768,0.1225274215974047,0.3648648648648596,1
0.4533493227879538,0.09319521219968158,0.37558759319915924,0.4652715015295593,0.1225274215974056,0.36486486486486314,1
0.4543094658412794,0.09487786977728607,0.37629181519242777,0.4189968589957405,0.11462382202997112,0.3648648648648596,1
0.45731182974249296,0.09489424493651916,0.37010725781182785,0.5211468188409261,0.11857562181368786,0.3648648648648738,1
0.44957452828063693,0.09631158990355643,0.36919399925743146,0.5251417889702337,0.11067202224625416,0.36486486486487735,1
0.4593104838148043,0.09363052854168424,0.3695454538141913,0.40360869326680043,0.11462382202997112,0.3648648648648738,1
0.4545572715291316,0.09621429507215451,0.36675076305832083,0.46651788365580876,0.1067171327050831,0.36486486486487735,1
0.45692818964495785,0.09550183271438256,0.36537888170311317,0.5579248160341332,0.11857562181368764,0.3648648648648596,1
0.45608461228896024,0.09629244356120892,0.36846180154059766,0.46234865458882896,0.11067202224625361,0.3648648648648596,1
0.45174592052602014,0.09550066246308359,0.3655728088420327,0.4046708806320203,0.11462382202997057,0.3648648648648596,1
0.46149619458052044,0.09628606560059261,0.36711869349952553,0.522590534538747,0.11067202224625405,0.36486486486485603,1
0.45295974667689387,0.09550594609196755,0.36424183895414036,0.5336068061209875,0.1146238220299699,0.3648648648648596,1
0.45651469806783085,0.09628573639149979,0.36557640589061113,0.4228463996053874,0.11857562181368786,0.3648648648648596,1
0.4564920225303206,0.09549436059697947,0.3647872729760858,0.4275172724697656,0.09486173335393189,0.3648648648648596,1
0.45400541373074477,0.0963375847521894,0.36656930487720035,0.547670230231967,0.11067202224625383,0.3648648648648596,1
0.4548055942652315,0.09459861428916888,0.36541720575776765,0.4872428763370249,0.1067171327050821,0.3918918918918841,1
0.45410549442721315,0.09606784217262171,0.3642176988861551,0.4000189180730068,0.11857562181368708,0.3918918918918841,1
0.45249876863782734,0.09566462435182743,0.36265653240781864,0.4944080855746115,0.11067202224625383,0.3918918918918912,1
0.45952137058723863,0.09612408679230522,0.36589131230280075,0.5522200401914821,0.1106720222462535,0.3918918918918841,1
0.4546982265489937,0.0956962220953621,0.35980101262301334,0.4408460340349562,0.11462382202997057,0.36486486486486314,1
0.4600269531835607,0.09600511992499705,0.3630837723622055,0.40317628324397947,0.11067202224625416,0.36486486486487024,1
0.45840353958396407,0.09635708844381569,0.3571010606087141,0.5285369605570984,0.1146238220299709,0.36486486486486314,1
0.45449850766869027,0.09667591367294143,0.3608314537863111,0.5427898884851448,0.11067202224625383,0.36486486486487024,1
0.45894531831817587,0.09542767639792565,0.36342391994946427,0.42405585225193954,0.11462382202997023,0.36486486486486314,1
0.45701212969492555,0.09617681725227217,0.36799682678878554,0.4146991385750783,0.11462382202997023,0.36486486486486314,1
0.45573899644141136,0.0941306252173788,0.3642173721391512,0.5477573640233193,0.11462382202997035,0.36486486486487024,1
0.45493632184268895,0.09781446753876422,0.35959597384482317,0.5228839109334674,0.10671713270508243,0.36486486486486314,1
0.4795483661297837,0.10072276382963591,0.3498883894624715,0.4138567031013586,0.11067202224625405,0.37837837837836474,1
0.38862397115264213,0.13483158843120346,0.31743576005365043,0.4245082563552441,0.11067202224625383,0.37837837837837185,1
0.3493164390041341,0.15134963965110837,0.34040761172915135,0.5410404768232235,0.10671713270508265,0.37837837837836474,1
0.3918407387625381,0.14325436830731664,0.3317062719167587,0.48382701606778045,0.11857562181368797,0.37837837837836474,1
0.379378222561918,0.14372663171847744,0.32743972111555486,0.394525765884961,0.1185756218136873,0.3648648648648596,1
0.386872639126716,0.14384059544176575,0.3340165271345953,0.488440744485787,0.1185756218136873,0.3648648648648596,1
0.3540621762421512,0.15497277792831254,0.34240033920168167,0.6155399414994106,0.11462382202997112,0.3648648648648596,1
0.3703585186562136,0.1586713048710668,0.33068975330300754,0.4543915396065347,0.11462382202997112,0.3648648648648596,1
0.36330984094083796,0.16436072589065637,0.29284424285889654,0.40815060967574696,0.11067202224625361,0.3513513513513544,1
0.3716951150886726,0.16847770464746015,0.28002524461946354,0.5331646646368353,0.11462382202997112,0.351351351351358,1
0.37511909622703077,0.1675286074100874,0.28776602641280463,0.5186441641856299,0.10671713270508243,0.3513513513513544,1
0.38460559406970063,0.1629654723569327,0.288630141275073,0.41427531265621753,0.11067202224625383,0.351351351351358,1
0.3723453594933094,0.16807010366640773,0.2924691592620473,0.4603325643995574,0.11067202224625328,0.37837837837836474,1
0.35859170130372564,0.1776586993600771,0.2956474028715792,0.5813847223553578,0.11462382202997057,0.37837837837836474,1
0.3465233934199211,0.1834108842666321,0.2918003359784844,0.47365395431073937,0.11462382202997035,0.37837837837836474,1
0.33475427361441923,0.1959060402764663,0.2939814855844816,0.37693084273604266,0.1146238220299709,0.37837837837836474,1
0.30866180798978693,0.20678752941717743,0.30211724238037097,0.46334203390139833,0.10671713270508243,0.3783783783783754,1
0.3202066223413389,0.2043876328045528,0.2987046249250498,0.49022960783838726,0.11462382202997057,0.37837837837837895,1
0.3345196067163779,0.19864608245012655,0.28396060887352903,0.38260846353909733,0.11462382202997057,0.3783783783783754,1
0.33471253878072416,0.19591529286546316,0.2860552742597976,0.4803282978447746,0.11462382202997068,0.37837837837837895,1
0.35066939185374546,0.18436496536318986,0.28936313314371453,0.562837079895116,0.11462382202997057,0.3648648648648596,1
0.3635771975737506,0.17711652575590947,0.29116056564329496,0.46004883561691157,0.11067202224625328,0.3648648648648596,1
0.3711382685730291,0.17489257500655492,0.2908416566577333,0.3899326348881095,0.11067202224625383,0.3648648648648596,1
0.34116022040295335,0.1868747505562487,0.29380924619464394,0.5503408631552082,0.10671713270508243,0.3648648648648596,1
0.3469167168331645,0.18909034503522604,0.28308105874588163,0.5645251682994987,0.11067202224625328,0.3648648648648596,1
0.32973399812554205,0.20017614429223296,0.2952728037148648,0.4301646020775386,0.1106720222462535,0.3648648648648596,1
0.29327359075009785,0.20954277550993167,0.3120961583604027,0.37052347745721964,0.11462382202997112,0.3648648648648596,1
0.31765035007988185,0.20556720771678488,0.3069004644750034,0.5278848533812118,0.11462382202997112,0.3648648648648596,1
0.3382356207167245,0.1947278627474473,0.27999027728989206,0.5193214717123055,0.11462382202997057,0.3513513513513544,1
0.36092947201211967,0.18522453713438336,0.2831422589893711,0.4103893510962484,0.1225274215974047,0.3513513513513544,1
0.36174383702391943,0.18176586442503812,0.2725426337019659,0.5009155425613607,0.11067202224625361,0.351351351351358,1
0.3668914991181118,0.17770014519576866,0.2759291797279497,0.5906450568401159,0.11067202224625361,0.3513513513513544,1
0.36546492028739097,0.17507537792758027,0.2785575675964119,0.45991135935237754,0.10276533292136525,0.36486486486485603,1
0.37290726242376615,0.17544336866243687,0.28283706717754636,0.433744572776477,0.11462382202997112,0.3648648648648596,1
0.36741806508461894,0.1748352261728453,0.28121262822462256,0.5367105375814711,0.10276533292136569,0.36486486486485603,1
0.3659470723756246,0.1749059525142112,0.281760541427481,0.5188585003013475,0.11067202224625361,0.3648648648648596,1
0.3635405787664412,0.1750282043826128,0.27900930124046663,0.3750185764621262,0.09486173335393155,0.3648648648648596,1
0.3711325696829272,0.17718663571995663,0.27832869731310117,0.44755095748984225,0.11462382202997057,0.3648648648648596,1
0.35461308139068726,0.17902072361070975,0.27771614284044915,0.564596206753331,0.10671713270508298,0.3648648648648596,1
0.4125307450390636,0.17840337408110934,0.27669002848906377,0.46980163827262256,0.11067202224625383,0.3648648648648596,1
0.29342852579581014,0.22158608989299333,0.2634655156858507,0.39228710030343883,0.11462382202997068,0.37837837837837185,1
0.28466793864816187,0.2367565214889119,0.26941486784782764,0.5144185437599146,0.11067202224625328,0.3783783783783754,1
0.32286812528780384,0.22038140425695102,0.25963705336116905,0.5162129647806322,0.11067202224625361,0.37837837837837185,1
0.34746277186772523,0.2035695294525272,0.26009683334239087,0.38018987346605837,0.10276533292136603,0.3783783783783754,1
0.35654094081197607,0.18945381841325082,0.2793229762568224,0.4742264237459404,0.11067202224625328,0.36486486486486314,1
0.35199233463536694,0.1848013660081681,0.2906958242135576,0.6143868811798396,0.10671713270508276,0.36486486486486314,1
0.35351634894210504,0.18305726946014667,0.2807150540826871,0.4481623950540814,0.10671713270508276,0.36486486486487024,1
0.3566665756479217,0.18403295549952842,0.2852912496411938,0.4050751980805334,0.10671713270508332,0.36486486486486314,1
0.3444830003685546,0.18575478843900284,0.28668695674640615,0.5245445025287082,0.11067202224625317,0.36486486486487024,1
0.34643700678338873,0.1861830301670585,0.2881876385813839,0.49726528989889895,0.11462382202997035,0.3648648648648738,1
0.3518411426434792,0.18250239955569653,0.2853711529782612,0.38707126699428795,0.11067202224625383,0.36486486486487024,1
0.34926774509530467,0.18479223096443875,0.29257732878299647,0.4759760712138077,0.11462382202997068,0.3648648648648738,1
0.34821117751446695,0.18349415019554693,0.2898724110094887,0.5607193020134512,0.11067202224625317,0.3648648648648596,1
0.3471362593121494,0.18889887126800725,0.29051780134074623,0.4529778996189876,0.11462382202997068,0.3648648648648596,1
0.3295789900261328,0.19436004153912662,0.2963220977427855,0.4317615211498032,0.10671713270508265,0.36486486486486314,1
0.3334070693473603,0.19622093935103285,0.29123803979586504,0.5518513011831941,0.11462382202997057,0.3648648648648596,1
0.32603882586128174,0.19882104751531443,0.2998855001965901,0.4910823323214751,0.11067202224625328,0.35135135135134377,1
0.3250541899455942,0.19978791059161305,0.29421217741966177,0.4005162438793557,0.11462382202997112,0.35135135135135087,1
0.33151075795388973,0.19901145876271326,0.2892919036772562,0.49821805024315663,0.11462382202997035,0.35135135135134377,1
0.3375497438631915,0.19699833663675864,0.27704902833533307,0.5488206592911659,0.11067202224625405,0.35135135135135087,1
0.3540157629986439,0.19218379307482408,0.2723282873865014,0.4204576191356454,0.11462382202997035,0.36486486486485603,1
0.35542828636412216,0.19220477441296963,0.26785433816129095,0.4195508915887662,0.11067202224625328,0.36486486486485603,1
0.35986054381787913,0.18877173297171906,0.26886989292612673,0.5549614465262712,0.11067202224625383,0.3648648648648596,1
0.3555243817822791,0.1890195498586067,0.27494498922326954,0.521895003136788,0.11067202224625416,0.36486486486485603,1
0.361499963286919,0.18766275366415497,0.2684236871300287,0.42940055482833317,0.10671713270508232,0.36486486486486314,1
0.36220971463902474,0.18460035142187542,0.27446726878395367,0.48714184015765094,0.11462382202997068,0.36486486486487024,1
0.36058122179714025,0.18342966178754666,0.270562060536345,0.5240082467076101,0.09486173335393211,0.36486486486486314,1
0.36166970716529967,0.1838714730518961,0.2753870766687264,0.42909291972260344,0.10671713270508276,0.36486486486487024,1
0.36584499475478405,0.1808817483325177,0.27013760065682857,0.40124064287449956,0.10671713270508243,0.36486486486486314,1
0.37068203183882076,0.17590917460704875,0.2751022900441586,0.5180308323626507,0.11067202224625383,0.36486486486487024,1
0.3692492674018104,0.17591664320222372,0.27351765857628035,0.5010384455259316,0.10671713270508298,0.3648648648648738,1
0.38265754766152094,0.17447003291847812,0.2807950967316788,0.41206181665356995,0.08695504402904364,0.36486486486487024,1
0.3912396084526455,0.1789141110261639,0.2354904084401035,0.49572417678887787,0.11067202224625405,0.3648648648648596,1
0.39524485208139803,0.18710971869755527,0.22472263467409434,0.5295731713437615,0.11857562181368786,0.3648648648648596,1
0.40233950947286035,0.18430308131632483,0.2300442609767612,0.41846076835289114,0.11067202224625361,0.3648648648648596,1
0.38128374135101983,0.19341013666094875,0.23694957920478657,0.4289787353402371,0.10671713270508276,0.3648648648648596,1
0.3697095750938785,0.2027565207288275,0.23229552652398783,0.5911773678841292,0.10276533292136558,0.37837837837837895,1
0.3271766633205372,0.21565939150517194,0.26156646781255616,0.5300765687201909,0.11462382202997057,0.37837837837838606,1
0.3449848304803359,0.21169274056149195,0.2436421053711973,0.355180777941711,0.10671713270508265,0.37837837837838606,1
0.3483522126414884,0.21195968632050638,0.2512654276696759,0.42860047252059397,0.11067202224625416,0.37837837837837895,1
0.35046414008105853,0.20708786332580925,0.23806652150205856,0.5200087423012071,0.11067202224625294,0.36486486486485603,1
0.36883115701513614,0.1963254667393568,0.24822510759240185,0.4571881335225179,0.1106720222462545,0.3648648648648596,1
0.36520662929022607,0.1904730945417365,0.26176443078422595,0.43589018043771377,0.1146238220299709,0.36486486486485603,1
0.3606318904503195,0.19143449519676853,0.2665495818554398,0.5630843429066519,0.11067202224625405,0.3648648648648596,1
0.3599812308308967,0.19143535849219073,0.2629564971966943,0.5100584599790907,0.11462382202997068,0.36486486486487024,1
0.3616173251061271,0.19198886195346415,0.2668960259854446,0.4313614169666873,0.11067202224625361,0.36486486486486314,1
0.3593227733249229,0.19493948993491733,0.2600225018276956,0.48604279255042254,0.11067202224625383,0.36486486486487024,1
0.3412444741775835,0.199525827836318,0.28214957086273185,0.5185740545663309,0.10671713270508243,0.36486486486486314,1
0.33419188539149525,0.19753657006420766,0.2821436383975737,0.4132817856393016,0.10671713270508298,0.3648648648648596,1
0.33682215833934337,0.20022744442014373,0.2837538830757422,0.4197770172066826,0.11462382202997146,0.36486486486486314,1
0.3356039602113726,0.1991547243263901,0.2792601655299235,0.5472769131822314,0.11067202224625361,0.36486486486486314,1
0.33330628300857157,0.2000876321457093,0.2826519440757199,0.5008770737623974,0.11462382202997112,0.36486486486487024,1
0.3375389295442919,0.19937233509949048,0.2792963678438968,0.39106405977476166,0.11067202224625328,0.36486486486486314,1
0.338026910596383,0.1988740737215498,0.2813481421129339,0.4862689778200569,0.11067202224625361,0.36486486486486314,1
0.3605433218733801,0.18986395066231954,0.2626311759988387,0.5631922500322003,0.1146238220299709,0.36486486486487024,1
0.3718998158743383,0.1909052091899408,0.2555884378572628,0.44817540309196446,0.11462382202997146,0.36486486486486314,1
0.3607713066367596,0.19031891624528607,0.2570722346076195,0.44020032598978065,0.11462382202997057,0.36486486486485603,1
0.36722853184811066,0.18798388987886627,0.2597362061542598,0.5493103709092273,0.09486173335393178,0.3648648648648596,1
0.36940874741660323,0.1842735631573711,0.2601957530944272,0.5135149552244744,0.10671713270508276,0.36486486486485603,1
0.37338522861896917,0.18357913342441606,0.2635606448473489,0.41494809559598,0.11067202224625361,0.3648648648648596,1
0.3644415530139382,0.18510275545452803,0.26322495040915805,0.4711430754170885,0.08300324424532712,0.36486486486485603,1
0.36543429539575223,0.18524138019008002,0.2629007029614877,0.5324730156935977,0.11462382202997068,0.3648648648648489,1
0.3716170236520361,0.18988939812634303,0.26113740101840976,0.41464562120423337,0.10671713270508243,0.36486486486485603,1
0.3492128894066103,0.19706541842452097,0.25739153244883417,0.41658743820588884,0.11067202224625361,0.3648648648648489,1
0.3608019176880273,0.19437737416010853,0.2541523307087954,0.5514630710741786,0.09881353313764862,0.36486486486485603,1
0.3625903584850839,0.19384385078256644,0.2600830169537048,0.5123856517208688,0.10671713270508332,0.3648648648648596,1
0.3583373127654589,0.19594284153745173,0.2525423066974719,0.38273291186419833,0.11067202224625405,0.36486486486485603,1
0.3721461942226931,0.19295643538798646,0.2578305574944138,0.46926478821016854,0.10276533292136592,0.3648648648648596,1
0.37810861845210186,0.19801374711520797,0.23973472633628845,0.5667772763919013,0.10671713270508232,0.37837837837837895,1
0.3142142080819674,0.21673690736867246,0.2553760528736053,0.44603165342943685,0.10276533292136592,0.37837837837837895,1
0.3551426153737315,0.20739629362765144,0.2502689497417133,0.42321283301126383,0.11462382202997057,0.37837837837837895,1
0.3497990261940944,0.20772718127455836,0.25245260537613845,0.5435674104981845,0.11067202224625416,0.37837837837837895,1
0.35038748610116977,0.20632776777856426,0.2522799769011385,0.5017560505013275,0.11067202224625317,0.37837837837837185,1
0.3420721843644542,0.20861203897303104,0.2605662104077229,0.44361819444286077,0.11067202224625439,0.3783783783783754,1
0.34609649656685115,0.20677370213292384,0.2509138191174859,0.5116719013758247,0.11462382202997023,0.37837837837837185,1
0.357532930291654,0.2084397674662954,0.25384575817683297,0.5375306855171159,0.11067202224625361,0.3783783783783754,1
0.348891861451192,0.20688042834948045,0.25254465522322134,0.4458509722490182,0.10671713270508265,0.3648648648648489,1
0.34661524132814503,0.20836317540745636,0.25847461804227606,0.40413730722814867,0.11857562181368786,0.3648648648648489,1
0.3469721658541246,0.20694001634693393,0.25214741959244985,0.5308687578329278,0.11067202224625383,0.3648648648648596,1
0.35338947866132386,0.20831382992716074,0.25532137237349745,0.5243831082237669,0.11067202224625328,0.3648648648648489,1
0.35047780260410977,0.2069837273730833,0.24469014861354418,0.42059184615972367,0.10671713270508243,0.35135135135134377,1
0.3387928938444712,0.2082631731731539,0.26974715548128925,0.4391776345098121,0.11067202224625439,0.35135135135135087,1
0.33040765835828834,0.20545553227025776,0.27331016456577295,0.5371916119324253,0.10671713270508243,0.35135135135134377,1
0.35178179418366984,0.2030264330724934,0.2549413503264729,0.46785054756949745,0.11067202224625416,0.35135135135135087,1
0.3655062166485057,0.1995118342515953,0.24455181025030306,0.4209868579365835,0.1067171327050821,0.36486486486486314,1
0.3643539184444534,0.19942146921034298,0.23774211956459507,0.5124277169900138,0.10276533292136525,0.36486486486486314,1
0.3796961490285571,0.19122464438552744,0.24493021606860285,0.49167303135662976,0.10671713270508243,0.36486486486487024,1
0.37584144836661115,0.1927591693147308,0.2405317270381,0.4058321019303595,0.10671713270508298,0.36486486486486314,1
0.37152359131321466,0.19344490492165606,0.24279212696354177,0.514406345351171,0.10671713270508243,0.36486486486485603,1
0.37705050694975295,0.19250804394292087,0.23743935155591592,0.5507004493016158,0.1067171327050831,0.3648648648648596,1
0.3390687380626103,0.20088850688939558,0.2799113678935211,0.42717197698903886,0.09881353313764885,0.36486486486485603,1
0.3161201220887372,0.20862003123703388,0.29678608744993074,0.39417991962020704,0.09881353313764885,0.3648648648648596,1
0.34233244912066174,0.20425698857506902,0.2582763457560377,0.5293691472341634,0.09881353313764829,0.3648648648648596,1
0.32871178660938216,0.20785463334201187,0.2802739791064619,0.4849061349081183,0.09881353313764896,0.3648648648648596,1
0.33032485070305506,0.20572810481580978,0.27724959411834504,0.38969777793779997,0.10276533292136569,0.3648648648648596,1
0.3345108800248249,0.20369362780832834,0.27315108445627434,0.47220746428437793,0.10671713270508243,0.3648648648648596,1
0.35712974092948524,0.2006000639511089,0.253543374000533,0.5422143740881296,0.10276533292136525,0.3648648648648596,1
0.3681759080099106,0.19911252217659847,0.24333903490030415,0.45865391413475226,0.10276533292136647,0.3648648648648596,1
0.35968318903777186,0.19894504323774737,0.2478061940016718,0.4550112945543519,0.10671713270508243,0.3648648648648596,1
0.36448078316131094,0.19984718423844777,0.249315460982147,0.5503117257798855,0.10671713270508354,0.3648648648648596,1
0.3669530925779403,0.1960605977061891,0.24774306404677285,0.46259719350701595,0.10671713270508243,0.3648648648648596,1
0.3659293022011013,0.1996926009472353,0.24831268137842005,0.45341810295297535,0.10671713270508265,0.3648648648648596,1
0.3611854404731778,0.19849955059853058,0.25043770957419,0.5470844889148104,0.10276533292136592,0.3648648648648596,1
0.36666345608910456,0.19697735022918234,0.2501121969765737,0.48434132118963996,0.10671713270508298,0.3648648648648596,1
0.3663430259753262,0.197376880397149,0.248280286498891,0.3891987228409045,0.09881353313764829,0.35135135135134377,1
0.35794153447306576,0.2021365188587108,0.24982340776555928,0.49124971531075334,0.10671713270508243,0.35135135135135087,1
0.33127861964504113,0.207370546824864,0.2643831749329938,0.5592276269532881,0.07509655492043854,0.35135135135134377,1
0.34525817879036436,0.20643741824666473,0.26033802718771226,0.4303704807516949,0.11067202224625405,0.35135135135135087,1
0.3501866370610025,0.19899048198742697,0.2574801826282702,0.4108558755670052,0.11067202224625361,0.3648648648648489,1
0.3537402389314832,0.2006486266871731,0.25771023688569744,0.5461416337828493,0.11067202224625383,0.3648648648648489,1
0.34649435280607477,0.19996497634561233,0.25805591704937825,0.512539186764473,0.11067202224625416,0.36486486486485603,1
0.3464086136135871,0.2011247689680068,0.2646403032440058,0.39583238505621243,0.10671713270508243,0.3648648648648489,1
0.3494112919579987,0.1990836713568927,0.25598342938027396,0.4825823133603367,0.10671713270508298,0.37837837837837185,1
0.36143427686348495,0.1994385952392685,0.25227908174816444,0.5563432651626325,0.08695504402904386,0.3783783783783754,1
0.3781346341424139,0.19880650344725959,0.22884903395787431,0.44072505657803046,0.11067202224625328,0.37837837837837185,1
0.3624281141490685,0.201324441967197,0.23800485299557228,0.4147656010076036,0.10671713270508298,0.3783783783783754,1
0.36477088675427094,0.1995429976680242,0.23960921222773732,0.5459663253401422,0.1106720222462535,0.3648648648648738,1
0.3603362817535547,0.20072669797683446,0.25430401729966745,0.5332923528875797,0.11067202224625361,0.3648648648648738,1
0.348960484969577,0.2019537264661655,0.25461547866018164,0.4382619857638337,0.1067171327050831,0.36486486486487735,1
0.33695192689080355,0.20927128193428518,0.2640684849716961,0.4522848829256887,0.1067171327050831,0.3648648648648738,1
0.34373269903712766,0.20617773507540677,0.25533491115830065,0.5215747212218813,0.09090684381276026,0.35135135135135087,1
0.3405833863122776,0.20901286968265814,0.2641652186927077,0.43930922366128417,0.11067202224625383,0.3513513513513544,1
0.34360750660913153,0.20633775562466422,0.25637285004718496,0.37965845536912857,0.1067171327050831,0.35135135135135087,1
0.34795070687723384,0.20746656362360216,0.2624287995836875,0.5160547996556311,0.10671713270508298,0.3513513513513544,1
0.3505620119276571,0.20213340831770976,0.25277218280405156,0.5362650245365713,0.10276533292136525,0.3648648648648596,1
0.34868734589590844,0.2086647070870824,0.2607820469573935,0.4172335674207864,0.1146238220299709,0.3648648648648596,1
0.3341743908202335,0.20523168995245145,0.24777502340804086,0.4606157869749038,0.10276533292136592,0.36486486486486314,1
0.3490665421700342,0.20280045633939997,0.28408824677482825,0.5558535345626436,0.10671713270508276,0.3648648648648596,1
0.3079813822416603,0.1979928132229824,0.29531332206678346,0.4460342434692551,0.10671713270508276,0.35135135135135087,1
0.2817687254054798,0.1968450226142801,0.41178905643270636,0.4162571080249633,0.10276533292136625,0.3513513513513544,1
0.3916048978961366,0.18856219773494898,0.579460664577655,0.5385499752063662,0.10276533292136558,0.35135135135135087,1
0.7414931623260874,0.22254520599483468,0.8705816742833143,0.5006403532202394,0.1067171327050831,0.3513513513513544,1
0.6241192203518808,0.2223477613435571,0.8033916937009238,0.35353394037753993,0.1304341109222923,0.3648648648648596,1
0.3586377809455713,0.1526804130770849,0.3402840512089512,0.5013091202477222,0.1225274215974047,0.3648648648648596,1
0.31223536177471234,0.1525667566566053,0.4273628927819937,0.5197309719349891,0.10671713270508243,0.3648648648648596,1
0.36232638098654457,0.14411060538317605,0.5037776501104784,0.7373363868489312,0.09881353313764885,0.3648648648648596,1
0.46719193289908056,0.09488431896142496,0.48301499286029426,0.6140705766544344,0.10276533292136569,0.3513513513513402,1
0.42781823159677246,0.07988506810629714,0.5198180473469608,0.19814712037146126,0.10276533292136658,0.35135135135134377,1
0.797437910980296,0.0,0.5968961056347453,0.3816398858351577,0.10276533292136569,0.3513513513513402,1
0.792999279377247,0.05148201047283579,0.6017325756224687,0.35157585033886063,0.10276533292136558,0.35135135135134377,1
0.7583694608365865,0.08220044766847762,0.654763208121302,0.4267293456203667,0.09486173335393155,0.3513513513513402,1
0.85020187449336,0.05887873487617307,0.6899418723948729,0.5960999452953708,0.0909068438127606,0.35135135135132955,1
0.8691311774378789,0.03782453053600554,0.68551071099311,0.6659173248201513,0.09090684381276071,0.3513513513513331,1
0.8980570158588915,0.06177248656067924,0.679561749789666,0.43905452835415826,0.09090684381276126,0.35135135135132955,1
0.8869267550784286,0.047189815059243856,0.6902920943748748,0.7640975711910749,0.09090684381276104,0.3648648648648596,1
0.8942343092894662,0.04105667466983465,0.6631623277638719,0.4780055309721532,0.09486173335393244,0.36486486486486314,1
0.9210250015190701,0.060051094992909226,0.6842401213529186,0.10165600541303682,0.08695504402904386,0.3648648648648596,1
0.8889857438548371,0.04190696455088033,0.6697562325896821,0.5479385484089632,0.09486173335393189,0.36486486486486314,1
0.8382653758148984,0.04650703653419663,0.6600956812960455,0.5410523796076184,0.0909068438127606,0.36486486486485603,1
0.6943519604748727,0.032862390859941304,0.5848558903309468,0.2866207675420118,0.09486173335393178,0.36486486486485603,1
0.5586163340297078,0.05048876962799215,0.526196896954397,0.5889853928951883,0.08695504402904364,0.3648648648648596,1
0.6073001073630384,0.03341169689376211,0.5355753482148502,0.4642716298360914,0.08695504402904364,0.36486486486485603,1
0.662203046719972,0.03339552287480635,0.5325983616638139,0.37456461444066996,0.09090684381276037,0.37837837837837185,1
0.6406406090210943,0.02683264517589512,0.5379406543195662,0.4079470717734236,0.09090684381276071,0.3783783783783754,1
0.6245007596082695,0.03663362033081341,0.5271676016994128,0.575917898987505,0.09090684381276126,0.37837837837837185,1
0.6259534270701099,0.03564528289809571,0.5457786469952589,0.49803293685298927,0.08695504402904419,0.3783783783783754,1
0.6174900566047204,0.03972999663034599,0.534599301320568,0.4505349421576842,0.0869550440290433,0.3648648648648738,1
0.6209676101611092,0.03720926702841504,0.5424491130678901,0.5329739715817275,0.09090684381276037,0.3648648648648738,1
0.6061522055099394,0.03960141073617235,0.5334795754067225,0.4864470386417818,0.09090684381276071,0.3648648648648738,1
0.6321928997796534,0.03793757462139147,0.544090930838203,0.48759959762823957,0.09881353313764862,0.3648648648648738,1
0.6067102747846125,0.034112690345415864,0.5131774903372369,0.5399070293566853,0.09090684381276071,0.3648648648648738,1
0.6430334250574001,0.033134593149965974,0.5373320521425482,0.532610906728594,0.09881353313764885,0.3648648648648738,1
0.5814165720256446,0.04538484929869946,0.5161388560740299,0.36040391260213,0.09881353313764829,0.3648648648648738,1
0.6133139875118321,0.042335876728360367,0.5366666258016815,0.43967264679294626,0.10276533292136592,0.3648648648648738,1
0.5842524160982887,0.03965818389106546,0.5172844046277055,0.5154583945176272,0.10671713270508199,0.37837837837837185,1
0.6561046517946078,0.07594271696209631,0.5545810571151185,0.5249749852471012,0.10671713270508199,0.37837837837837185,1
0.4970399615602947,0.09907001558202888,0.38954350122149356,0.418615333691854,0.10276533292136558,0.3783783783783754,1
0.31178364164401606,0.10924122154597149,0.32650125327528,0.42750871691220127,0.10276533292136592,0.37837837837837185,1
0.3567167574064014,0.18055565343768165,0.3399248183017796,0.4214368873809338,0.09881353313764851,0.37837837837837895,1
0.2520314565338796,0.22793775959733864,0.3270519010872335,0.3463315709619751,0.1146238220299709,0.37837837837837895,1
0.23521035913893817,0.27525945961051623,0.3444860413739206,0.4785322033322265,0.10276533292136536,0.37837837837837895,1
0.22320579585624523,0.2732911695508634,0.4000953685506716,0.5222055914507845,0.10671713270508276,0.37837837837837895,1
0.21125317046013847,0.28159410028722065,0.3906642597358395,0.36996155322099106,0.10276533292136603,0.37837837837838606,1
0.20116026042939883,0.2972547356374813,0.4140660335537207,0.44951627219692736,0.10276533292136569,0.37837837837837895,1
0.1981795963930415,0.3204991167138947,0.4274885746094399,0.5778888592949627,0.09090684381276137,0.37837837837838606,1
0.1900901097002673,0.32742138760537975,0.45268125515698837,0.48016918858927726,0.10276533292136592,0.37837837837837895,1
0.19274552011762036,0.31917102897083294,0.4410974984744828,0.40007075841441986,0.10276533292136603,0.3648648648648738,1
0.1893599718443274,0.3209727548454594,0.45011743855969666,0.5618810377327117,0.09881353313764918,0.3648648648648738,1
0.17618384535790155,0.32745822548817943,0.4320336171637445,0.4764341986933102,0.10276533292136569,0.3648648648648738,1
0.1842754263033095,0.3370582283311694,0.4698434143558461,0.44706687732285216,0.09881353313764885,0.3648648648648738,1
0.15395084742809895,0.295370658997431,0.44130469587113036,0.5686568235528235,0.10276533292136525,0.37837837837837895,1
0.2209576631227249,0.23348902738069816,0.45272657312530035,0.47963982035126,0.09486173335393144,0.37837837837837895,1
0.36321875836165873,0.2687469509613972,0.2738790742827245,0.4551190637901202,0.09486173335393189,0.37837837837837895,1
0.5544451313488405,0.12732086071092474,0.15012430256756926,0.5704611478545464,0.10276533292136603,0.37837837837837895,1
0.513252888477878,0.12678777599452218,0.22793756490938855,0.4341328311763679,0.12252742159740437,0.36486486486486314,1
0.5237241320240695,0.11144040113907139,0.2999062195373059,0.5243803330399132,0.10276533292136603,0.36486486486487024,1
0.4771633405061244,0.08121226484199856,0.35246535949513863,0.7665824526796897,0.09881353313764851,0.36486486486486314,1
0.44274320846803605,0.10600340762275412,0.2750186246048953,0.9325725684778261,0.11067202224625361,0.36486486486487024,1
0.5131627428544381,0.0664326598750859,0.39013263274774407,0.22111098209119906,0.1106720222462535,0.3783783783783896,1
0.5674550853804072,0.043004740670670505,0.44020383239653804,0.09227921917056092,0.10671713270508298,0.3783783783783896,1
0.6139871686731313,0.037610045607234355,0.4745347356284144,0.3420467969889992,0.09486173335393189,0.3783783783783896,1
0.557286297100189,0.03827688889371833,0.39239467496772273,0.4993066923803881,0.10671713270508298,0.3783783783783896,1
0.5425219113529803,0.06891646430864612,0.352457016704138,0.5167310001016379,0.09881353313764851,0.3648648648648596,1
0.49806460559762983,0.06424129623537078,0.3738736185099645,0.4143948970305835,0.11067202224625405,0.36486486486486314,1
0.5298533728549353,0.059945909373384176,0.38976772615971844,0.5643069632239119,0.08300324424532679,0.3648648648648596,1
0.515573113825649,0.06363798095271678,0.4235885579119268,0.4336555216498615,0.10276533292136603,0.36486486486486314,1
0.5237190408354,0.06321285559190842,0.44248239969897224,0.48066427230180214,0.09881353313764818,0.36486486486486314,1
0.45513088712482097,0.0741430053283273,0.4761174295865312,0.5381206210517007,0.09881353313764829,0.36486486486486314,1
0.5074471944115566,0.07573432365894861,0.4656610927786744,0.4395739589370488,0.09881353313764896,0.36486486486487024,1
0.5298769416025881,0.060284288651909546,0.4531465101363715,0.5251865085865568,0.09486173335393211,0.36486486486486314,1
0.5572040488769902,0.04441292453212092,0.4601393360844947,0.5206025603515905,0.09881353313764829,0.3783783783783754,1
0.559254373417933,0.05144620688771939,0.44119210473113496,0.4064253410415215,0.0909068438127616,0.37837837837837895,1
0.50064654427016,0.06310665641200625,0.4609882022980878,0.48864117721012273,0.09881353313764818,0.37837837837837895,1
0.5249671289825336,0.05561170577131641,0.4352214711890581,0.4900465999581767,0.09486173335393178,0.37837837837837895,1
0.5232374465036145,0.061220834317218475,0.4528390519464714,0.44111966497748323,0.09881353313764885,0.3648648648648489,1
0.5335728167896363,0.05538424561327904,0.44810092751291025,0.48753709386696054,0.09486173335393178,0.36486486486487024,1
0.5098530483883739,0.060342413123204874,0.43725377550914735,0.4983826246289484,0.09486173335393211,0.3648648648648738,1
0.5241600931151654,0.06372405584053231,0.4340427068523129,0.4302133228446805,0.09486173335393189,0.36486486486487024,1
0.4787584288335829,0.07043396587462519,0.4323302403892563,0.4734790098324565,0.09486173335393211,0.3648648648648489,1
0.5142620939322757,0.06569792431119897,0.4153631999453084,0.5143435714816874,0.09881353313764851,0.3648648648648489,1
0.5184109062496793,0.06207104234068883,0.4178189893017207,0.4604600157028061,0.09090684381276037,0.3648648648648489,1
0.5157318175596718,0.0652557954160935,0.42052995353434786,0.4525950007669934,0.09090684381276071,0.3648648648648489,1
0.507493267823629,0.06450018684815273,0.42083653457146214,0.5253821580937101,0.09090684381276026,0.3918918918918912,1
0.5144490912012758,0.06614952519646572,0.41418570197687204,0.5152973269319007,0.09881353313764851,0.3918918918918912,1
0.4940506447391257,0.07306439029737433,0.39891928786583986,0.4302033375990089,0.09090684381276071,0.3918918918918948,1
0.5043827081128562,0.07138439836973981,0.3967884869073033,0.45625206230227594,0.09090684381276104,0.3918918918918948,1
0.4842323745416433,0.0793571770682367,0.4030493356625798,0.5194920421849035,0.09090684381276104,0.3648648648648596,1
0.4478784771444627,0.0874622368004413,0.42155892262003336,0.4560094504162437,0.09486173335393233,0.36486486486487024,1
0.4588660158088713,0.08814726950004947,0.4095941457847337,0.4477048408399879,0.09881353313764885,0.36486486486486314,1
0.4551038223724987,0.09061662011332122,0.42071425671444923,0.5059869335622048,0.09090684381276093,0.36486486486486314,1
0.4501915403390365,0.0881058118451169,0.40914883176507444,0.4639938654811057,0.09881353313764829,0.37837837837836474,1
0.4564580945402906,0.0931197011240757,0.42711154239555305,0.42786927727057555,0.09090684381276071,0.37837837837836474,1
0.4548489796798397,0.10089062283819339,0.36943909192418617,0.4823925581970279,0.09090684381276104,0.37837837837836474,1
0.46134109130485546,0.12397623735762148,0.3500286111968209,0.5088142118866023,0.09090684381276071,0.37837837837836474,1
0.2880584975092635,0.21593054938276046,0.3440753549550212,0.42753160439202625,0.09486173335393122,0.3648648648648596,1
0.3655691257885503,0.22261507370765987,0.1545845038031981,0.4513796041556708,0.09090684381276071,0.3648648648648596,1
0.41743141149334306,0.21678081628977774,0.19665658916019663,0.520955094837652,0.09486173335393122,0.3648648648648596,1
0.3991020316228727,0.21987171641004016,0.17311947371226843,0.5082923943053987,0.09881353313764918,0.3648648648648596,1
0.433257355296069,0.21268780634888973,0.18068811519891165,0.39549861356306665,0.09881353313764851,0.37837837837836474,1
0.4190978008899112,0.21189915196519882,0.17738994879552322,0.6980161827461758,0.09881353313764885,0.37837837837836474,1
0.41106021321408814,0.21867302048104503,0.18023533362070376,0.5271706884811489,0.09881353313764885,0.37837837837836474,1
0.413763536037538,0.2229761354542667,0.16232554180953795,0.3694081524924627,0.09881353313764829,0.37837837837836474,1
0.42243883725122033,0.22000831992838543,0.1614030992821247,0.41973782054125713,0.09486173335393178,0.3783783783783754,1
0.45451209165232753,0.21019568877123285,0.16721091663468102,0.4925834921722736,0.09486173335393189,0.37837837837837895,1
0.4365963103262873,0.21532111211810506,0.16870167743647824,0.5297806864880722,0.09486173335393189,0.3783783783783754,1
0.3957946375571666,0.22725795843694557,0.1687235340888834,0.42736738245522254,0.09090684381276071,0.37837837837837895,1
0.40686335140375074,0.22448427689580108,0.17526556267515458,0.47503378730482854,0.0909068438127606,0.3783783783783612,1
0.42974075285198177,0.21542230138678964,0.1650532461524865,0.5293631277102856,0.09486173335393189,0.37837837837836474,1
0.4193445542710649,0.22142105614985197,0.1671677319756179,0.4968619200520082,0.09090684381276126,0.37837837837837185,1
0.4397438793296712,0.22242226478489208,0.16284327885805283,0.43883877839648194,0.09486173335393266,0.37837837837836474,1
0.4187576288079452,0.23191305554478964,0.15430691211418818,0.48492715344158793,0.09090684381276104,0.37837837837837895,1
0.4135642707259216,0.2333329697449275,0.15487105859764705,0.5032663538735013,0.09486173335393233,0.37837837837838606,1
0.42274150993327253,0.22690145991100258,0.1617391357501038,0.4192163163406754,0.09486173335393244,0.37837837837837895,1
0.4445234382340788,0.22298856501613534,0.15442399683733132,0.3994283731906456,0.09486173335393233,0.37837837837838606,1
0.4313731577593354,0.2238947488439274,0.16209012984204052,0.5491441502314593,0.0909068438127606,0.37837837837836474,1
0.4224198293600938,0.22353828177312113,0.16128680888514585,0.4895336810337165,0.09090684381276104,0.37837837837836474,1
0.41902562324668713,0.22278023478751124,0.16380985327881892,0.3718298190400995,0.09090684381276093,0.37837837837837185,1
0.43043374553293656,0.22045215072385643,0.15983434727908957,0.3843432366824785,0.08695504402904397,0.37837837837836474,1
0.42791101671445997,0.2186581170101916,0.1650269002170734,0.56463829295484,0.09090684381276037,0.37837837837837895,1
0.4259973300753036,0.21539927295849853,0.16196909343749522,0.4718994163459231,0.09486173335393211,0.37837837837837895,1
0.4417640996570852,0.207346405279641,0.17344044556586202,0.3953021123080812,0.09090684381276071,0.37837837837837895,1
0.46027934131757237,0.20039890217977213,0.1635577401766251,0.5007461633579768,0.08695504402904364,0.37837837837837895,1
0.4512237192716819,0.20020497516464547,0.16728571722284158,0.5812360554905509,0.09090684381276004,0.37837837837836474,1
0.44845824593132744,0.1968457793986058,0.17826597226467283,0.39626244738726774,0.09486173335393144,0.37837837837836474,1
0.44179373270644673,0.19626182948680987,0.1794414172038647,0.38468531931551003,0.09486173335393233,0.37837837837837185,1
0.4409130274844443,0.19826455750897998,0.17661582301895667,0.5402537795660054,0.07114475513672192,0.37837837837836474,1
0.43787720537271513,0.19903847496437332,0.18019364410983119,0.5731271456649656,0.09090684381276071,0.3918918918918841,1
0.4398232518316083,0.19666692409668274,0.17716838851288802,0.3201569957380457,0.09486173335393233,0.3918918918918912,1
0.4381093562062083,0.19450848139094962,0.18248093048505842,0.37334756251839446,0.09090684381276104,0.3918918918918841,1
0.44762199947099135,0.19281103881053746,0.18299596146423658,0.6483676653073612,0.09486173335393189,0.3918918918918912,1
0.44696160205713087,0.19529677437900061,0.17192730921378085,0.590220069597339,0.09090684381276026,0.3648648648648596,1
0.4448236404548538,0.2001191305510951,0.16150532275283896,0.32858009381323694,0.09486173335393122,0.3648648648648596,1
0.4570195908878849,0.19910585298200834,0.1690793006290749,0.36136973467604944,0.09486173335393178,0.36486486486486314,1
0.4445387263257209,0.20132742484851696,0.17181506100079136,0.6449670181195305,0.09486173335393189,0.3648648648648596,1
0.44084600638537574,0.20509783911756496,0.16635678141630783,0.6001238053809214,0.09881353313764918,0.37837837837836474,1
0.43944204212481963,0.20821137756240354,0.16899935817849865,0.41027286876221597,0.08695504402904386,0.37837837837837185,1
0.4357749691459747,0.20785234618845144,0.16966712400997574,0.37843875001839117,0.07905144446160983,0.37837837837836474,1
0.43783758680205753,0.20749152703950574,0.1730741848024725,0.6020367646103268,0.08300324424532712,0.37837837837837185,1
0.43471090902495024,0.20774152308730076,0.17191079899938966,0.5441848104598889,0.08695504402904364,0.3648648648648596,1
0.43650005231251154,0.20762529300218874,0.1714891791674969,0.4356741062319074,0.0869550440290433,0.36486486486485603,1
0.4237399521952532,0.21063039424265229,0.17178353381687117,0.45883527508237976,0.09090684381276093,0.3648648648648596,1
0.43183760714906794,0.21029272847648572,0.1694781567490693,0.5849417369098044,0.08695504402904386,0.36486486486485603,1
0.42036246567506574,0.21458357487600488,0.17371078521303912,0.45944509563688185,0.08695504402904364,0.37837837837836474,1
0.4233634672757296,0.2152064419879688,0.17102813404330036,0.3700869246417639,0.09090684381276093,0.37837837837837185,1
0.4270884984289097,0.21408436353046534,0.17163764986986613,0.5293337687580232,0.0909068438127606,0.37837837837836474,1
0.42873739826841006,0.2132408709950328,0.17181977732761955,0.6009795701027862,0.09090684381276104,0.37837837837837185,1
0.42428973837371287,0.21593234088059443,0.17382120572601883,0.3943313730257888,0.08695504402904364,0.37837837837835764,1
0.4256022783541964,0.21540306850343094,0.1706723024313293,0.4019467225455001,0.09486173335393144,0.37837837837835764,1
0.42493794129201723,0.21505398151260718,0.1705781380623736,0.5801816331561473,0.08695504402904364,0.3783783783783612,1
0.42690265125890414,0.2144680387417135,0.17053225480380724,0.5467610860112538,0.09090684381276093,0.37837837837835764,1
0.4316060468724541,0.2122012919540462,0.17049424647992134,0.36481487267834156,0.0869550440290433,0.3918918918918912,1
0.42581077680721324,0.21492839622875348,0.1707138942647588,0.4394847545202496,0.09090684381276071,0.3918918918918948,1
0.42907140332494786,0.21384287064057772,0.17018371659651876,0.5942606678105324,0.0869550440290433,0.3918918918918912,1
0.42663845317920723,0.21441768536699474,0.1713490339288119,0.48749885913788343,0.09090684381276104,0.3918918918918948,1
0.426554377790371,0.21483975437938535,0.1672682627561099,0.36448390429909594,0.09090684381276037,0.3918918918918912,1
0.4290286717539926,0.21514922081713128,0.17151442445624687,0.49308274201793817,0.0869550440290432,0.3918918918918841,1
0.4279680561204431,0.21595749286907256,0.1676110496224314,0.5792790720952258,0.09090684381276104,0.3918918918918912,1
0.4279869682548548,0.21527049548885174,0.16661308312852285,0.4249660810551347,0.09090684381276071,0.3918918918918841,1
0.4314874319708286,0.21606619209426942,0.16494645677103853,0.3841929605634176,0.09090684381276071,0.37837837837836474,1
0.43283299707358613,0.21477437855743087,0.16702693809379898,0.5593712959042254,0.0869550440290433,0.37837837837836474,1
0.4406443787774278,0.2131688923558528,0.16451783704627831,0.5411703409961656,0.08695504402904364,0.37837837837836474,1
0.4344525315912884,0.209554873015812,0.16657388637508402,0.3906567393783694,0.08695504402904386,0.37837837837836474,1
0.45196088223132724,0.2070600339360234,0.16678803778091522,0.43207694517710377,0.0869550440290433,0.3783783783783754,1
0.4364303996503891,0.20797685108955566,0.16844775007688367,0.5721476527624724,0.09881353313764829,0.3783783783783754,1
0.44348771876505355,0.20739914155046907,0.16977157827915068,0.4502692736725553,0.09090684381276104,0.37837837837837895,1
0.4416096244830029,0.20781687490318784,0.1656033987536054,0.393386813464328,0.09090684381276104,0.3783783783783754,1
0.44176178633710905,0.2075296069742243,0.16835418026282378,0.49969228728126697,0.09090684381276026,0.3648648648648596,1
0.4435016072398218,0.20588127823221114,0.16896741955622574,0.5078034131748483,0.09486173335393189,0.3648648648648596,1
0.44020860186073063,0.20727631253089157,0.16972061950778528,0.3549325528635658,0.0909068438127606,0.3648648648648596,1
0.43911893984890116,0.20795400185399376,0.17013436170791013,0.46422183329355127,0.09090684381276071,0.3648648648648596,1
0.44301857262591227,0.20728683791091884,0.1700534928695206,0.5860312423247109,0.08695504402904364,0.37837837837837185,1
0.43911643965168123,0.20810785543923016,0.1701178808109845,0.43177430302532505,0.09486173335393178,0.37837837837836474,1
0.4491962743401171,0.2067992691253397,0.1638941869203605,0.36805299526190527,0.09881353313764885,0.37837837837837185,1
0.44529446298827646,0.21278846962307874,0.15792999509068806,0.5666742130254455,0.09090684381276104,0.37837837837836474,1
0.42464699133838335,0.22493938753243392,0.15892684673994417,0.5606247139346731,0.09486173335393178,0.3783783783783754,1
0.39080762072028175,0.23389666094706496,0.17515556707230712,0.3828959908580994,0.09090684381276071,0.37837837837837895,1
0.40165137034483733,0.2367606658730299,0.16467879128656138,0.42848814233654553,0.09090684381276037,0.3783783783783754,1
0.40829399039503267,0.2338716433536785,0.16672301783464838,0.6065590892839074,0.09090684381276071,0.37837837837837895,1
0.40072774605292616,0.2312402480205028,0.17287195810204176,0.5110130795256719,0.09881353313764851,0.37837837837837895,1
0.39628126222086346,0.23176167524554714,0.17770540084351477,0.3471403369645154,0.09486173335393178,0.37837837837837895,1
0.3914638739924807,0.23123724332901852,0.17889343333968638,0.49198189470870546,0.09090684381276071,0.37837837837837895,1
0.3976904249998423,0.22802389737184992,0.17805672066193,0.5930260612594124,0.08300324424532712,0.37837837837837895,1
0.38953158941404653,0.23014646825670126,0.18279790467863066,0.41915233813405867,0.09486173335393144,0.37837837837837895,1
0.39100098164215846,0.23202178860038553,0.18058987407211852,0.4701221230799799,0.09090684381276071,0.37837837837837895,1
0.3908076669137326,0.23129857191440112,0.18171349805203318,0.5638499357994209,0.09486173335393189,0.37837837837837895,1
0.38721906887130386,0.23181376587881602,0.1847031907587915,0.45712288602166234,0.09090684381276071,0.37837837837837895,1
0.3899597473484666,0.23137153763261742,0.18524675118375195,0.3896615833147677,0.09090684381276026,0.3783783783783754,1
0.3859330180299114,0.23181082732279917,0.18334017933100216,0.5601015884282712,0.09881353313764896,0.3783783783783754,1
0.3876513218163785,0.23109194958953388,0.184886121774072,0.5088275974716078,0.09090684381276071,0.37837837837837895,1
0.3900203434765275,0.22618042974931984,0.18048169863200808,0.3812012965573859,0.07509655492043887,0.3783783783783754,1
0.3955667263975817,0.21883740586749756,0.19352860307322733,0.48380135440181166,0.09486173335393122,0.37837837837837895,1
0.38982445058390836,0.2144261252067986,0.19819328108612036,0.5683338573810989,0.09881353313764885,0.37837837837837895,1
0.39794584953856327,0.21531772743711525,0.1963806378198586,0.4061265510390343,0.0869550440290433,0.37837837837837895,1
0.3893282050468554,0.2157114190217137,0.19660974795792588,0.4240310299194707,0.09090684381276104,0.37837837837837895,1
0.39712462824214445,0.21559127984988574,0.19587746807265,0.5275699145090733,0.09090684381276037,0.3513513513513402,1
0.38937214908372486,0.2214665743087339,0.19259834398254466,0.4619468634525579,0.09090684381276026,0.3513513513513402,1
0.37759891358606923,0.22597239970218774,0.19848030326700533,0.38127202907855084,0.0909068438127606,0.35135135135134377,1
0.36361297386198366,0.22874856847333525,0.20200796767990492,0.5279700494595915,0.0869550440290443,0.3513513513513402,1
0.3844641514534194,0.2193569567528808,0.19713195737352332,0.5467418430992775,0.09486173335393111,0.3648648648648596,1
0.3988374578586886,0.21539188937325687,0.20411662770975159,0.41528463045139635,0.09486173335393178,0.36486486486486314,1
0.3840621531178007,0.21581605944473925,0.19635899415311775,0.4785905356786113,0.09486173335393211,0.3648648648648596,1
0.39281806324685886,0.2154180198890982,0.20066996161873168,0.5499329187127657,0.09486173335393189,0.36486486486486314,1
0.36389433853937936,0.22225989297817467,0.1994717847077354,0.4109061254380456,0.0909068438127606,0.35135135135134377,1
0.35277565659238186,0.2206018657545636,0.2254904482652654,0.4284130678884648,0.09090684381276104,0.35135135135134377,1
0.3888697590466228,0.20981204554712152,0.20105310698757065,0.5733423932074386,0.09090684381276126,0.35135135135135087,1
0.38917088399567124,0.20932334804034347,0.20836727866586757,0.4924744026129987,0.09090684381276093,0.35135135135134377,1
0.38758212613019527,0.20971940994913724,0.21448321995072708,0.38889024548836465,0.08695504402904386,0.36486486486486314,1
0.3867675561634001,0.2075787729713211,0.20700204959187463,0.5728363064097756,0.09486173335393189,0.36486486486487024,1
0.3956395132548598,0.21295154566888475,0.20591609568538166,0.5784577019693873,0.09090684381276093,0.36486486486486314,1
0.36281402676874475,0.212406909541826,0.19451312087179012,0.44459536349724227,0.08695504402904364,0.36486486486487024,1
0.29885913365379635,0.209134906678124,0.3468422594752115,0.48861610522074655,0.09486173335393155,0.37837837837837895,1
0.3341523270588842,0.19708743055558853,0.4323757320009158,0.48037651426582284,0.11067202224625317,0.37837837837837895,1
0.28084440995548454,0.20506188685713894,0.35586020177296773,0.39100835994525596,0.304347288737834,0.37837837837837895,1
0.25680172185072614,0.2237148252655955,0.3631593522264037,0.29486715754611703,0.2766785107369074,0.37837837837837895,1
0.3201173049577266,0.20293818434736183,0.3086826207973613,0.5567117389875138,0.22924764405994136,0.3648648648648596,1
0.2994627885314579,0.20439918723204553,0.3421977130083129,0.7733286424538157,0.2094855553839028,0.36486486486486314,1
0.27992881753916443,0.19726482417923014,0.348582856872855,0.4337084118004515,0.16205468870693673,0.3648648648648596,1
0.38564288710736894,0.1536310503342599,0.44277139626648465,0.24602941684105115,0.1541510891395026,0.36486486486486314,1
0.3652951202262471,0.14494628147359906,0.477467024394271,0.45412597735892074,0.10276533292136558,0.37837837837837895,1
0.3688552427408378,0.14268374554328794,0.44446237786954573,0.35053258204426707,0.10276533292136569,0.37837837837837895,1
0.32175360397288244,0.15876320676428302,0.45774748243993335,0.3235491047417752,0.07905144446161017,0.37837837837837895,1
0.3460815420594263,0.15467155625075368,0.4554268972157207,0.2600023114322747,0.09881353313764818,0.37837837837837895,1
0.34768548752500306,0.15081360988848808,0.4465354038145012,0.3134035001209066,0.09881353313764896,0.3513513513513544,1
0.34253100765383604,0.1527333580030295,0.4503596851765886,0.5143145818741695,0.09486173335393244,0.351351351351358,1
0.3413924547066739,0.15152468431012084,0.4429752685182524,0.7974766414626486,0.09486173335393189,0.3513513513513544,1
0.33871188903837357,0.15362408609228445,0.44945987370986545,0.5717529257670178,0.08300324424532712,0.351351351351358,1
0.3614320894913984,0.15063052461737042,0.42777814245565987,0.5174670897713552,0.08695504402904353,0.3513513513513544,1
0.3419262572577719,0.17291797562877087,0.37866917020851454,0.686741256554296,0.08695504402904386,0.3513513513513544,1
0.28426232941235274,0.2012446794246327,0.24643932524112275,0.5565292644007105,0.08300324424532657,0.351351351351358,1
0.5808536774457054,0.13785504260841008,0.13171697214417055,0.43401448721085434,0.09881353313764918,0.3513513513513544,1
0.5818387045399427,0.10748090401900706,0.224913934519835,0.6008604361457868,0.10671713270508243,0.37837837837837185,1
0.5595264890843512,0.10156174435003995,0.24281102871320323,0.5213010918225875,0.10276533292136603,0.3783783783783754,1
0.5368546324788235,0.10416476238161754,0.22776299788400925,0.5897973570252932,0.10276533292136558,0.37837837837837185,1
0.5512968161442491,0.09780929280138229,0.24081497153491294,0.8730779808473352,0.10276533292136603,0.3783783783783754,1
0.5271600986594716,0.08788308178404464,0.2581907145513531,0.27748440755816994,0.09881353313764885,0.3648648648648596,1
0.6005313780488464,0.06411754478441806,0.3112867621183824,0.2158420164029064,0.09881353313764862,0.3648648648648596,1
0.6278858400337818,0.056594705049601735,0.2847115913151983,0.44003018775379266,0.09486173335393211,0.3648648648648596,1
0.6375163785048888,0.0652261337304112,0.23606521776075215,0.5033974836855967,0.09090684381276071,0.3648648648648596,1
0.6371381268812434,0.06452675336080138,0.24455410102652322,0.33365289326425135,0.09486173335393189,0.35135135135134377,1
0.6101113799597557,0.07408716459538633,0.24347424982144075,0.46266756667224695,0.10276533292136658,0.35135135135134377,1
0.5648366922196071,0.08137329331191362,0.24995388613893668,0.5906281861086177,0.10276533292136603,0.35135135135134377,1
0.6255188435968777,0.060989082880800904,0.2723460098986994,0.5383920997754437,0.10276533292136603,0.35135135135134377,1
0.6225873015521399,0.055105871640251713,0.28332427776103664,0.44290219187095414,0.09881353313764829,0.3783783783783754,1
0.5996938907545304,0.053474777159840226,0.2867444394424181,0.4225301618948474,0.10276533292136569,0.3783783783783754,1
0.65747706609858,0.03800446517891415,0.2985028873124515,0.35175988527484214,0.10276533292136558,0.37837837837837895,1
0.7090930923726,0.03149726737669589,0.2857592485600397,0.45673254158064264,0.10276533292136603,0.3783783783783754,1
0.7404553366976743,0.03494566472867122,0.2599771028669684,0.4738535892840596,0.10276533292136536,0.3648648648648596,1
0.7125729562680171,0.05767364828655536,0.22759399494936214,0.4257502496794626,0.10671713270508298,0.36486486486486314,1
0.6133845712097402,0.07926659373356931,0.2116862723291257,0.5326928930681618,0.10276533292136536,0.3648648648648596,1
0.6163815589870898,0.08069600901032009,0.20621473002907326,0.6699684856746888,0.11067202224625361,0.36486486486486314,1
0.6094179637454411,0.0710841250897225,0.24570837440598844,0.44287800530410926,0.10671713270508265,0.36486486486485603,1
0.6093697435127876,0.06338029538021661,0.28438189061995645,0.43580046343105816,0.10276533292136558,0.36486486486485603,1
0.6184216173814019,0.05463274490424852,0.28522298326265305,0.4863800405052846,0.10276533292136603,0.3648648648648596,1
0.6118280936072764,0.056408107437543153,0.2968137898566282,0.3905272318064489,0.10276533292136558,0.36486486486485603,1
0.5737615615245575,0.06688185462537105,0.2691018832584826,0.45528935852772967,0.10671713270508232,0.3648648648648596,1
0.6269968979942284,0.07515748567309716,0.264404286747128,0.35823129462763004,0.09090684381276126,0.3648648648648596,1
0.4836600248384649,0.0866196427372562,0.24845940448360304,0.4014887609501584,0.11067202224625328,0.3648648648648596,1
0.49501566686684473,0.09165976244361157,0.4098681759519658,0.5326661484592857,0.10276533292136603,0.3648648648648596,1
0.48313178895564995,0.09039471743943761,0.41772013364523375,0.47645833068338467,0.09881353313764829,0.37837837837837895,1
0.40880101675781966,0.11206194155520816,0.3342365179205692,0.5113408076618792,0.30039548895411694,0.37837837837837895,1
0.4227836251266788,0.12427136018633311,0.4395508936343427,0.6197946971444435,0.18972346670786333,0.37837837837837895,1
0.3618753363855919,0.13413283043838514,0.42350783575068374,0.3867930884862537,0.20158195581646865,0.37837837837837895,1
0.35584421708286607,0.14284209103783135,0.4948508217245779,0.4004368953777004,0.19762706627529714,0.36486486486485603,1
0.43914883766628865,0.12857193998632993,0.34029712164868364,0.5201892877884728,0.1581028889232199,0.3648648648648596,1
0.43536688226415843,0.15264921955788802,0.25875259313890947,0.5255564893171492,0.10671713270508276,0.36486486486485603,1
0.370143577018634,0.21136597131269036,0.18818392426413655,0.36332782295766625,0.08695504402904397,0.3648648648648596,1
0.3867231755910453,0.23640197341782637,0.16190170257036746,0.4719691694510473,0.08300324424532624,0.3648648648648596,1
0.4305801027424315,0.22038704609827625,0.15492372362276302,0.5218820305895717,0.0830032442453269,0.3648648648648596,1
0.4518897348414317,0.2173789043889915,0.15664046513859092,0.4599684939506468,0.08300324424532712,0.36486486486486314,1
0.440526634765703,0.2116183703870016,0.16561947577581576,0.6666059687850925,0.07509655492043898,0.3648648648648596,1
0.4358985650723969,0.21265442172607268,0.17450800632634023,0.618119919788004,0.0790514444616095,0.35135135135134377,1
0.4226014242478443,0.2135049149693804,0.17245842463267952,0.40916644090588317,0.0750965549204392,0.35135135135134377,1
0.42856331760977295,0.21832841789806956,0.16369213940452426,0.3863777556733918,0.08300324424532657,0.35135135135134377,1
0.42357971764755753,0.2214632344291132,0.15798828333476822,0.48074357782578087,0.08300324424532757,0.35135135135134377,1
0.43466936895286623,0.21936395457968483,0.16557785272352732,0.40547759873542594,0.07905144446160972,0.35135135135134377,1
0.4223485888025842,0.22312660698019965,0.1638979144707442,0.4455818701328971,0.07905144446160983,0.35135135135134377,1
0.434234754038353,0.2231314462739029,0.16251153040031252,0.5301145015565374,0.07905144446161005,0.35135135135134377,1
0.43348599727336024,0.21876679128391752,0.1616682134155164,0.4408194539782102,0.07905144446161017,0.35135135135134377,1
0.4354645946401047,0.2231940256047668,0.16153272122445395,0.4297703690965584,0.07905144446160939,0.3648648648648596,1
0.42611619668057865,0.22338131779383474,0.16069211054606902,0.5352740313070362,0.07905144446160983,0.3648648648648596,1
0.42954770908038575,0.22166601667050662,0.16223172000200614,0.43412317222013386,0.07509655492043832,0.3648648648648596,1
0.4427180525103108,0.21350084496782984,0.15906596812290252,0.46883744578357384,0.07905144446161017,0.3648648648648596,1
0.4471960869841477,0.2087874314768457,0.1643270741565913,0.5226660124740579,0.07905144446160972,0.3648648648648489,1
0.4446509912722155,0.20873466360974835,0.1627327921383061,0.42595027647913203,0.07905144446161017,0.3648648648648489,1
0.4500221483496909,0.20713445561751542,0.1622248193391217,0.47883371245692713,0.07905144446161017,0.36486486486485603,1
0.44477730124901194,0.2093928404582791,0.16111019422144884,0.517977109736812,0.07905144446160972,0.3648648648648489,1
0.4422293668389432,0.20984896299591482,0.16464974473879834,0.4089569928670118,0.08300324424532712,0.35135135135132955,1
0.43453649580696163,0.21408891672164693,0.16155135011075977,0.5179840577200765,0.0830032442453269,0.3513513513513331,1
0.43753980867428155,0.2162308066261457,0.1625215830368077,0.4843917205243841,0.08300324424532657,0.35135135135132955,1
0.42807514764156485,0.21525972624157247,0.16318186183840294,0.41047006019636423,0.07905144446161017,0.3513513513513331,1
0.43546651705719397,0.2158485201462797,0.1605587638638672,0.5339570203198634,0.07905144446160939,0.35135135135134377,1
0.44531536120438986,0.2151024289481842,0.1584608471028705,0.5212381627843492,0.07905144446160972,0.35135135135134377,1
0.4524379896391665,0.20776554758006305,0.15430399063139738,0.40115044927066634,0.059286266028116597,0.35135135135135087,1
0.4710619576521006,0.20333254981863752,0.1534583074269898,0.5137192296546992,0.0750965549204392,0.35135135135134377,1
0.48516507470878745,0.2004349725985448,0.14819395012002584,0.5600092813121686,0.0790514444616095,0.3513513513513544,1
0.4760080912621972,0.1994518632210236,0.14979136699946688,0.4543616533633359,0.07905144446161005,0.351351351351358,1
0.4865764906599962,0.1995524040068084,0.14818667779303696,0.4089730785121224,0.063241155569288,0.3513513513513544,1
0.481487944798587,0.19862451368420236,0.1524265301580307,0.5666709047433862,0.07509655492043898,0.351351351351358,1
0.4866646168102048,0.2002389341547644,0.15052110393000356,0.5157143370773598,0.07905144446160917,0.36486486486486314,1
0.4756028965906946,0.2065920117838806,0.1435915354204973,0.40511500620641827,0.06719295535300485,0.36486486486486314,1
0.4781040979096755,0.20780885719630343,0.1375296837867681,0.4289027201288192,0.07905144446160972,0.36486486486487024,1
0.46983751064681434,0.20759589819512786,0.14760732432140555,0.5500837071881414,0.07905144446161017,0.36486486486486314,1
0.4769717805007718,0.21029007759749063,0.14828840291118173,0.4776178218954131,0.0790514444616095,0.36486486486485603,1
0.42544230679868933,0.22162472766693858,0.1615039562769811,0.42464378572847405,0.07905144446161017,0.3648648648648596,1
0.44672935155284355,0.22011322974481629,0.15037095296018427,0.49658870051588533,0.07114475513672158,0.36486486486485603,1
0.40868753948034,0.23586709792534838,0.16691141442648633,0.5300855673267679,0.07905144446161017,0.3648648648648596,1
0.36727729506522866,0.2451534487063675,0.16451200565883983,0.4183838199566814,0.07509655492043865,0.35135135135134377,1
0.44535458971071895,0.2231450742610076,0.15556704408867533,0.4473839002619684,0.08300324424532657,0.35135135135134377,1
0.4390767223110801,0.21196346278263067,0.1607978672229191,0.5497553024278741,0.07905144446160972,0.35135135135134377,1
0.4565586932577729,0.19604067662956132,0.17744679212498465,0.5036510974790738,0.07509655492043898,0.35135135135134377,1
0.43919753395085714,0.19359006110797783,0.18454457010915182,0.4064645677864683,0.07905144446160939,0.3513513513513331,1
0.44131474901700185,0.19418415531102445,0.18093957789393494,0.4509665017728757,0.07509655492043965,0.3513513513513402,1
0.4261762409018406,0.19770124567226188,0.18267835991143633,0.5233006085248554,0.07509655492043865,0.3513513513513331,1
0.44216511112358314,0.19324593422751912,0.18755378751319984,0.4610101127186736,0.07114475513672192,0.3513513513513402,1
0.4633566863946422,0.19121125694827812,0.1665407982038824,0.38762727207365527,0.07509655492043854,0.35135135135135087,1
0.48921034214770037,0.18807582826215546,0.15079281135856398,0.5244556650206696,0.06324115556928767,0.3513513513513402,1
0.4989746343313282,0.17808257690172602,0.16089364181492394,0.521085645810296,0.07905144446160983,0.35135135135134377,1
0.5068346253139602,0.17580263767335313,0.16723567579088627,0.44051187599189445,0.07905144446161017,0.3513513513513402,1
0.4848713850195211,0.17021937760467043,0.16910000352154686,0.4935612449976615,0.07905144446161017,0.35135135135135087,1
0.45700306394798196,0.1782342174354664,0.18419150825486236,0.626271161079413,0.08300324424532746,0.3513513513513544,1
0.45777312281029703,0.1529817744634695,0.19037204653884016,0.4571248391804861,0.07905144446161005,0.35135135135135087,1
0.42347318009803536,0.1563603225777021,0.307734071706812,0.3975134383326657,0.08695504402904386,0.3513513513513544,1
0.38762037249852865,0.16086859306263102,0.1958746760435059,0.4192001803007088,0.08300324424532657,0.33783783783782795,1
0.560034681433548,0.11934713851852036,0.17487206070146527,0.5137190682668155,0.08300324424532679,0.33783783783782795,1
0.7018894980025223,0.057217094835397386,0.5796499601940592,0.42928558587345345,0.07509655492043898,0.33783783783783505,1
0.6017624407332136,0.02880968999447725,0.4013077799664225,0.562815487548391,0.0,0.33783783783782795,1
0.42209736039458123,0.11288755083281904,0.5687619519038566,0.48662169118959464,0.04347597713579465,0.35135135135135087,1
0.47413269283062326,0.09041420572907788,0.5420254314141557,0.5198677558645186,0.05928626602811782,0.3513513513513544,1
0.46107362532985385,0.09415340892803425,0.5447416616519789,0.37967406656352765,0.05928626602811726,0.35135135135135087,1
0.5015810792524501,0.09691205694433552,0.5688594398128137,0.4264980345890663,0.06324115556928811,0.3513513513513544,1
0.5332326202284229,0.06559536458810333,0.525891939145843,0.4273759712716397,0.05138266646068279,0.351351351351358,1
0.5571419887859146,0.048681474808258185,0.5061349113016775,0.3775906044161494,0.031620577784643666,0.351351351351358,1
0.5947477298340273,0.045610211315096405,0.5201767738439215,0.644881778884216,0.019762088676039347,0.351351351351358,1
0.5882832387695891,0.042878951442789304,0.523741179441704,0.6203452308808672,0.019762088676039458,0.351351351351358,1
0.5903189033059197,0.046980513770292276,0.5246793677814618,0.28692535109769945,0.02766568824347282,0.35135135135135087,1
0.5676041664895757,0.04953049607560761,0.515148550231823,0.3997570612739418,0.03557237756836129,0.3513513513513544,1
0.5651444706301963,0.050932019697394415,0.5224428319934271,0.5440604766279431,0.039524177352077805,0.35135135135135087,1
0.5730680434176256,0.0478613355040014,0.518026160665268,0.3773345737046614,0.03952417735207814,0.3513513513513544,1
0.588945229880643,0.04806522533577118,0.525888672874721,0.4793159347592314,0.03952417735207714,0.35135135135135087,1
0.5736564992668174,0.046597810123521044,0.5158018312426769,0.5890768302273391,0.04347597713579465,0.35135135135134377,1
0.5815722670748884,0.04856264358604212,0.5196197021559092,0.5286308685690456,0.039524177352077805,0.35135135135135087,1
0.5715133705727915,0.04733296680003252,0.5149395251181708,0.4709199798799214,0.04347597713579521,0.35135135135134377,1
0.5778805848444979,0.049576623874497294,0.5201900398155306,0.5653342070769284,0.023713888459755528,0.35135135135135087,1
0.5755933741332963,0.04752393842593855,0.5163958705133623,0.43561803693709317,0.05533446624439975,0.3513513513513544,1
0.5769910428016842,0.048573544790769585,0.5187812107242481,0.402472165974337,0.047430866676965944,0.35135135135135087,1
0.5732115895334781,0.04740484905015613,0.5142784761715969,0.5462315926454208,0.043475977135794985,0.3513513513513544,1
0.5756719112049528,0.04862397604197788,0.5195760611152102,0.48245223450160707,0.043475977135794874,0.3513513513513544,1
0.57343897383983,0.04737180968127791,0.5151841290647343,0.40130331079518805,0.043475977135794874,0.35135135135135087,1
0.5768482004959091,0.0486529219234616,0.5192569962229078,0.549595367085921,0.03952417735207836,0.3513513513513544,1
0.5749491691176364,0.04733860035630216,0.5162783142781835,0.538099017214136,0.04347597713579454,0.35135135135135087,1
0.5763461501026892,0.04870198185838581,0.5205301139257124,0.4070921057175339,0.04743086667696628,0.36486486486486314,1
0.5742527449367243,0.047241969694428954,0.517376521507716,0.4831708062758088,0.027665688243473263,0.36486486486487024,1
0.5753176848724473,0.04905068480569169,0.5203337486224178,0.5806664413785821,0.04743086667696539,0.36486486486486314,1
0.5683028095856061,0.0482277208556357,0.5157058192435018,0.45717199064544295,0.04743086667696572,0.36486486486487024,1
0.5731244319919233,0.04830229517764317,0.5223309421885771,0.4105147193953666,0.0474308666769655,0.3378378378378386,1
0.5717492667777366,0.04787988949998789,0.5166485882344277,0.5339021292987646,0.0474308666769655,0.3378378378378386,1
0.5721881177313635,0.04945753134951475,0.5208212085388711,0.5291506127257932,0.043475977135794985,0.3378378378378386,1
0.5725673291255367,0.04704363207628626,0.5181183120669505,0.41402455125443904,0.04347597713579543,0.3378378378378386,1
0.572988831134407,0.048983666900686895,0.5232649248018347,0.4559196774711474,0.04347597713579454,0.3378378378378386,1
0.5755623251925885,0.04687949612861397,0.5189167832336231,0.5436469344736312,0.04347597713579521,0.3378378378378386,1
0.5716248196300118,0.04954349627088145,0.5234897223684529,0.4527736341487037,0.043475977135794985,0.3378378378378386,1
0.5919774668658457,0.042406204729103,0.5237281950451782,0.41554507480342845,0.04347597713579521,0.3378378378378386,1
0.6061474342461821,0.043004844462428526,0.5341776535066638,0.5185511138376099,0.04743086667696572,0.3513513513513544,1
0.6003393921741758,0.043565692532405165,0.5332788753306661,0.4972637930528063,0.047430866676965944,0.3513513513513544,1
0.5984208577585047,0.04529753451124163,0.5353876569258891,0.39455471960832944,0.047430866676965944,0.351351351351358,1
0.5995610585495856,0.042564697206747215,0.5347307055896948,0.459709833187149,0.05533446624440019,0.3513513513513544,1
0.6041921900559428,0.04439345136548645,0.5404435298428362,0.5229002797725218,0.051382666460683124,0.351351351351358,1
0.5960829106978611,0.041979005125658664,0.5337185761615714,0.434782208259782,0.051382666460683124,0.351351351351358,1
0.6166613962393939,0.040670976037333884,0.5431838405033446,0.42887785612665935,0.047430866676966055,0.351351351351358,1
0.6147945940454471,0.0396004862293331,0.5449366099617596,0.5423314356659593,0.051382666460683346,0.351351351351358,1
0.6180627536680118,0.04105931690216574,0.5443133165919333,0.4876236278059943,0.0474308666769655,0.3513513513513544,1
0.6164341255657012,0.04013870863902286,0.5430014510746815,0.41315853190635543,0.05138266646068268,0.3513513513513544,1
0.6209261435121765,0.04063251210697105,0.5452417502988112,0.5096106059391772,0.05138266646068301,0.351351351351358,1
0.6190873465364379,0.040608368602791545,0.5442444981234142,0.5254697293370822,0.05533446624440019,0.3513513513513544,1
0.6193673217625058,0.03989639686634339,0.545943197896823,0.4214908689255402,0.05533446624439986,0.36486486486486314,1
0.6199236441435336,0.040048419089576404,0.5466463780449775,0.4706065732815521,0.05928626602811726,0.36486486486487024,1
0.6226070027999756,0.04004198746952403,0.5493320016335863,0.5335145497565927,0.039524177352077916,0.36486486486486314,1
0.6204922693137449,0.03998586576565394,0.547515967917664,0.4358222339071115,0.05533446624440019,0.36486486486487024,1
0.6229526692176351,0.04006320138809105,0.5492545683355623,0.44846080787108566,0.055334466244400415,0.35135135135134377,1
0.621006311056143,0.040001012232758704,0.5472007414292936,0.549784414224766,0.05138266646068268,0.35135135135135087,1
0.620796373609082,0.039987404796920034,0.5491482959168708,0.4680664627960062,0.05533446624440019,0.3513513513513544,1
0.616941930396685,0.0403391513035084,0.543566413004918,0.40242686601260697,0.047430866676966055,0.35135135135135087,1
0.6062053393083379,0.0443222896182896,0.545521542764649,0.5140065234033177,0.05533446624440019,0.36486486486485603,1
0.6123785362986776,0.04255545666704025,0.5431988475618347,0.5471976342543008,0.05533446624439986,0.36486486486485603,1
0.6004112161739652,0.04652397256575258,0.5425426505104405,0.4197657731884168,0.05928626602811682,0.36486486486485603,1
0.5838602628743603,0.04953637908066899,0.5421104258597584,0.43248187762702817,0.05928626602811715,0.36486486486485603,1
0.587872128014143,0.04847655872874479,0.5442980298832955,0.5421240691925472,0.05928626602811604,0.35135135135134377,1
0.595022284787239,0.047749909308003824,0.5390838719820455,0.5160747729633565,0.06324115556928778,0.35135135135134377,1
0.6002000533666195,0.048203567942767866,0.542691592448515,0.41483081398711874,0.06324115556928767,0.3513513513513544,1
0.5871275978428689,0.047846390180543985,0.537927823680599,0.46978380351862264,0.05533446624440008,0.35135135135135087,1
0.5975814849796792,0.04821200976167078,0.5415381252156597,0.5500648366671974,0.051382666460683124,0.3783783783783754,1
0.5894186700225814,0.05394029091293373,0.5469219981552441,0.469003417671733,0.05928626602811715,0.37837837837837895,1
0.5498114510156307,0.06267135634417315,0.5408150451884616,0.39508080849912086,0.05533446624440008,0.3783783783783754,1
0.5109684269657417,0.07040180748231462,0.5395600531429009,0.4859142491648557,0.05928626602811682,0.37837837837837895,1
0.5251968900604502,0.07169576288946705,0.5418212553459891,0.5412067390691884,0.06324115556928778,0.36486486486486314,1
0.534993424494417,0.06589013386009412,0.5422779409145886,0.44872146419698716,0.063241155569288,0.3648648648648596,1
0.5597954489784154,0.06102369236514643,0.5464991562848145,0.4304444539510033,0.063241155569288,0.36486486486486314,1
0.5823150819873003,0.05219779192219565,0.5393141025722399,0.5200295635451245,0.06324115556928778,0.3648648648648596,1
0.5643537099435171,0.053182323803097564,0.5415827502821413,0.4794721641965246,0.059286266028116597,0.37837837837836474,1
0.5897324508318443,0.04710984698975307,0.5434678670150861,0.3995254699105917,0.05928626602811682,0.37837837837837185,1
0.6335673250082337,0.04167985808386282,0.5513804665531249,0.4932403757088228,0.05928626602811682,0.37837837837836474,1
0.6348981244352605,0.03747593145462347,0.5446453824954973,0.5186964994808042,0.05533446624440008,0.37837837837837185,1
0.6338886035063257,0.035583847086523845,0.5467401881550944,0.4130108065683187,0.06324115556928767,0.37837837837837185,1
0.6376211339088707,0.03337145821669796,0.5459667421001418,0.43961849509342016,0.04347597713579454,0.37837837837837185,1
0.6493536830930564,0.032384822563310434,0.5454916430709635,0.5519053069081667,0.063241155569288,0.3783783783783754,1
0.6330310506150021,0.034279058428521025,0.5469070747498362,0.4716769609937028,0.059286266028116597,0.37837837837837185,1
0.6260620152542575,0.03871042839113531,0.5476109050999316,0.4063275709292926,0.059286266028116597,0.36486486486486314,1
0.6369411348318226,0.035565429601284615,0.5460748872034255,0.5256426142864847,0.05928626602811726,0.36486486486487024,1
0.6277940720999852,0.03866964352265617,0.5433298131609112,0.5337822269110483,0.05533446624439986,0.36486486486486314,1
0.6280913288356883,0.03917643216393618,0.5453928714159427,0.41335196512952727,0.06719295535300507,0.36486486486487024,1
0.6164876047809973,0.04213968327929973,0.5474973933688941,0.4782461290632673,0.05928626602811626,0.36486486486485603,1
0.5965556614121716,0.04374306904122671,0.5385586583792136,0.552863760803862,0.06719295535300485,0.3648648648648596,1
0.6146562032969569,0.04084710849398032,0.5419961287644393,0.4417732137239815,0.05928626602811693,0.36486486486486314,1
0.6176131252415529,0.03964368291485265,0.538020085369489,0.4264503625254178,0.06324115556928844,0.3648648648648596,1
0.613509941799951,0.04036200229662673,0.5409194514491322,0.5523389746533591,0.05533446624439986,0.36486486486487024,1
0.6113176884189427,0.03968742093134986,0.5399805921208924,0.49761907694614854,0.055334466244400415,0.3648648648648738,1
0.6167081091873249,0.04036778516321138,0.5411955273727179,0.4157272324574859,0.05928626602811693,0.36486486486487024,1
0.6179383198163663,0.03966327566505978,0.5393574802187041,0.5082283434592404,0.05928626602811726,0.3648648648648738,1
0.6148081008174857,0.04040995747928372,0.5414931269292782,0.5228445786257107,0.063241155569288,0.3648648648648596,1
0.6148629555743652,0.0395899240477367,0.5400980107747347,0.40948505800694,0.05928626602811682,0.3648648648648596,1
0.616272556559065,0.04055643823161814,0.540692566537986,0.48469820736984986,0.05928626602811682,0.3648648648648596,1
0.61563256862079,0.039195815977870085,0.542029312411672,0.5517653246233245,0.05928626602811715,0.3648648648648596,1
0.6132831531135148,0.044216645067171656,0.539588579254603,0.43210949377717445,0.059286266028116597,0.3783783783783754,1
0.5385214062162031,0.05906949195362793,0.540045254472538,0.41375566752105863,0.05533446624440008,0.37837837837837895,1
0.5610116646466501,0.057584700359016916,0.5416314227986403,0.5515654357258197,0.05533446624439986,0.3783783783783754,1
0.559235714896209,0.05546574161543316,0.5380104258467239,0.5177054360855461,0.051382666460683346,0.37837837837837895,1
0.5626865051352195,0.05866259157992493,0.5424805301763533,0.40245785975723436,0.05533446624439953,0.39189189189188056,1
0.5582880293521725,0.0593421442377427,0.5426186669107198,0.48005916006141697,0.05928626602811626,0.39189189189188056,1
0.5614241131736761,0.05692809118347453,0.5430005604798336,0.5606449565890391,0.055334466244400415,0.39189189189188056,1
0.5672006547107942,0.05615316391864861,0.5407757371632637,0.45480543114362937,0.05928626602811682,0.39189189189188056,1
0.5588093109756264,0.05603452456225433,0.5409336776674469,0.40016317539512614,0.06324115556928767,0.37837837837837895,1
0.565041760494263,0.0560416294165475,0.5399011698820306,0.518582774008086,0.06324115556928811,0.37837837837837895,1
0.5541364668166024,0.05913809903999112,0.5417113534977245,0.5382142947355734,0.055334466244400415,0.37837837837837895,1
0.5398127941769164,0.0643377258155573,0.5406384116346608,0.4261261326231752,0.05928626602811682,0.37837837837837895,1
0.5488517903407363,0.06371651296095121,0.5425625429110635,0.4326007913170122,0.05533446624439953,0.3918918918918699,1
0.552543195152218,0.06428750265832595,0.5402818352152173,0.5427000236740408,0.05533446624439975,0.3918918918918699,1
0.5522482389334602,0.06296780388107348,0.5420965354936317,0.497454924227945,0.05928626602811693,0.391891891891877,1
0.5540496055591395,0.05849233606262061,0.5407271168762338,0.41579824935409887,0.05928626602811726,0.3918918918918699,1
0.558590838386827,0.060302481345992365,0.5432830014964932,0.47933534491560753,0.05533446624440019,0.3783783783783754,1
0.5503032580834042,0.06003695642663753,0.5398228388704109,0.5282267465715605,0.04347597713579554,0.37837837837837895,1
0.5601541830083056,0.05878476723642129,0.542072079332055,0.4290585588847226,0.05533446624439986,0.3783783783783754,1
0.5540917044820799,0.05867320226306083,0.5400845351149268,0.42636510142871464,0.059286266028117485,0.37837837837837895,1
0.5541837740106134,0.06102905048597229,0.5429392856617621,0.5330834797342172,0.06324115556928778,0.3918918918918912,1
0.5557007155073634,0.060870974882447526,0.5402335958264283,0.4906387850040776,0.06324115556928767,0.39189189189188056,1
0.5565780767375748,0.061944716561040114,0.546417231515935,0.40147187401587314,0.05928626602811682,0.3918918918918841,1
0.553889593838556,0.06214885393086472,0.5405413252710529,0.47857150800125753,0.05928626602811726,0.39189189189188056,1
0.5529885965177931,0.0625760001575954,0.5453877303097587,0.5379399841342114,0.059286266028116597,0.3918918918918841,1
0.5513178877894531,0.05991941771379122,0.541874902837838,0.4392068640416055,0.05533446624440008,0.3918918918918912,1
0.5594537665085415,0.05648656117134143,0.5366741221321466,0.42269894965770544,0.063241155569288,0.3918918918918841,1
0.5634828472998308,0.05547961866921186,0.5371158060490707,0.5349069182054952,0.063241155569288,0.3918918918918912,1
0.568488119534701,0.05667091068383018,0.5378039850790493,0.4987955634281435,0.05533446624439975,0.39189189189188056,1
0.5760393637048973,0.05128097502594836,0.5368642026530202,0.4064581630750599,0.06324115556928778,0.39189189189188056,1
0.5810673950181209,0.047763660956608445,0.5396153387643845,0.4900128159713051,0.05928626602811682,0.39189189189188056,1
0.5828400103003759,0.0480162826294423,0.5403328536579775,0.5326910862658678,0.063241155569288,0.391891891891877,1
0.5871231851682857,0.0484100328855811,0.5381666366866594,0.4300436863115606,0.05533446624439986,0.3918918918918948,1
0.5782639486227965,0.04911991497904278,0.538604780984393,0.45157871536337835,0.06324115556928767,0.3918918918918948,1
0.5787787444773581,0.049118432568138415,0.5367950089971156,0.5384491509428029,0.02371388845975575,0.3918918918918948,1
0.5786844253444705,0.05033928921333075,0.5369394241119116,0.4581385243229504,0.05928626602811726,0.3918918918918948,1
0.5737200072811643,0.052062745480003614,0.5393657468370735,0.4274303256585469,0.05533446624439953,0.3918918918918948,1
0.574785254591923,0.05165336719759345,0.5382830877528435,0.5497505508270167,0.05533446624439986,0.3918918918918912,1
0.57780284831932,0.05229176376562189,0.5402436178855139,0.47888607029585856,0.05928626602811715,0.3918918918918948,1
0.5747609979290477,0.053659317549106356,0.5396305062255282,0.4167183176769905,0.05533446624439986,0.3918918918918912,1
0.5760584383392691,0.04999966315013332,0.5388003975842757,0.5300222739886938,0.05928626602811682,0.39189189189188056,1
0.5773646970049713,0.051839567373769935,0.536611931919061,0.514437873438792,0.05533446624439953,0.3918918918918841,1
0.5738641508529077,0.0545283283480123,0.5421322110220437,0.40761269203342665,0.06719295535300485,0.39189189189188056,1
0.5755312746700465,0.053004811962992504,0.5385175363389153,0.4690503339169905,0.05928626602811715,0.3918918918918841,1
0.5715508666565132,0.0529064020257764,0.5382736933089957,0.566758373844043,0.05138266646068268,0.4054054054053964,1
0.5754302687250484,0.05315783691896586,0.5383415586090288,0.46900776844077946,0.05138266646068268,0.4054054054053964,1
0.5718164727343946,0.05130674003913588,0.53560959344036,0.40845708141323744,0.05928626602811693,0.40540540540539993,1
0.5745371081549453,0.049132055168249145,0.5334051296086617,0.523935154530423,0.05928626602811715,0.4054054054053964,1
0.5706377907404399,0.05376645511351924,0.5352564198469493,0.526733176769531,0.05533446624439953,0.42567567567566655,1
0.5731506117091298,0.04851685755242935,0.5328629541562983,0.4210704292963194,0.063241155569288,0.42567567567566655,1
0.5824916916634143,0.051730411217847605,0.5367560227107535,0.4756876114961887,0.05928626602811682,0.42567567567566655,1
0.5741729425988882,0.05068181580839676,0.534002159965893,0.5335898079066306,0.05928626602811682,0.42567567567566655,1
0.5817183141683636,0.04777599233076457,0.5325219996378179,0.43376829748193113,0.05928626602811682,0.40540540540539993,1
0.5715778283810493,0.051420303618567975,0.5334190627165808,0.4525380285171682,0.06719295535300474,0.4054054054053964,1
0.5754814372693108,0.04883199196596122,0.5311990140528351,0.5378228963416417,0.05928626602811726,0.40540540540539993,1
0.5806481902790611,0.047456763825971304,0.528099762281939,0.4611516017225203,0.055334466244400415,0.4054054054053964,1
0.577346053078257,0.05059113220996453,0.5315006932304636,0.4249288192790686,0.051382666460683124,0.40540540540539993,1
0.5813403239057617,0.04885015466473375,0.5278393631651563,0.520206947754154,0.05533446624439986,0.40540540540540704,1
0.5832758543230483,0.047747220668446444,0.529076680824413,0.4813170460865727,0.05928626602811693,0.40540540540539993,1
0.5725814129653274,0.048419682677105,0.5293697388080474,0.39430761230861777,0.05928626602811693,0.40540540540540704,1
0.579754521927677,0.04889799937413969,0.5311508595821611,0.5091931609158743,0.059286266028116597,0.40540540540539993,1
0.5803391969035137,0.04765117043242589,0.5274474452845865,0.5097770074534359,0.05928626602811682,0.40540540540539993,1
0.5814198989504988,0.048287556759086914,0.5291412239904653,0.40055765651699715,0.05928626602811682,0.40540540540539993,1
0.5812850158008545,0.047747357313622285,0.5309079328783428,0.49456937574799387,0.055334466244400415,0.40540540540539993,1
0.5856324101902449,0.04825085513145011,0.53118572249047,0.5393218534526901,0.06324115556928778,0.40540540540539993,1
0.5793247875284409,0.047766517279613896,0.5283504140926916,0.41029788904107095,0.06719295535300507,0.40540540540540704,1
0.5800553146705619,0.04824001230239672,0.5312458596201846,0.4658505103363154,0.05928626602811693,0.40540540540539993,1
0.5756037018237108,0.04776210081717103,0.5314706769248847,0.5583580253202464,0.05928626602811682,0.40540540540540704,1
0.5786061430983911,0.048390862291155634,0.5317000104947942,0.4468603821675855,0.05533446624439953,0.40540540540539993,1
0.5753273374397307,0.050182281798921424,0.5310067163099186,0.43994510161061623,0.05533446624440019,0.40540540540539993,1
0.5768462291857033,0.04871108297980126,0.5328541326546737,0.5533936258668165,0.05928626602811682,0.40540540540540704,1
0.5810178688089258,0.048106740875959675,0.529560504495773,0.48291213566368185,0.05928626602811715,0.40540540540539993,1
0.576548822089636,0.049134451813606594,0.5303098189591438,0.4199264145967786,0.06324115556928711,0.4054054054053964,1
0.5754215135753031,0.047302961477189154,0.5282670794421178,0.5243717122920406,0.04347597713579521,0.40540540540539993,1
0.577042191391808,0.04998325338284204,0.5324143198018967,0.5069124420882661,0.06324115556928767,0.4054054054053964,1
0.5769242819403133,0.04791831177219136,0.5316996192423044,0.42783539408946997,0.0671929553530054,0.40540540540539993,1
0.5776335981542821,0.05236538622610287,0.5359514495699246,0.5050487577625902,0.05928626602811604,0.41216216216215074,1
0.5724317751375986,0.050826335956568325,0.5324889371808486,0.5072175830432695,0.06324115556928778,0.41216216216215074,1
0.5733903896206952,0.0509196880853553,0.5319352863102146,0.4121739005944661,0.05928626602811682,0.41216216216215784,1
0.573132833964485,0.05146101708321099,0.5332223692888112,0.4814256467702883,0.059286266028117485,0.41216216216215074,1
0.5738507569399413,0.04964222327757695,0.5333839435476412,0.5303803819416636,0.04743086667696572,0.40540540540539993,1
0.5741813955614403,0.05288102863342209,0.5326663994188892,0.43916310032028016,0.063241155569288,0.40540540540540704,1
0.5732095702359374,0.051137058455095585,0.5319745464599451,0.4547722989105699,0.05928626602811715,0.40540540540539993,1
0.5733208512484228,0.050080989154967115,0.5314087412845457,0.5326318158286035,0.063241155569288,0.40540540540540704,1
0.5714970907300911,0.05224885988179995,0.5307273626875028,0.4749991236466765,0.05928626602811682,0.40540540540539993,1
0.5739264564574874,0.05146112755243015,0.5317796520143226,0.42386723409553984,0.05928626602811715,0.40540540540539993,1
0.5739715830313901,0.05112791932031896,0.5321855725250777,0.5057123627055995,0.05928626602811682,0.40540540540540704,1
0.5764553491284811,0.05032408885443884,0.5333499033412213,0.5019687256271443,0.04347597713579521,0.40540540540539993,1
0.5771256598274958,0.048665790005607334,0.5331629448888588,0.42898261194846427,0.06324115556928833,0.41216216216215784,1
0.5716053990846597,0.049209360715713635,0.5322429682036292,0.46515109441193564,0.05928626602811682,0.41216216216216495,1
0.5761723463267228,0.050331846839444694,0.532988587216775,0.5154265281869482,0.05928626602811693,0.41216216216215784,1
0.5715636199487643,0.0487187710785551,0.5332908140324617,0.44561021790844374,0.05533446624439986,0.4121621621621614,1
0.5750318615819235,0.048334613997093046,0.532713098024442,0.44545118183975735,0.059286266028116597,0.4054054054054106,1
0.5726227147804048,0.0514994522867282,0.532026863449015,0.5095411455291274,0.05928626602811626,0.4054054054054106,1
0.57318635945962,0.05001294989545224,0.5290951032552452,0.4813747659290057,0.05533446624439953,0.4054054054054106,1
0.5744067286641603,0.05028605560938282,0.5306098581458466,0.4143863472732876,0.05928626602811715,0.4054054054054106,1
0.5715266422432489,0.05325962016599267,0.5292663428085985,0.47738556618896033,0.05533446624439953,0.42567567567566655,1
0.5756202501791137,0.04703278330219557,0.5262147688057298,0.5215659476637179,0.05928626602811715,0.4256756756756701,1
0.5724030684434005,0.050229492838294254,0.5312418675417478,0.4375396644742693,0.05928626602811682,0.42567567567566655,1
0.5692834715048392,0.050540508364849246,0.5288695244997369,0.4297475005471969,0.05533446624440019,0.4256756756756701,1
0.5778544930563816,0.04888246248209721,0.5278747836506936,0.5256809104452788,0.05533446624439975,0.42567567567568076,1
0.5721516597271146,0.05061229293959374,0.530199229987059,0.48319387011090276,0.05928626602811682,0.42567567567568076,1
0.5739210625275493,0.048319374089729195,0.5279072947105383,0.42104252109660273,0.055334466244400415,0.42567567567568076,1
0.573139966263806,0.04806545797565526,0.5292967941772545,0.5102266340269296,0.03952417735207758,0.42567567567568076,1
0.5743431217685904,0.047797322136040765,0.526699922068391,0.5131182157517686,0.06324115556928778,0.42567567567566655,1
0.5800166396252782,0.049074052336698426,0.5285915488181145,0.41331813357777386,0.05533446624440008,0.4256756756756701,1
0.5634063199047058,0.04749460957044055,0.4878333135744581,0.46457784148848047,0.05928626602811682,0.42567567567566655,1
0.5653474241104575,0.04653723124472087,0.48471005718803123,0.5346237646642863,0.05928626602811726,0.4256756756756701,1
0.5655932211227541,0.04677880303717441,0.48861066653539553,0.43328737873975204,0.05533446624439953,0.42567567567566655,1
0.5610617445638877,0.047337156233847766,0.48822975329027096,0.4310447839908145,0.05928626602811693,0.42567567567566655,1
0.5653815482853763,0.04688994055474022,0.4918707567239468,0.5541883066956883,0.05533446624439986,0.4256756756756701,1
0.5696268319212892,0.04725408811035292,0.49675065366381577,0.5241794773318944,0.055334466244400415,0.42567567567566655,1
0.5657727415598677,0.0470421262025873,0.49442009356512057,0.408647145141721,0.059286266028116597,0.41216216216215074,1
0.5688975899199985,0.04643541395044304,0.4932789920977152,0.50979544072037,0.05533446624439986,0.41216216216215074,1
0.5763065467568261,0.04488240376757746,0.4950577678640262,0.5578826063841431,0.047430866676965944,0.41216216216215074,1
0.572050795676604,0.04504881344421824,0.4951558145613488,0.42328912216031556,0.05533446624440019,0.41216216216215074,1
0.5732664744159894,0.043523556625013116,0.49290681209329595,0.446141522140963,0.05928626602811682,0.44594594594593673,1
0.5726341122647367,0.04430889350309258,0.49930094508926637,0.5490704455660635,0.05928626602811682,0.44594594594593673,1
0.581724149172342,0.04054035208711049,0.5024401807032303,0.4668474588482131,0.063241155569288,0.44594594594593673,1
0.579374170795927,0.04412627544226749,0.503038604093444,0.4321798885734027,0.05928626602811682,0.44594594594593673,1
0.5791237491302383,0.043376795029929915,0.5020747383972272,0.54629511693576,0.05928626602811715,0.42567567567566655,1
0.5807629631340679,0.04297243162358849,0.5010089731313143,0.4888924496135312,0.06324115556928867,0.4256756756756701,1
0.5737543374130846,0.043364978511485686,0.5022363598888258,0.4012746008650432,0.055334466244400415,0.42567567567566655,1
0.5844323457429121,0.04179854225671148,0.5031174686806169,0.5091866866292786,0.05928626602811682,0.4256756756756701,1
0.5724463963389184,0.0456329387418109,0.5018749921016881,0.5503844030657603,0.051382666460682236,0.4256756756756772,1
0.5636737564187058,0.04788017031047903,0.5022122402621689,0.42516074132605924,0.05928626602811682,0.4256756756756772,1
0.5653147177228122,0.048186419191762586,0.5022644929319954,0.4427988526699256,0.05533446624440008,0.42567567567568076,1
0.5715194245070394,0.04782108944063668,0.5026602672116356,0.5530509120493077,0.05928626602811726,0.4256756756756772,1
0.5704426732002383,0.0481676141187532,0.5037607314273225,0.4781396872471665,0.05533446624439975,0.42567567567566655,1
0.566809831232783,0.04789787547034707,0.5031973615434729,0.408223963514953,0.05533446624439986,0.42567567567566655,1
0.5718928224536386,0.047918833982265485,0.5032281614866196,0.5134947911763205,0.059286266028116374,0.42567567567566655,1
0.5693067632451125,0.04695909042022661,0.5034112633755562,0.5139761506950251,0.05533446624440019,0.42567567567566655,1
0.5712530394621058,0.04793841931295939,0.5033480995646599,0.42177377976386826,0.05928626602811682,0.425675675675663,1
0.5717988213228808,0.046831498050038556,0.5043158359568399,0.4833907165039479,0.05533446624439986,0.425675675675663,1
0.5745169024645419,0.04883007138042589,0.5038173579322096,0.5281313310198573,0.05928626602811682,0.42567567567566655,1
0.5729251751071682,0.0468229741180618,0.5022723291723591,0.429792529785983,0.04347597713579454,0.425675675675663,1
0.573191530892416,0.047938480849576914,0.5030878922303874,0.4280570639598963,0.05928626602811626,0.4256756756756701,1
0.5721411084407784,0.047465358735608365,0.5008468180426286,0.5435331502774331,0.05928626602811726,0.4256756756756772,1
0.5718808596191782,0.04750192616436588,0.5024440964434141,0.47986111906716183,0.05533446624439986,0.4256756756756701,1
0.5687164683338817,0.047407970117817444,0.503965514052494,0.4122605763005063,0.055334466244400415,0.4256756756756772,1
0.5739965483442765,0.04632104608693055,0.5007790119298121,0.5089682969144443,0.05533446624439953,0.44594594594594383,1
0.5649595471184248,0.04824173771834561,0.5016306693132379,0.5209459757521183,0.06719295535300474,0.44594594594594383,1
0.5724067377840367,0.04781600451710588,0.5016214449092329,0.4172533810492151,0.05533446624439986,0.4459459459459474,1
0.5727226512148158,0.04666194031831744,0.5017130046918188,0.45703567136392337,0.059286266028117596,0.44594594594594383,1
0.5723788922117365,0.04634582598455628,0.5013128966003165,0.5328985212067067,0.05138266646068279,0.42567567567566655,1
0.5742389361777098,0.047038197844417595,0.5037422634561861,0.45228622119796263,0.055334466244400526,0.42567567567566655,1
0.5687600388571643,0.04819071607051528,0.5082733830614228,0.4321323604385292,0.05533446624439986,0.42567567567566655,1
0.5702712324053216,0.04782507605700631,0.5030979867673641,0.5302871436762286,0.055334466244400415,0.42567567567566655,1
0.5636590424661081,0.0482109261449965,0.5064985774641112,0.4699675331503801,0.05533446624439953,0.4459459459459332,1
0.5696903971888414,0.0477345806656308,0.5045823865530568,0.4174359082660706,0.05533446624439986,0.4459459459459332,1
0.5685475120057245,0.04855761085900012,0.5032455328728224,0.5383067097100563,0.05928626602811726,0.44594594594593673,1
0.5673509874626126,0.04871767403460675,0.5014221521688006,0.5046695030306215,0.03952417735207814,0.4459459459459332,1
0.5725433508560496,0.04783376826448388,0.5042476123022086,0.39254511967157235,0.06324115556928778,0.44594594594593673,1
0.5651719259857704,0.048163553686698946,0.5026351953227598,0.4816048939472814,0.055334466244400415,0.44594594594593673,1
0.5709497979753797,0.047167734370785475,0.5025013195977318,0.5508689278304799,0.059286266028116597,0.44594594594593673,1
0.5673972362236396,0.047621341668531436,0.5014126121452217,0.436369484443443,0.055334466244400415,0.44594594594593673,1
0.5724789543213327,0.04823493889081609,0.5019133034944998,0.44424249988183484,0.05533446624439953,0.4459459459459296,1
