wrist_ACC_1,wrist_ACC_2,wrist_ACC_3,wrist_BVP_1,wrist_EDA_1,wrist_TEMP_1,label
0.5942520952129348,0.6201739043804113,0.7362477791111144,0.41212139852635016,1.0,0.9426523297490998,1
0.7744664524033477,0.32331251317339416,0.7765476908731915,0.4826666765485839,0.9958645786672407,0.9426523297490768,1
0.7144190348228665,0.36860834267661957,0.6869849642854059,0.46179414342429104,0.9834589601225847,0.9426523297490927,1
0.6929873133591562,0.38913286741435443,0.6991695481393356,0.5015444922765359,0.9685722178689959,0.9426523297491105,1
0.709845098131753,0.3954165941089261,0.679368041870446,0.3396417556445548,0.9470695760273364,0.9426523297491123,1
0.6502158585079978,0.38713326328308284,0.7679233227225399,0.30687914124037596,0.9487232281975448,0.9426523297490874,1
0.6113735315322235,0.37126179524955594,0.7844676264017065,0.4234027855779678,0.9321828337737481,0.9426523297491247,1
0.6054427981133811,0.37768581025601455,0.792790850699501,0.5080028092159424,0.9842864316613074,0.9426523297491016,1
0.6028729338349076,0.36852493275350917,0.7954541901997914,0.5633178493961526,0.964437441989856,0.9426523297490981,1
0.6024686596308532,0.374650612983664,0.8001345343780819,0.46129413279258363,0.9569940708630622,0.9498207885304701,1
0.5999111526336308,0.3657403562466477,0.7972163562300951,0.3116741986185585,0.952858649530304,0.9498207885304613,1
0.6043982932394362,0.37269434437784854,0.7939383596348495,0.3878168628487516,0.9470695760273364,0.9498207885304613,1
0.6036758473229547,0.365709802166323,0.7916787655823674,0.45500133262538484,0.9421073286094743,0.9498207885304701,1
0.6055035112788509,0.37534279432024453,0.7913474510319145,0.391716476434376,0.9396262049005427,0.9498207885304684,1
0.6050813035926682,0.3672552486639886,0.7908732374034495,0.4562231506007431,0.9338364859439571,0.949820788530463,1
0.6058606695524013,0.37200237524480384,0.7911992635064548,0.49724526185472623,0.9305285361499205,0.9498207885304524,1
0.6026545381667173,0.3618223627195175,0.7919057356155306,0.43899454786956815,0.9272205863558856,0.9498207885304648,1
0.6042294017761138,0.373393562827892,0.7912934339903441,0.4242494663847087,0.9247394626469537,0.9498207885304648,1
0.6065138322742354,0.363439569685216,0.7910396566491094,0.4463385779286125,0.9239119911082315,0.9498207885304826,1
0.6090182643164809,0.37627696234005387,0.7910463999045354,0.41019295384698984,0.9305285361499209,0.9498207885304524,1
0.6076258337198472,0.3649381735738591,0.7912212895862066,0.43580823980863265,0.92804741244099,0.9498207885304613,1
0.6061263569455088,0.3767061520432444,0.7908899768926283,0.4778584134005379,0.9255662887320583,0.9498207885304613,1
0.6060692754858465,0.3688668572921268,0.7913355410592466,0.41007825673914117,0.9230851650231273,0.9498207885304648,1
0.6048199620234023,0.3728315860112017,0.7916010427165597,0.4198990851896102,0.9197772152290912,0.9498207885304559,1
0.6049658046179854,0.364733836395015,0.7917791375105783,0.4461182177306759,0.9181229176052642,0.9498207885304737,1
0.6059220699723847,0.37239327006847733,0.7903538404488686,0.42215453583642537,0.9148149678112287,0.9498207885304613,1
0.6050096973203265,0.3644000864480864,0.7919746673146821,0.44122836236169366,0.9139874962725059,0.9498207885304613,1
0.6058523825638624,0.37106210455295524,0.789887888537851,0.43279479011794025,0.9106795464784696,0.9498207885304613,1
0.6051168693664697,0.3595874564866224,0.7904374501462444,0.41460448725225185,0.9098527203933661,0.9498207885304826,1
0.6057220003574243,0.3709650457491154,0.7873468357216458,0.46361522517215786,0.9106795464784699,0.9426523297490981,1
0.6117540687150934,0.3620511151005865,0.7845073528785076,0.43137371861204665,0.9098527203933651,0.9426523297490821,1
0.6125099382825138,0.37041021423651055,0.7831933160047345,0.42574764352771577,0.9081984227695382,0.9426523297491016,1
0.6047910487098672,0.35715613090369364,0.7877693295620176,0.4581870818824511,0.9073715966844347,0.9426523297491123,1
0.6065614159123776,0.37001998317321505,0.7863100341896981,0.4324481021491267,0.9073715966844345,0.9426523297490981,1
0.6095947882588453,0.3623286388586418,0.7885505602377345,0.4338412200972494,0.8999282255576407,0.9426523297491194,1
0.6106352273940793,0.3743574770672673,0.7850346085303499,0.3902463316839901,0.8974471018487079,0.9426523297490981,1
0.610216316633148,0.362277154242881,0.7861189910503963,0.395951600074228,0.8949659781397775,0.9426523297491158,1
0.6140272498673424,0.3748154637650376,0.7823665520812484,0.5116758928051611,0.89331168051595,0.9534050179211402,1
0.6123246518661448,0.359928078616524,0.7844538489862962,0.49678556303404503,0.8916580283457414,0.9534050179211402,1
0.6145627799452383,0.37459788061914917,0.7804398281872947,0.41012091528425404,0.8900037307219139,0.9534050179211402,1
0.6141977692190485,0.36201441692565006,0.7844613865434873,0.4241544465409539,0.8891762591831914,0.9534050179211491,1
0.6111454131623005,0.37618736655575724,0.7834106957591869,0.40506326662694797,0.8866951354742602,0.9498207885304577,1
0.6076304949137923,0.36058673824561027,0.7909551795959577,0.4681206302968425,0.8866951354742602,0.9498207885304559,1
0.6039934091374056,0.374571596682749,0.7898810011081105,0.42242209306480544,0.8850414833040516,0.9498207885304701,1
0.6022487912675237,0.3559079618186398,0.7939258465040708,0.425581460782494,0.8825603595951205,0.9498207885304524,1
0.6019700000350252,0.37001317886009144,0.7896876368587269,0.42729053049865207,0.8792524098010841,0.9426523297490981,1
0.6061632340292588,0.3563271810667443,0.7937498122495064,0.4215730033562946,0.8775981121772573,0.9426523297491052,1
0.6032988547425316,0.3689188453970646,0.7845462181440026,0.434557139611585,0.8742895169296032,0.9426523297491229,1
0.6124738379656556,0.349738455513423,0.7893956183895723,0.44599060354102077,0.8726358647593948,0.9426523297490945,1
0.6082675688178073,0.36664765237712416,0.7819421103459729,0.43086778234372375,0.8718090386742898,0.9498207885304577,1
0.6124535907022746,0.36384767659624256,0.7853241294244786,0.46732259037079527,0.8701547410504638,0.9498207885304684,1
0.6309393510995307,0.37584109825997847,0.7671964331602554,0.40580927324025295,0.8726358647593944,0.9498207885304577,1
0.7241328173736469,0.3552297336171757,0.7706274739499318,0.46193329144380285,0.870154741050463,0.9498207885304684,1
0.6146054360571594,0.6290733031234425,0.876407109433492,0.43778055617831546,0.8577491225058066,0.9498207885304577,1
0.5242608321315656,0.758016816728832,0.7145219064438191,0.42481580892516596,0.8676736173415319,0.9498207885304755,1
0.6474164801902859,0.6770649729557365,0.7632114800165233,0.38530063261995273,0.8668467912564279,0.9498207885304701,1
0.5753491925537164,0.7163823878392512,0.824440815387745,0.5316402133675138,0.8469978015849771,0.9498207885304701,1
0.6474551335276031,0.7066608510657362,0.7841913197356235,0.36439396816034425,0.8527868750879435,0.9426523297490927,1
0.5687155006215835,0.6063976665863634,0.8671109391585704,0.5636976223607888,0.8519594035492208,0.9426523297491052,1
0.6229006123829643,0.7213365062935373,0.8113313017021504,0.44840289962258534,0.8403812565432862,0.9426523297490927,1
0.6767086881819429,0.670089603675289,0.6969697446552978,0.30404495545519294,0.83872695891946,0.9426523297491105,1
0.6092514718654283,0.5097712940433354,0.8380842429662451,0.4836162740203758,0.8230133905807666,0.9426523297491052,1
0.7038028348467371,0.5070720938995686,0.740772903240583,0.4065846517026897,0.8072998222420741,0.9426523297491105,1
0.7301206467185958,0.5626735368754606,0.5479647848404018,0.45580913741783513,0.7932399060735902,0.9426523297491052,1
0.774867849874615,0.7577637400525364,0.22357164837372764,0.4885385715072384,0.7676018428991712,0.9426523297490927,1
0.6115074322361033,0.7743400947373051,0.1662176248040016,0.27807694982812486,0.7370008868532717,0.9498207885304613,1
0.6788271184506356,0.7021715343527147,0.22734094669557625,0.41006270700431113,0.731211813350305,0.9498207885304613,1
0.675214911172068,0.6850931182491334,0.1821975958269509,0.5569743615346768,0.7460985556038934,0.9498207885304701,1
0.7446414805721161,0.6787892123749124,0.265069645069965,0.36574538496591613,0.7386551844770991,0.9498207885304506,1
0.7444351511788072,0.6834704267893734,0.33629243099636036,0.3884815241404644,0.7386551844770995,0.942652329749107,1
0.7169274613835448,0.6945469947077346,0.2491620745760402,0.3330394804199023,0.7427906058098579,0.9426523297491158,1
0.6520236960034598,0.6866059919540054,0.1761217939417548,0.419368905350595,0.7543693982694102,0.9426523297490998,1
0.6581853722499295,0.6971146325573586,0.1460000293326676,0.3702895500526926,0.7527151006455832,0.9426523297490998,1
0.7641829432247998,0.6817212293853195,0.3470287143784947,0.5249323657629281,0.738655184477099,0.9426523297491105,1
0.8167501691629478,0.5946918645928632,0.570322200107596,0.5397164125079819,0.731211813350305,0.9426523297491105,1
0.603188094285236,0.6234029135610413,0.7662974107638469,0.4313118129781746,0.6724923158746742,0.9426523297490981,1
0.4445409425378282,0.6364961497511513,0.9127292347896482,0.5309722000695286,0.6857247605044354,0.9426523297491158,1
0.5873211954378716,0.6422312308334481,0.8404296974377825,0.48801185204550307,0.732866110974132,0.9426523297490981,1
0.7022361268650632,0.609043215509868,0.7453992573381454,0.44763384002473433,0.7642938931051357,0.9426523297491052,1
0.7153439347844184,0.6301831992101457,0.7690643562050494,0.3571263848346323,0.7667743713604492,0.9426523297491123,1
0.5037285501742959,0.5849799029060289,0.8808988416793548,0.2319928801299906,0.7361740607681673,0.9426523297491052,1
0.4392776263672843,0.5892698266880295,0.9332919798570507,0.6229412017733128,0.756023050439619,0.9426523297491052,1
0.3389885710128253,0.5746343724003329,0.9459336417394266,0.5896232282848589,0.7700829666081028,0.9426523297491016,1
0.37885091545279015,0.5873359940269198,0.9539182525629812,0.21801258617362376,0.7841422373229686,0.9426523297490874,1
0.3197424850181515,0.5663232941295449,0.955886032699544,0.36726758948201377,0.7924130799884854,0.9426523297491105,1
0.35883737056493104,0.5832063572128077,0.9515523849127888,0.5028514501212376,0.8039912269944195,0.9426523297490981,1
0.22473115711611308,0.5555312311921263,0.9659167553166085,0.3995707619232919,0.8106077720361095,0.9426523297490981,1
0.5396044413429164,0.6263506868910812,0.8238086073530893,0.4516533484943924,0.8205322668718356,0.942652329749107,1
0.8337366176348303,0.6617246372071217,0.5702104569200305,0.41769235866012566,0.8263213403748026,0.9426523297491176,1
0.6450554216740599,0.6559341311491449,0.7417380596105281,0.5011913071095689,0.823013390580767,0.9354838709677402,1
0.4805035634276592,0.6642702099064399,0.8654557458902266,0.3986134714198978,0.8205322668718356,0.9354838709677473,1
0.44371595675337067,0.5959945456278125,0.9215432454694084,0.3670718974083887,0.8072998222420739,0.9354838709677349,1
0.6815756917204413,0.5859214840082577,0.7364151694132717,0.5122915548735727,0.8188779692480082,0.9354838709677367,1
0.7416295106215423,0.6077546830114371,0.6688406376937674,0.6001228610390761,0.7469253816889978,0.9426523297491052,1
0.7709900915781392,0.601048177264524,0.5992458642583471,0.35623068017179493,0.6832436367955037,0.9426523297490945,1
0.7866161302873202,0.6388658194637356,0.5827956370403304,0.33009588332913586,0.6642214732091571,0.9426523297491123,1
0.7079558854875139,0.8942264875548094,0.430466757427507,0.6963239268041035,0.6824168107103998,0.9426523297490998,1
0.5687351519877295,0.9889769629265561,0.35924566185231377,0.27759361445203823,0.6832436367955039,0.9426523297490981,1
0.5451930013638612,0.8643394810818046,0.5198130421854465,0.15441228309619964,0.6989572051341967,0.9426523297490945,1
0.7576304158476383,0.817126641113302,0.6179534871707764,0.5323616198189309,0.6700111921657428,0.9426523297491052,1
0.766280754858606,0.7550621295593879,0.49436037174493475,0.6275812055412447,0.6758002656687099,0.9426523297491105,1
0.8001742302387412,0.7387394674654371,0.6311496015179692,0.3524375671871598,0.6782813893776409,0.9498207885304648,1
0.3761033024360346,0.6429455266037578,0.8844981160417176,0.4082941826838666,0.6749734395836057,0.9498207885304684,1
0.04374607576112047,0.563928988235527,0.9761524428705446,0.3134391772734495,0.7518882745604784,0.9498207885304577,1
0.5441607409041057,0.6531476234967483,0.7693366605544202,0.46690297565842664,0.8106077720361095,0.9498207885304577,1
0.8720593605334098,0.7256101654207174,0.6368522626620241,0.4013563774443209,0.8188779692480083,0.935483870967742,1
0.41671303688654815,0.976915113167365,0.6302129622336244,0.5924984228038711,0.7551962243545141,0.9354838709677349,1
0.6104946215544594,0.7382879531495125,0.3339695834029386,0.4898423996785227,0.7204604924294753,0.9354838709677491,1
0.9659785827074016,0.5185045954774251,0.49400733742200675,0.3316923218246429,0.6964760814252651,0.9354838709677402,1
0.5925313453014935,0.6188590957093972,0.7459382691901628,0.48815839262057925,0.6609135234151214,0.9498207885304524,1
0.21610477437858355,0.5916427677400468,0.9338016596562968,0.40352505632588276,0.6361022863258071,0.9498207885304506,1
0.024696172682719203,0.4794255657652311,0.8907158378487657,0.4214292316471696,0.7634664215664131,0.949820788530463,1
0.17847733837047405,0.5940760762325058,0.976104139313848,0.3777315798249314,0.8271488119135245,0.9498207885304613,1
0.7243748043739732,0.7035886683678235,0.7737806108883254,0.4946886025526172,0.8279756379986289,0.9498207885304417,1
0.7923019604341,0.7670418772460359,0.5779555610817007,0.3869258892775652,0.7518882745604787,0.9498207885304506,1
0.6107123701204711,0.9046401612003867,0.5026380626980295,0.4862230984486595,0.7378283583919942,0.9498207885304506,1
0.06365112378649443,1.0,0.5515238680770562,0.6391280719767418,0.7543693982694101,0.9498207885304701,1
0.19504539685840316,0.8836595266555154,0.7090760043012132,0.19315952770402564,0.749406505397928,0.9498207885304577,1
0.0570093678502763,0.7490439602182284,0.9865240540834364,0.40439195698890096,0.6675300684568115,0.949820788530479,1
0.0,0.6386794783163404,0.9667366540602329,0.5001045554011204,0.6542969783734311,0.949820788530463,1
0.0617974819772259,0.5783946760611636,0.9641601550385227,0.5070703226439448,0.7543693982694095,0.949820788530463,1
0.5379893529042626,0.4712715892772581,0.9051706057805138,0.363420582917991,0.7709097926932067,0.9426523297490927,1
0.812583740299474,0.6305022546811098,0.5357360129039515,0.476215999424194,0.7651207191902399,0.9426523297490945,1
0.7230969920045844,0.49396207166784956,0.5410299733153012,0.29824934315551754,0.7072280477997132,0.9426523297490981,1
0.7860679173228066,0.4403401161867602,0.5819178691954382,0.5326837570098376,0.8279756379986296,0.9426523297491016,1
0.7726726825479284,0.466752360979143,0.5551981242833945,0.3415134412427142,0.8676736173415314,0.9426523297490874,1
0.7562843229126087,0.4392342756685512,0.6377358388684786,0.5208434377697919,0.8585759485909107,0.942652329749107,1
0.7882783801171019,0.6107885666459139,0.5577045229728802,0.5839151907555391,0.8552679987968744,0.9426523297491052,1
0.7198929954970529,0.5507165941290342,0.5707648269026937,0.34530219305132553,0.868500443426636,0.9426523297490998,1
0.7604154378796938,0.40045106352600546,0.6264783427777496,0.36006555954052594,0.8329378854164923,0.9498207885304613,1
0.8763136446430578,0.5327450817434921,0.4826213244116964,0.42795117608691474,0.6931681316312295,0.9498207885304613,1
0.7736804371548743,0.48076063033945615,0.5449118599788256,0.463977468676985,0.6443724835377054,0.9498207885304506,1
0.7786549010624093,0.5342933376432685,0.5684501031866507,0.3736561508522186,0.6327943365317715,0.9498207885304755,1
0.8162540137566298,0.4514944561281419,0.5269424770698672,0.3556157352860291,0.625350965404977,0.9641577060931859,1
0.7546385407749081,0.452027751641619,0.46668741393880725,0.45639343252341463,0.6104642231513887,0.9641577060931912,1
0.77598390527116,0.47813719551563133,0.4993227652183352,0.2704829170225079,0.615426470569252,0.9641577060931965,1
0.8584531533874398,0.5381431962878555,0.5096847517949232,0.410891579620782,0.6179075942781832,0.9641577060931859,1
0.8005936863314826,0.5455668438703496,0.49063273803359864,0.6201177400940622,0.6344479887019804,0.9498207885304648,1
0.7244751410717611,0.719946067240417,0.49014736534726533,0.6760866567848519,0.6394102361198428,0.9498207885304506,1
0.7765050840048194,0.7454564973320997,0.5222674223395599,0.31370787098143305,0.6427188313674969,0.9498207885304577,1
0.7594587968952714,0.7107355000138622,0.5301362569875269,0.28879871699197646,0.6121185207752163,0.9498207885304524,1
0.7590193988088053,0.6668606465310218,0.4979252098929392,0.5911372165827917,0.617907594278183,0.9426523297490981,1
0.7739842397434956,0.7496744469753165,0.4895478445522946,0.4398860687082318,0.6245241393198733,0.9426523297491052,1
0.8078462916549514,0.6556117899248459,0.4771621787997578,0.5736141955296038,0.6303132128228406,0.9426523297491016,1
0.7921616681128029,0.5697714021659156,0.5927325179301615,0.397704352328319,0.6468536072466371,0.9426523297491016,1
0.70272888066314,0.6280342481198694,0.698758475904252,0.39105116288837743,0.6427188313674972,0.9498207885304737,1
0.5719827494149832,0.712318555973189,0.8804935099768165,0.4176530892564402,0.6675300684568112,0.949820788530463,1
0.2984326757153045,0.5845221709873408,0.9449425985261355,0.38969064680186843,0.7105359975937495,0.9498207885304577,1
0.28343942804678307,0.636109352502646,0.9527336668090556,0.45093384802000214,0.7667743713604488,0.9498207885304648,1
0.37941992104135236,0.6205338637250977,0.9287491239586867,0.3734575252511578,0.7758720401110697,0.9498207885304613,1
0.5969499536884897,0.7133669877752202,0.8226559600283907,0.440555172478371,0.7742177424872428,0.9498207885304577,1
0.7070834952467538,0.6732519749499077,0.7116144723908551,0.5738389910643953,0.7891044847408311,0.9498207885304737,1
0.7870027768683513,0.6568389187966489,0.612854525711794,0.49637963263497387,0.7717366187783118,0.949820788530463,1
0.7144034537186869,0.650977725056126,0.656815438907695,0.4393351997639148,0.7676018428991714,0.9354838709677402,1
0.7928067659072996,0.6462009112845489,0.6564393127920733,0.2719766140278055,0.7593310002336542,0.9354838709677296,1
0.5905856877783137,0.6888643365901931,0.8391206945667615,0.4294252413594822,0.746098555603893,0.9354838709677402,1
0.23744899393287744,0.653170337768944,0.9269451107622934,0.41464174819762384,0.7510608030217562,0.935483870967742,1
0.12111819935625852,0.5212127890516982,0.9356695380860547,0.4788254396302624,0.7758720401110698,0.9426523297491052,1
0.09475966343808925,0.5583565940889846,0.9577320131561233,0.37111207038474003,0.7907587823646585,0.9426523297491158,1
0.13760993353241974,0.566923851705301,0.9607204427418103,0.4081676354927894,0.7874508325706223,0.9426523297490892,1
0.12725911047826066,0.5594293928095208,0.9602086749621621,0.18340068671898774,0.7841422373229681,0.9426523297490839,1
0.14343203472473287,0.5560187725957131,0.9571888712280345,0.5737627624321567,0.7824885851527599,0.9354838709677402,1
0.11372495303778617,0.5583819138507291,0.957800573635595,0.6304940370021961,0.7791799899051057,0.935483870967742,1
0.12528070851849132,0.5544955106954949,0.9563412422233161,0.39740510836575826,0.7758720401110705,0.9354838709677473,1
0.11426878870997895,0.5601050360190808,0.9547411657773726,0.3898307671633564,0.7775263377348972,0.9354838709677438,1
0.1317435891340495,0.555796832277997,0.9576136134843911,0.48624632506261245,0.7758720401110708,0.9283154121863983,1
0.12038430602560532,0.5586816150541698,0.957829261716145,0.43053307995809875,0.7733909164021389,0.9283154121863788,1
0.13246444715168648,0.5531397758461262,0.9607687612840166,0.429490287713947,0.7700829666081027,0.9283154121863735,1
0.12210275078238707,0.5548653955773969,0.956825841734952,0.4695628389158378,0.766774371360449,0.9283154121863788,1
0.13619877439480066,0.5510315823624375,0.9600844954847622,0.4239253131174798,0.7642938931051354,0.9354838709677313,1
0.1303807885409532,0.5535099625169617,0.9579022661324323,0.39999415455296594,0.7609852978574826,0.9354838709677473,1
0.13910362621054478,0.5547991719963171,0.9638780300074907,0.44705906154994784,0.759331000233654,0.9354838709677367,1
0.13402203528520543,0.5562432821351166,0.9576765714068807,0.4473005223107949,0.7568498765247232,0.9354838709677367,1
0.15085315902921959,0.5533139743228297,0.9608553161100316,0.412131943760923,0.7535419267306871,0.9354838709677367,1
0.14658335870717376,0.5580984797204224,0.961981527856313,0.40468734301180864,0.7527151006455829,0.9354838709677544,1
0.15962593822926255,0.5531655556958928,0.9639486665555124,0.4604421504818364,0.7485796793128247,0.9354838709677473,1
0.1484635486380083,0.5565696356253725,0.9614089211169983,0.43296052637179183,0.7469253816889974,0.9354838709677189,1
0.17299064613140225,0.5523662179332721,0.963645034588726,0.4071692154149319,0.7436174318949614,0.9426523297490927,1
0.1718284361963933,0.555756970067513,0.9645433532143244,0.4467044042999697,0.7419637797247534,0.9426523297490981,1
0.1562179743249466,0.5481574161260382,0.9611805423966822,0.45099055417257133,0.7394826560158214,0.9426523297490892,1
0.16016561743592983,0.5491226034884612,0.9614204063021777,0.403072929213493,0.7370008868532719,0.9426523297491052,1
0.17442558366764838,0.5467489117341039,0.9648295647153646,0.4306057303966052,0.7345204085979585,0.935483870967742,1
0.15327640979881063,0.5399710748865554,0.9557646312600172,0.4617176707499957,0.7312118133503046,0.9354838709677207,1
0.2325442830990862,0.5407405579303829,0.9835831206171981,0.42503433376285915,0.7287306896413734,0.9354838709677313,1
0.479671562944775,0.6897129398157248,0.8639872973741811,0.4071069097873677,0.7295581611800963,0.9354838709677473,1
0.6280402849802658,0.8356516960715101,0.7036509514183463,0.5014551539074004,0.7179793687205434,0.9354838709677313,1
0.7854447176499181,0.6983437219818293,0.6012242854706107,0.5115463846191266,0.7105359975937495,0.9354838709677473,1
0.7691054317975482,0.6536204862678687,0.6347285565144877,0.33143559338471407,0.6824168107103994,0.9354838709677367,1
0.7370623510571718,0.6807064224299058,0.6473125317655744,0.4148236319670073,0.6559512759972586,0.9354838709677438,1
0.7261725497753193,0.6612813523458678,0.6746230171836254,0.4878614432805131,0.6600866973300168,0.9283154121863948,1
0.7525915390070912,0.6929471757892796,0.6426736250441357,0.24548746592502843,0.6592592257912943,0.9283154121863859,1
0.7362049155089164,0.6964210689356574,0.631547467912678,0.4561127766771933,0.6567781020823631,0.9283154121863859,1
0.7193886120564169,0.7032916426967788,0.6678140903717962,0.5344422372843355,0.6584323997061895,0.9283154121863735,1
0.6775598717147608,0.7120492922600761,0.7246089423952562,0.3972402472346785,0.6617403495002258,0.9211469534050263,1
0.6643006645074494,0.7111934719615519,0.7499357494830237,0.5404586786528801,0.6625678210389477,0.9211469534049996,1
0.6030175774961457,0.7127221388199412,0.7933654342379572,0.4496710514989323,0.6625678210389482,0.9211469534050103,1
0.6709400948138267,0.6686111019539294,0.7485671028466057,0.33602545329724065,0.6658757708329841,0.9211469534050103,1
0.6787479454608045,0.6689502505219131,0.7994541516944527,0.4654847696588995,0.6658757708329837,0.9283154121863788,1
0.3285287530439306,0.6623622725920438,0.929821304061876,0.38414459125751177,0.684070462880608,0.9283154121863664,1
0.3631586720031391,0.6031142205414051,0.9424258998457102,0.46182663709547384,0.7121902952175756,0.9283154121863681,1
0.4022237489585052,0.6514343849762003,0.936569754719436,0.3802824595921189,0.7303849872652002,0.9283154121863735,1
0.5249617390785695,0.6463290609302045,0.8960124733412733,0.5151725051430053,0.7279038635562682,0.9283154121863681,1
0.3370376733591253,0.6659814754136695,0.9189254403741737,0.6046775676854629,0.7237684422235104,0.9283154121863806,1
0.23439448496456333,0.6449092526430535,0.9577887476297762,0.26867479460893906,0.7055737501758856,0.9283154121863681,1
0.3546325266689501,0.654023219533992,0.9709122370320644,0.4825939290772652,0.7154982450116116,0.9283154121863735,1
0.35510003108265586,0.6464358171682245,0.9310636603957274,0.46158201672559457,0.7171525426354389,0.9283154121863788,1
0.41634283756853446,0.6398970004514365,0.9283935530701706,0.5699650200333599,0.7179793687205429,0.9283154121863681,1
0.39867362257873984,0.6361577244397508,0.9235920928772622,0.4101298271808423,0.7163250710967161,0.9283154121863788,1
0.38020510931877893,0.6342091006562307,0.9199075644075838,0.25253545844213565,0.7072280477997129,0.928315412186377,1
0.4002377189212195,0.6392492908835229,0.947120570062772,0.2971382434211796,0.705573750175886,0.9211469534050085,1
0.4350696729198341,0.6354239987081891,0.929700950715366,0.574503823391544,0.7072280477997134,0.9211469534049979,1
0.4511541854869871,0.6367001932581231,0.9179616104790222,0.5593086620897533,0.7088816999699217,0.9211469534049925,1
0.4294447405199189,0.6258907024710988,0.9253594307256212,0.3569714328269564,0.7113628236788533,0.9211469534050103,1
0.3535413966329729,0.6281625257365926,0.9433114377149086,0.24143509018242898,0.7097091715086449,0.921146953405021,1
0.32798372540954435,0.6436627872568759,0.952336208722768,0.48369986339581034,0.7064005762609912,0.9211469534050316,1
0.35515038580476876,0.6253150547395058,0.9459713959622311,0.43955759646987785,0.7055737501758866,0.921146953405021,1
0.3498183869167314,0.6283270473741039,0.9419901166044957,0.49365554162416675,0.7072280477997134,0.921146953405021,1
0.36308545574250134,0.6296276779998614,0.9419670311106583,0.40053662465057926,0.7080548738848174,0.9283154121863681,1
0.3726006857950029,0.6416254703420602,0.9427306934079829,0.28013050940700496,0.7146714189265075,0.9283154121863735,1
0.38934233262483287,0.6365049334832613,0.9356179928489243,0.5259961023010963,0.7072280477997133,0.9283154121863841,1
0.3836570901538602,0.6433271870189458,0.9397066963715479,0.47119685530162697,0.7039194525520589,0.9283154121863681,1
0.385844440555134,0.6334514865843318,0.9355742923537214,0.5592367488734052,0.6981303790490915,0.9211469534050103,1
0.3845765616731809,0.64212851197234,0.9388230714565243,0.39396580868270165,0.6948224292550562,0.9211469534050103,1
0.39270055678286386,0.6341391603196764,0.9336243735040689,0.47826745657730696,0.6915138340074017,0.9211469534049908,1
0.3956673078833706,0.640997981911962,0.9367874033270207,0.44275212823913435,0.6890327102984709,0.921146953405021,1
0.4027622148097522,0.6372234529003792,0.9306479199464938,0.3868494457831212,0.6857247605044349,0.9211469534050156,1
0.4005896022353832,0.6414651387436998,0.934081957207665,0.3882815616292817,0.6848979344193309,0.9211469534050103,1
0.40223490006355445,0.6372646056325422,0.9316718389772513,0.46398840535265695,0.6848979344193311,0.9211469534049996,1
0.4014843243270332,0.6412135155194894,0.9314619188962481,0.4431040789755473,0.6840704628806084,0.9211469534050103,1
0.4106950896873963,0.638759458387527,0.9280499799429422,0.44799384409728044,0.6840704628806082,0.9211469534050156,1
0.40723882970043124,0.643369677390453,0.9311146389592351,0.4161014237346278,0.6824168107103995,0.9211469534050156,1
0.4141930604559259,0.6402577102693452,0.9273857525465985,0.4022318149269456,0.6815893391716763,0.921146953405021,1
0.4101594838770627,0.6428529842602266,0.9307240396363763,0.41491261132340407,0.6782813893776412,0.9211469534050156,1
0.4120218123819083,0.6410502623904326,0.9274246256543626,0.45940071900231133,0.6766270917538141,0.9211469534050156,1
0.41125805432089924,0.6424464474503317,0.9306260384606189,0.43449323441958954,0.6749734395836056,0.9211469534050103,1
0.41471033896041976,0.6378570576626179,0.9261606951889275,0.4236100240061463,0.6749734395836056,0.9211469534050192,1
0.4105742997238776,0.6416608742027242,0.932361795262687,0.45970584320018115,0.672492315874674,0.9211469534050156,1
0.41519254986147114,0.637128128150756,0.9271451287395913,0.4477244433692704,0.670011192165743,0.921146953405021,1
0.4142090492025732,0.6413581284541449,0.9292067226038971,0.4211845091912092,0.6675300684568112,0.9211469534050138,1
0.4167920403747215,0.6392281397292487,0.9278249530094221,0.44440997857344844,0.6658757708329842,0.921146953405021,1
0.4069985563083469,0.646115703768679,0.928200733277355,0.4522115364099621,0.6658757708329841,0.9211469534050156,1
0.41370894417098814,0.6421092043326906,0.9257803666416868,0.4312417353501931,0.6625678210389482,0.9139784946236578,1
0.41026431181727346,0.646306504419094,0.9282043634327009,0.4257210112536564,0.6642214732091573,0.9139784946236524,1
0.4165645646236759,0.6402087163522197,0.9282936503283468,0.44997770887768873,0.6609135234151216,0.9139784946236471,1
0.41209496748445107,0.643962530896702,0.9298702524703455,0.43527551835607536,0.6584323997061898,0.9139784946236578,1
0.4147977677557717,0.6416887217736081,0.9265171465696751,0.4214936622545594,0.6559512759972581,0.921146953405005,1
0.41164527534251594,0.6421294487527258,0.9310434658089797,0.4469024389220832,0.654296978373432,0.9211469534050263,1
0.41161341098650067,0.6380045060710288,0.9255971483429293,0.4490963597594827,0.6518158546644998,0.9211469534050085,1
0.41133757988200914,0.6413521113076213,0.9297851273657626,0.4224803856156972,0.6501622024942917,0.921146953405021,1
0.4138376129478486,0.637240764049655,0.9277066552131417,0.4250172854025644,0.6468536072466373,0.9211469534050156,1
0.40973156468293936,0.6414669735803489,0.9308803243262178,0.4445172384130019,0.6443724835377062,0.9211469534050103,1
0.41538793322906964,0.6371632253547252,0.9278000557843895,0.4361086081058959,0.6435456574526016,0.9211469534050192,1
0.4106748002286268,0.6474583281129108,0.9283092069796598,0.41595093707211894,0.639410236119843,0.9211469534050369,1
0.414992827732702,0.6418894456629114,0.9274154317060292,0.4312644694223716,0.6369297578645299,0.9139784946236524,1
0.41246576645775096,0.6416276482138147,0.9307181913702371,0.446017196110049,0.6344479887019805,0.9139784946236524,1
0.41419047482046534,0.6404394944466534,0.9265346179035554,0.4294116416067558,0.6319668649930485,0.9139784946236507,1
0.4108754743427391,0.6455442931730944,0.9309601768025404,0.4257846434241775,0.6294857412841172,0.9139784946236507,1
0.4144631418583995,0.6405613959561248,0.9286358977497422,0.44991069548542567,0.6286589151990132,0.9068100358422893,1
0.41017770994755853,0.6388227386937412,0.929283223558326,0.4425820355475426,0.6253509654049773,0.9068100358422839,1
0.4138412117482799,0.6365292422139004,0.9289497943807739,0.4189554304593578,0.6236966677811506,0.9068100358423052,1
0.4104900517425953,0.6405905789870456,0.930813113751412,0.42672922206890973,0.6236966677811501,0.9068100358422839,1
0.415270790685233,0.6374094100385473,0.9281696503519394,0.4499752169104899,0.6203887179871149,0.9068100358423017,1
0.41003811145552116,0.6413009541966455,0.9301363863383374,0.4157861174797724,0.6195612464483915,0.9068100358422946,1
0.41548472219525856,0.6373510041097743,0.9253897915543465,0.4230442808019202,0.616253296654356,0.9068100358422875,1
0.4129441531359491,0.6413166081272953,0.9318663533061164,0.45133124349616166,0.6121185207752163,0.9068100358422946,1
0.41705798758380247,0.6373442844497965,0.9274855903915507,0.44618998971359614,0.6104642231513889,0.9068100358422928,1
0.41441342016283167,0.6413215570035937,0.9300420717597115,0.42203895764978283,0.6071562733573528,0.9068100358422928,1
0.416936933723123,0.637338865992724,0.9270956664338004,0.42707726561397075,0.6063288018186304,0.9068100358422981,1
0.4141999989709495,0.6413283206004275,0.9281525095521423,0.44994788413211406,0.6038476781096986,0.9068100358422946,1
0.418028491366794,0.6373303469578279,0.9272155509647622,0.4248727895663155,0.6013665544007674,0.9139784946236418,1
0.4135566637589666,0.6413388281708906,0.9279122887454805,0.4139246796017866,0.5988854306918359,0.9139784946236418,1
0.41916487849563555,0.6373176873456267,0.924947684653777,0.45186662280397955,0.5964043069829045,0.9139784946236329,1
0.4145599871654963,0.6413537787458257,0.9273304952792594,0.44168575581430347,0.5955774808978,0.9139784946236453,1
0.420358623883192,0.6373003108122118,0.9248690734853866,0.411517072363253,0.594750654812696,0.9068100358422928,1
0.41284868425720767,0.6413737226368833,0.9305437514948878,0.4390193759505003,0.5906152334799379,0.9068100358422928,1
0.4196833949918419,0.637277646192652,0.9244778309031986,0.4519157822893127,0.5897884073948335,0.9068100358423017,1
0.4175624727517544,0.6413992764022416,0.9287578597386626,0.42007415616861077,0.5864798121471787,0.9068100358422821,1
0.42232344322111715,0.6372490184670652,0.9257800705242029,0.43308705655295426,0.5839986884382481,0.9068100358423017,1
0.41390258518476075,0.6414311787941498,0.9278776651418648,0.45193082199329504,0.582345036268039,0.9068100358422875,1
0.419977831009873,0.6372136281880578,0.9258870906669989,0.42127155691291907,0.5806907386442117,0.9068100358422839,1
0.41447085788548754,0.6414702740716585,0.9275617475663682,0.4226672448342309,0.5773827888501764,0.9068100358422946,1
0.42095278571434974,0.6371706258111444,0.923686014847679,0.45360321034895995,0.5765553173114533,0.9068100358422893,1
0.41448054187495453,0.6415173306083866,0.928543559350717,0.43682999152480334,0.573247367517418,0.9068100358422839,1
0.4210980652877593,0.6371195090814644,0.922339260173183,0.41362316251122705,0.5707662438084865,0.9068100358422839,1
0.41392476098640807,0.6415721786454498,0.9278835702068218,0.4361400589274122,0.5699394177233822,0.9068100358422875,1
0.4197004142356535,0.6370620695827018,0.9254471617561157,0.45752226564056536,0.5666308224757277,0.8960573476702489,1
0.4166977700716067,0.641628919632006,0.9266249197455301,0.4246161427942845,0.564977170305519,0.8960573476702471,1
0.42090477517404895,0.6370161819093098,0.9236756068625883,0.41474256001910015,0.5641496987667967,0.8960573476702383,1
0.41679267614186244,0.6416215165874308,0.9292895722828849,0.44247218230795704,0.5600149228876563,0.8960573476702329,1
0.4225381334626116,0.6377168828890669,0.9231261428096512,0.4476681521252507,0.5583606252638291,0.9068100358422804,1
0.41618781306883124,0.6422519689219541,0.9263050871968087,0.41467255548508725,0.5567063276400029,0.9068100358423177,1
0.42215977359091006,0.636502641550349,0.9244947947427666,0.43563703777582324,0.5550526754697934,0.906810035842275,1
0.4174550103079784,0.6422114394875487,0.9260210646215159,0.4493217380448608,0.5525715517608624,0.9068100358422821,1
0.42329172801276216,0.6363584773102999,0.9251262287233002,0.42529845504040686,0.5509172541370356,0.8960573476702507,1
0.41795219656129634,0.6424289522878052,0.9262431572242058,0.41199795014528023,0.568221220191339,0.8960573476702542,1
0.42210848899598885,0.6360821615460786,0.9238829243090678,0.45067889477055406,0.5665669225675122,0.8960573476702507,1
0.4147595566350083,0.6427446939318164,0.9269580896381515,0.44193832242880565,0.5640857988585802,0.8960573476702365,1
0.4244225471165468,0.6365753979359786,0.9221521201146846,0.41571916321426067,0.563258972773476,0.8960573476702489,1
0.42550273716393755,0.6509844825938785,0.9221986799864186,0.4283888622463701,0.5607778490645455,0.8960573476702596,1
0.5266615048042991,0.6422957870205075,0.8642176527398482,0.45631081380054117,0.5582967253556129,0.8960573476702471,1
0.7302458104538051,0.6948967672131356,0.6636944215259153,0.4173746120712916,0.5549887755615776,0.8960573476702542,1
0.8068619180347043,0.6300165310453854,0.4488103763982756,0.41580283807082,0.5533344779377501,0.8960573476702471,1
0.8367411100452317,0.6328599351505592,0.4539687033598356,0.40501296640253054,0.5574698992705094,0.8960573476702667,1
0.7685106244202551,0.6381011109946164,0.3870227202256895,0.41731306392716844,0.5483722305198874,0.8960573476702489,1
0.736971248802957,0.7066875120688338,0.4754695630349188,0.4741787756606126,0.5417556854781979,0.8960573476702542,1
0.7634945921999913,0.7067734001448058,0.5477999679385841,0.47456459193527256,0.5301775384722633,0.8960573476702471,1
0.7703884108284111,0.6821351570682742,0.5618164244954187,0.43666394260536545,0.527696414763332,0.8960573476702542,1
0.7590506753287656,0.6356374801815103,0.5797016834997368,0.4931604539686956,0.5260421171395048,0.8960573476702489,1
0.6840171471361637,0.6594633134332016,0.7232658912492332,0.40630227992139084,0.5169444483888834,0.8960573476702294,1
0.7005049641787284,0.6725054995819912,0.721651358994424,0.3730066240969829,0.5119822009710208,0.888888888888884,1
0.6924594687661882,0.6754400474930777,0.7253036113913587,0.3887835766300927,0.4946143350085011,0.8888888888888964,1
0.7093337807037347,0.6799871454933897,0.7069930037391406,0.38782762859239334,0.49709545871743227,0.8888888888888928,1
0.691975496754283,0.6806134010802029,0.7262628376337037,0.580224297863438,0.49461433500850155,0.8888888888888911,1
0.7090717166117003,0.6802532479658322,0.7090771812123885,0.44848902973329524,0.4888252615055338,0.8960573476702542,1
0.6946279390727524,0.683306620771669,0.7147800089610212,0.4038684781247071,0.4879984354204295,0.8960573476702418,1
0.7173508979475676,0.6769159513047969,0.7020743170524583,0.4327235195025379,0.48551731171149787,0.8960573476702418,1
0.6910897301663246,0.6851547672529517,0.7157362593450523,0.4031731408899549,0.4838630140876709,0.8960573476702383,1
0.7288052545236443,0.6726504583792109,0.7041419649924399,0.4422220766009773,0.4822087164638434,0.8960573476702489,1
0.6439938429411888,0.7001497173542255,0.7008978365109307,0.4496197509241402,0.4789007666698087,0.8960573476702489,1
0.7894468179095925,0.5688724157252188,0.5176979806893742,0.41279987694025977,0.4780739405847039,0.8960573476702489,1
0.8429589199698497,0.4546125319182928,0.43760763659680896,0.4383997072253023,0.4805550642936351,0.8960573476702436,1
0.8365555312417355,0.42963280396650977,0.4147575369957353,0.4584913974670647,0.4888252615055338,0.9068100358422999,1
0.8148393961277898,0.5874343055993636,0.42085555071448233,0.4515239253597932,0.5078474250918806,0.9068100358422839,1
0.7206904482808704,0.7474657842099224,0.4896099994840463,0.4492863923476219,0.488825261505534,0.9068100358422839,1
0.6828664041971316,0.7061790666363009,0.7252163083645077,0.3961505637314123,0.4871709638817065,0.9068100358422821,1
0.4712853337326396,0.8146709099715348,0.8118413211934913,0.5431892179254765,0.49544180654722386,0.9068100358423106,1
0.5320748800570122,0.845571735204395,0.7495455865148766,0.4780587323760416,0.5185987460127108,0.9068100358423017,1
0.628337804800691,0.8663493795803473,0.6652216330399867,0.33229219337312926,0.5235609934305732,0.9068100358422804,1
0.6870494439407061,0.853563296181999,0.5270620910877042,0.32447611289847844,0.5177719199276059,0.9068100358422928,1
0.6982350008662428,0.8522658839625892,0.5205034865989961,0.527059793633501,0.5061931274680536,0.906810035842275,1
0.6596932164498618,0.8541483295363277,0.5665632260055943,0.361228773678573,0.4979229302561549,0.9068100358422839,1
0.6549082165601908,0.8152957628754414,0.6285017337255638,0.5305632279257096,0.49874975634125923,0.9068100358422839,1
0.7050322447599988,0.8550253957059628,0.5667795075730786,0.4216155355122011,0.48551731171149787,0.9068100358422804,1
0.7035787217262205,0.7976303710490369,0.578976240793802,0.4656303479131888,0.4846898401727751,0.9068100358422999,1
0.6874985275912706,0.7844839066708351,0.6721759967162129,0.30355163758752346,0.485517311711498,0.9068100358422893,1
0.686462594057367,0.7771427827469206,0.6621756300206746,0.4200661199305684,0.48138189037873896,0.9068100358422981,1
0.7130315796465809,0.7637250194734924,0.6487471948976005,0.5254010282735573,0.48468984017277456,0.906810035842275,1
0.7100653176452413,0.7648234525998681,0.6397237883696513,0.34562424129665864,0.4846898401727752,0.9139784946236507,1
0.7124471367668173,0.7598427713157925,0.6417953275017273,0.4302804093171429,0.4846898401727751,0.9139784946236578,1
0.7090348420198344,0.7630575785669114,0.6369108639042078,0.44630928771248696,0.4846898401727752,0.91397849462364,1
0.7121704840045847,0.7589661553116164,0.6389506737194168,0.4581088195453395,0.4813818903787393,0.913978494623656,1
0.7116976208341619,0.7631093630849324,0.639092704876792,0.3823258575558816,0.4822087164638435,0.9068100358422768,1
0.7113155038039914,0.7612283874462581,0.6388317177489975,0.43642737355338457,0.4789007666698076,0.9068100358422644,1
0.7113856956524577,0.7597722933938287,0.6382536180498846,0.4399987702391398,0.4772464690459813,0.9068100358423052,1
0.7132278956204186,0.7600527433758839,0.6390333857091368,0.4263018926762158,0.4780739405847039,0.9068100358422839,1
0.7122908185700448,0.7613449837971813,0.6375045418327712,0.4452984027637932,0.4772464690459815,0.9068100358422893,1
0.7136676297454299,0.7609228785688825,0.640861233172991,0.4431654596981633,0.4747659907906679,0.9068100358422946,1
0.7106394326036964,0.7604934051864597,0.6375903391203019,0.41317876489857125,0.47393851925194547,0.9068100358422875,1
0.713852058263801,0.7617427558906797,0.6404246430474215,0.45069752590157525,0.4722842216281182,0.9068100358422981,1
0.7118403093875233,0.7620313508596342,0.6373567055296636,0.41405161435119986,0.4706305694579101,0.8960573476702773,1
0.7121816967867576,0.7604991686998892,0.6400322747970384,0.445529826849269,0.47145739554301386,0.8960573476702436,1
0.7102259120185352,0.7608313201810105,0.6376871043071932,0.44711529879300693,0.4698037433728059,0.8960573476702489,1
0.7121497284903644,0.7614576381752602,0.6396630953646154,0.4294365590015006,0.4689762718340826,0.8960573476702489,1
0.7122693686378322,0.761341806233301,0.6347584547886383,0.46007525077915723,0.4681494457489785,0.9068100358423017,1
0.714794705314202,0.7629412879548145,0.6410763567053398,0.456505374300483,0.4664951481251511,0.9068100358422804,1
0.7130383583175809,0.7607252916417747,0.6362644341933233,0.4266005677742632,0.46566832204004677,0.9068100358422946,1
0.7128554483855498,0.7645393422793746,0.6419605113091243,0.4407916715513337,0.4656683220400463,0.9068100358422875,1
0.7200142242084412,0.7880310841254262,0.630306855897012,0.46208709932486386,0.46484149595494256,0.9068100358422697,1
0.6829193275942249,0.7945644818432264,0.6417789814231649,0.43385457082457746,0.4631871983311154,0.9068100358422946,1
0.6392914895517855,0.7718272948575968,0.677858057608786,0.4264731471153636,0.4615329007072884,0.9068100358422875,1
0.6958350106255332,0.8050623186369155,0.6610906235968307,0.44661627082493904,0.46153290070728853,0.9068100358422893,1
0.6972526388283812,0.7799739582114666,0.6687991797971705,0.4561529786045638,0.4640140244162199,0.9068100358423017,1
0.6871804399577837,0.7670075915248364,0.6760119124963668,0.43319964307735614,0.4615329007072884,0.9068100358422928,1
0.689019184154052,0.7762224763768972,0.668840047325882,0.4444419577755304,0.46070607462218377,0.9068100358422893,1
0.6885688735033498,0.7720020170460273,0.6746866907277558,0.40125781523932336,0.4590517769983568,0.9068100358422839,1
0.6875885338708964,0.774263120599474,0.666954771662838,0.41889091353917396,0.4573981248281484,0.8888888888888857,1
0.6953015008038423,0.7745236950880589,0.6764802557264606,0.43853734996938304,0.45657065328942553,0.8888888888888804,1
0.680774150989047,0.7761424244420669,0.6694623729728831,0.42552109597708937,0.45657065328942575,0.8888888888888928,1
0.7084735609026106,0.8126235032703311,0.7284081756130485,0.43950723272148967,0.4557438272043211,0.8888888888888857,1
0.5738566552222275,0.8019909575899422,0.7222943470817186,0.4349758599745426,0.45491700111921657,0.8960573476702329,1
0.49886245537103757,0.8407580689606682,0.8005739259558602,0.4245442632734451,0.46070607462218366,0.8960573476702383,1
0.5716549398752626,0.8772211002061545,0.7059335343343339,0.4480134736415485,0.4706305694579099,0.8960573476702418,1
0.644581286942978,0.8527019386672017,0.6339799286179288,0.466401337308431,0.46980374337280545,0.8960573476702596,1
0.6684807689200347,0.8543610101618075,0.6083576185801722,0.46772778320279573,0.460706074622184,0.8960573476702436,1
0.6711869227115457,0.842350177802657,0.5840373358355511,0.38680722810669144,0.4524358774102853,0.8960573476702329,1
0.7040229418014996,0.8565861013857332,0.5685791890021855,0.4436203826157907,0.4416839110358373,0.8960573476702542,1
0.6177227209475306,0.8553455166481629,0.6286909051316097,0.49934013942557953,0.43424053990904293,0.8960573476702365,1
0.6422044514148368,0.8310804953548379,0.6883115673312987,0.41972590365293416,0.4301057640299025,0.8888888888888857,1
0.6602784892946356,0.8364709350189963,0.6380005807834856,0.43926580079671995,0.4375491351566964,0.8888888888888626,1
0.6538483107546892,0.8320388102193184,0.6763847964721051,0.4571679654393863,0.4358948375328697,0.8888888888888751,1
0.5937762860526676,0.8105548884254731,0.7487767373792322,0.37394269148147985,0.43589483753286995,0.8888888888888928,1
0.5963005677156015,0.7957817006041924,0.7829745833093282,0.3464838387662388,0.43920278732690576,0.9068100358422839,1
0.57759970169485,0.7796093542480635,0.7728189190431375,0.5116210965087592,0.44085708495073245,0.9068100358422839,1
0.6043018694776388,0.7906802232636363,0.772071883074487,0.38012293897739546,0.44830045607752683,0.9068100358422804,1
0.603188245213295,0.7732284364912799,0.7725331882163077,0.4163470505781433,0.44664615845369987,0.9068100358422981,1
0.6165870425453345,0.7726093338286171,0.7736793583243827,0.3262125927262335,0.444992506283491,0.9068100358422999,1
0.6052459900620001,0.76902803309857,0.7719888062918554,0.4686781363571268,0.4441650347447688,0.9068100358422946,1
0.6249271016793588,0.7712990857696739,0.7591369619736134,0.4847681480216094,0.44251138257455963,0.9068100358422981,1
0.6280767413482267,0.7699636769242131,0.7490284952946772,0.39019087920205103,0.4416839110358373,0.9068100358422893,1
0.6352061181075994,0.771171495179678,0.7453626690340276,0.40662164195918826,0.43920278732690604,0.8960573476702507,1
0.6371186539720272,0.7702840928360918,0.7428344189725935,0.4531979203752958,0.43754913515669697,0.8960573476702294,1
0.642705035098186,0.7711272635480872,0.7432198899541538,0.4681306880209572,0.4367216636179746,0.8960573476702542,1
0.6423222881643612,0.7666277230407241,0.7369740823020685,0.4771734314354035,0.4367216636179746,0.8960573476702507,1
0.646580928429111,0.7660825356784354,0.7401036370747737,0.4256499503026215,0.4367216636179743,0.8960573476702507,1
0.6437619185138481,0.7659786759767581,0.7348904343592533,0.43847352127650313,0.4358948375328703,0.8960573476702542,1
0.6464466463784317,0.766455250256331,0.7375090563158565,0.4099382193826273,0.43424053990904293,0.8960573476702436,1
0.6436457369789146,0.766291402231611,0.7349631349043448,0.450536745363378,0.4334137138239392,0.8960573476702489,1
0.6473099258754329,0.7678113324140586,0.7375098325448812,0.4510888186770396,0.4317594162001115,0.9068100358422893,1
0.6436886383235393,0.7658394395429532,0.7348129762877105,0.43455711614662573,0.43258688773883425,0.9068100358422946,1
0.6466324832306282,0.764637648178048,0.7382077945050547,0.4092697118158668,0.43093259011500706,0.9068100358422893,1
0.6429974674258753,0.7652561634475218,0.7344711671125723,0.4565203573205875,0.43093259011500745,0.9068100358422946,1
0.6537742370307218,0.7661598473166185,0.7293150921523253,0.44061120405052995,0.42927829249118,0.8888888888888804,1
0.6665610674765446,0.7630029686120112,0.704525701800293,0.4239308210501706,0.42845146640607595,0.8888888888888804,1
0.6939188433420973,0.762487412425559,0.6757865882789756,0.43105349476663984,0.42762464032097114,0.8888888888888786,1
0.6982100324822145,0.7580565871831072,0.6723810976878619,0.4612511139179949,0.4259703426971441,0.8888888888888751,1
0.696523490519052,0.7550317944519832,0.671941101120496,0.42325716747752207,0.4234892189882131,0.9068100358422893,1
0.6970236074019469,0.7546721221940472,0.6697667191562077,0.4257513139584624,0.4226623929031089,0.9068100358422893,1
0.7004673945039964,0.7533826605584105,0.6734636613796176,0.44649727393081484,0.42266239290310886,0.9068100358422946,1
0.6952210272025615,0.7553507925949743,0.6693891976431899,0.4379502884868257,0.42100809527928124,0.9068100358422946,1
0.7007254116409762,0.754154221949704,0.6708730941584555,0.4138601714045934,0.4201812691941775,0.9068100358423017,1
0.7006899647327982,0.7543267831247149,0.6693190198169777,0.4564715870984885,0.41770014548524637,0.9068100358422999,1
0.700645619150675,0.7542420929380614,0.6713362159255222,0.45333262845079614,0.4177001454852458,0.9068100358422697,1
0.6965285103509983,0.75430440618235,0.6670075067917562,0.42164823011221214,0.41687267394652316,0.9068100358422981,1
0.7015573475266318,0.7542406814310653,0.6683059125758809,0.4116672456354617,0.41521902177631453,0.9068100358422893,1
0.6987843943281308,0.7543179372772807,0.6687398916238156,0.4475382900554557,0.41439155023759183,0.9068100358422928,1
0.6995551024398331,0.7542192449629941,0.6691744992171468,0.4455031032073539,0.41356472415248735,0.9068100358422893,1
0.6983068215062401,0.7543463270214157,0.6682358757544455,0.42296492804140456,0.41191042652866044,0.9068100358422839,1
0.7017597434810916,0.7541819239494141,0.668617659553483,0.4181205821630447,0.41025677435845176,0.9068100358422839,1
0.6976943656300156,0.7544009748471683,0.6695730410994335,0.4584674025964592,0.4094293028197287,0.9068100358422893,1
0.6993477419156511,0.7540721578450473,0.6705581344612886,0.4390544298262215,0.4086024767346242,0.9068100358422875,1
0.6955233315092982,0.7551886023729748,0.6683280666081597,0.4193104433904239,0.4069481791107975,0.9068100358422875,1
0.6965590086682859,0.7547428493592783,0.6660832572197308,0.4280472686489302,0.4077756506495202,0.9068100358422928,1
0.6965817699810393,0.7552553303221026,0.6679747590723115,0.4569095113623587,0.4052945269405885,0.9068100358422875,1
0.6997013915591673,0.7538954950658107,0.6677753848722426,0.43425460422760537,0.40446705540186617,0.9068100358422981,1
0.6960515125720651,0.7551638410459363,0.6695777007404042,0.42196818623811727,0.4044670554018658,0.9068100358422768,1
0.6982856380049272,0.7547635007128415,0.6679241684088228,0.42830038431338485,0.4028134032316572,0.9139784946236507,1
0.6951739102160102,0.756244103332554,0.6670379546888043,0.4575424366139749,0.4019859316929346,0.9139784946236418,1
0.6975894828259454,0.7541661418421511,0.6697732248076382,0.42056904800267325,0.4011591056078302,0.9139784946236453,1
0.6969984253147566,0.755333636298576,0.667835178782697,0.42788595165245014,0.39867798189889875,0.9139784946236329,1
0.6965719416689904,0.7549179449626118,0.6680276034155189,0.44677923906480893,0.3978511558137943,0.9068100358422839,1
0.6976443176290336,0.7552528680693265,0.6688017597419167,0.4470357412378989,0.39702368427507195,0.9068100358422768,1
0.7004007408693105,0.7548862012558724,0.6680484267531301,0.40987972452644306,0.39537003210486266,0.9068100358422946,1
0.6971694268042355,0.7547724271310047,0.6683273555046905,0.43181600794068514,0.39454256056614045,0.9068100358422821,1
0.6995971500768634,0.7568335721740685,0.6686429104631431,0.44744492891636417,0.3953700321048632,0.906810035842275,1
0.6937949714314233,0.7597768224148629,0.6687134703086933,0.44255698030521834,0.39371573448103636,0.9068100358422893,1
0.6984530273770169,0.7546225034630447,0.6699757717306666,0.41509031766279036,0.3920614368572092,0.9068100358422946,1
0.6980818359067734,0.7565143279169517,0.6679849178306303,0.4369888960746867,0.3920614368572089,0.9068100358422821,1
0.6984523460695327,0.7554631667512707,0.6705698713924335,0.44469523872701927,0.3904077846870005,0.9068100358422999,1
0.6934255951051738,0.7556876570891907,0.6683244350911761,0.43071427745880464,0.3895803131482774,0.906810035842275,1
0.7009296275972162,0.755683277480556,0.6664288322104522,0.4121507187948462,0.3887534870631729,0.9068100358422537,1
0.6961925712617659,0.7577613491524227,0.6658686943136719,0.44612081177041507,0.38958031314827757,0.9068100358422662,1
0.698986545980969,0.7547168490524498,0.6667571655111364,0.4463293456625055,0.38709918943934635,0.9139784946236453,1
0.6947973521827475,0.7550650964816061,0.666362681582287,0.42074312882220255,0.38544553726913755,0.91397849462364,1
0.7008956732891546,0.7544813877532064,0.6664817756881197,0.42058643517650185,0.3846180657304149,0.9139784946236524,1
0.6946110477110493,0.7580241574029101,0.6671661324461633,0.4549511164969851,0.3837912396453104,0.9139784946236471,1
0.7020369288942315,0.7545138702417998,0.6666068270567309,0.4301247393889681,0.38213694202148335,0.9139784946236507,1
0.693280876920109,0.7578350510413792,0.6672191627992446,0.41882552624754726,0.38131011593637865,0.9139784946236418,1
0.7015478040445894,0.7540917259501998,0.6655651728806264,0.4368083348624682,0.38131011593637915,0.9139784946236524,1
0.6927796609858156,0.7607998995929014,0.6691681844802956,0.4505840999216145,0.38131011593637915,0.9139784946236453,1
0.7166854142722607,0.76660049572518,0.6722139503637078,0.41271672373858903,0.3821369420214836,0.9211469534050192,1
0.6460760530664416,0.8062841467903461,0.7165174401258629,0.43267596085466065,0.3796558183125519,0.9211469534050103,1
0.6081216171886131,0.8299087607655489,0.7351489391402142,0.44964502411313284,0.3804832898512749,0.9211469534050156,1
0.578830091822863,0.8172840305022067,0.7531393448365157,0.4366022116636946,0.38296441356020583,0.9211469534050085,1
0.5189629172335839,0.8150704915838334,0.7856535760324129,0.43531397711161396,0.3945425605661403,0.9139784946236418,1
0.44796527138357495,0.8586462396251404,0.8080990285922469,0.4564437430333301,0.3978511558137947,0.9139784946236418,1
0.47146874953030354,0.87160951738833,0.7931696545096063,0.46539208803725063,0.4028134032316572,0.9139784946236507,1
0.5824723163843677,0.8592952027252638,0.7238080749651399,0.4247454025298154,0.40446705540186645,0.9139784946236578,1
0.5653375782075782,0.8333516322859129,0.7525332391686882,0.46472041769912187,0.4061213530256936,0.9139784946236578,1
0.5856871880716534,0.8233558307687482,0.7280235348678319,0.4541736902942367,0.40033227952272626,0.9139784946236631,1
0.6738298325508525,0.8615619115734565,0.6213781894048022,0.36337204968154335,0.40115910560783036,0.9139784946236524,1
0.675944383865185,0.797314679659063,0.7040148924711165,0.4814937603795722,0.39371573448103636,0.9139784946236524,1
0.6394510071093967,0.7875978540901413,0.7228540478858484,0.40353301215730714,0.3846180657304149,0.91397849462364,1
0.6372371308418416,0.7876698408761149,0.7294963162543806,0.45014554485623837,0.38792666097806955,0.9139784946236649,1
0.6482718002123853,0.7944183697481055,0.720418343899798,0.44962954943954564,0.3912346107721046,0.9139784946236418,1
0.6031944248751895,0.7838722982747001,0.7499997423302005,0.4349385649339492,0.3904077846870004,0.9139784946236453,1
0.6476662688691128,0.8046918657775342,0.7076837650391867,0.3125495777376373,0.38875348706317364,0.9139784946236649,1
0.645805142972839,0.7859387722628041,0.7522163746375032,0.3794871761643895,0.3895803131482781,0.9139784946236595,1
0.5766149084623652,0.8101213935604084,0.7549290520076757,0.44063058675676364,0.3887534870631733,0.9139784946236471,1
0.6318383628960147,0.7989861807219314,0.7214954722121174,0.4052583577363174,0.39123461077210525,0.913978494623656,1
0.6797110867939544,0.7968898463093552,0.6623495396283223,0.5567820262278959,0.39537003210486354,0.9211469534050156,1
0.6931709279307824,0.7954399111289725,0.640579078685985,0.39802097878285025,0.3904077846870004,0.9211469534050032,1
0.7123384281816131,0.7933279769839703,0.6239694911252129,0.44878232427399617,0.3904077846870001,0.921146953405005,1
0.6783663108458385,0.8046461030425845,0.6578050019876776,0.3505125311234242,0.3862723633542421,0.921146953405021,1
0.6281057885119985,0.80109491383153,0.7082323070602318,0.4141686698636889,0.38958031314827757,0.9068100358422981,1
0.6883934941933358,0.8003205907845592,0.6552698975147768,0.5960675691038455,0.3904077846870004,0.9068100358422928,1
0.6804084740842253,0.7964085847095927,0.6642475075756752,0.34832224870153516,0.3879266609780692,0.9068100358422839,1
0.6809573726693088,0.7992402824303658,0.6582469664956245,0.4697179846373694,0.38627236335424187,0.9068100358422893,1
0.6729922612435429,0.807237282916655,0.6625662603828097,0.46957738511722613,0.3854455372691373,0.9139784946236471,1
0.6579390331797881,0.8080745144376772,0.6723736010396326,0.3136293828075519,0.38379123964531014,0.9139784946236329,1
0.670167613723326,0.8108529410147955,0.6663599526824391,0.4505324598765198,0.38213694202148313,0.9139784946236382,1
0.6695200707081257,0.8071146552763058,0.6697999049561016,0.49211928851460923,0.3796558183125523,0.9139784946236524,1
0.6700669110224458,0.8071128648558621,0.6656381199349766,0.42406386915574046,0.37800216614234294,0.9139784946236418,1
0.6649912205005764,0.8029328895224803,0.6683930084484664,0.38547782982157386,0.3780021661423438,0.9139784946236471,1
0.6732478521734151,0.8074732402802639,0.6645391712546211,0.4459935320082683,0.37634786851851654,0.9139784946236578,1
0.6653348626383975,0.8031867032907425,0.6691381974683415,0.444439578251132,0.37469357089468924,0.91397849462364,1
0.6719696875074642,0.8047492815823942,0.6640751582704627,0.42589044632890466,0.3755210424334117,0.9211469534050103,1
0.6659519901535997,0.8085152459452953,0.6694404143973913,0.43194000166931423,0.37469357089468963,0.9211469534050192,1
0.6643379919103073,0.8125996937375084,0.6665698122643533,0.4631895714713393,0.3738667448095848,0.921146953405005,1
0.661002636930476,0.8110719507967519,0.6731094516572982,0.4270764902727451,0.37303991872448033,0.9211469534049961,1
0.6565275959442886,0.8173003455826112,0.6800185852839946,0.4358755818719196,0.37138562110065365,0.9139784946236418,1
0.647633847278562,0.8288294272842159,0.7005194465071038,0.4552817729834171,0.36973132347682636,0.9139784946236507,1
0.5997040041961735,0.8525255410594941,0.7254275135903361,0.43956872986566364,0.3680776713066179,0.9139784946236471,1
0.5296947657612447,0.8757895789286316,0.7336058790079725,0.41457357267555933,0.36559654759768656,0.9139784946236382,1
0.5038127310614215,0.8767157313424601,0.7541438608768802,0.4597574265667039,0.3664233736827905,0.9139784946236453,1
0.5050545756004983,0.8815287156116491,0.7729249559595485,0.45472759468483437,0.3664233736827908,0.9139784946236524,1
0.5258674154842755,0.876196500671848,0.7550784992030046,0.43628191155084356,0.3689044973917219,0.9139784946236471,1
0.5352837552712596,0.8681719549800107,0.7581257066839364,0.43074104958771553,0.36890449739172226,0.9139784946236453,1
0.5430786157929774,0.8678586158140447,0.7540985493878002,0.4378284527329233,0.36807767130661767,0.91397849462364,1
0.5477721946915161,0.864323806932626,0.752043656048289,0.4459442607950601,0.366423373682791,0.9139784946236524,1
0.5559032932731558,0.86163147376099,0.7463054460555291,0.44985889247949823,0.36725019976789475,0.9139784946236418,1
0.5600081458073136,0.8607982381740602,0.7485884236207786,0.4262519890308438,0.3655965475976868,0.913978494623656,1
0.5594371634810308,0.8612802917063537,0.7437414654975685,0.41028100895206243,0.36311542388875506,0.9211469534050138,1
0.5592352471567741,0.8606718729304865,0.7466783977979032,0.43943854646658137,0.3622879523500321,0.921146953405005,1
0.5606724619287439,0.8614046558181807,0.7423698527180274,0.4398167363274124,0.36228795235003236,0.9211469534050103,1
0.5623105022310975,0.8605418813976855,0.7440752365840059,0.41758074240529086,0.3622879523500328,0.9211469534050334,1
0.566289461402185,0.8615747440786732,0.7418415715294362,0.4428728823181881,0.36146112626492816,0.9139784946236382,1
0.5652818103262829,0.8601334276215127,0.7440939811200526,0.44870311974695976,0.36146112626492816,0.913978494623656,1
0.5652799208117846,0.860426229847608,0.740081591854423,0.4273001110151263,0.35980747409471947,0.9139784946236507,1
0.5643063067647128,0.8593551650556841,0.7422271401616023,0.42799986624630515,0.3581531764708924,0.9139784946236524,1
0.569531844220855,0.8604580994427329,0.7404249571165582,0.4520814810707031,0.35815317647089195,0.9139784946236382,1
0.5661966949190007,0.8576521728697403,0.7408437204743963,0.43583542585847473,0.35567205276196084,0.9139784946236418,1
0.5665592176290241,0.8594042479469044,0.7380699313270838,0.41602675803589784,0.35567205276196034,0.9139784946236595,1
0.5688763123426857,0.8606119320234996,0.7409790172564681,0.4296922151044733,0.35401775513813405,0.9139784946236382,1
0.5668764179022043,0.8604069856297445,0.7395832859546583,0.4499374687322205,0.3540177551381339,0.9211469534050192,1
0.5666628846126384,0.8609629926031637,0.7393457327353512,0.43280516095504035,0.3523634575143067,0.9211469534050138,1
0.5710079849554224,0.8604271775931565,0.7368336604344697,0.4167588154997147,0.3523634575143064,0.9211469534050032,1
0.5700583308567779,0.8554510625083245,0.7372977563583574,0.4392296729374278,0.35070980534409785,0.9211469534050227,1
0.5742254307976272,0.855386116473332,0.7330448190010002,0.4505561819956579,0.3490555077202711,0.9211469534050085,1
0.5769131667163321,0.8566352439826935,0.7315951904298503,0.4253074232847216,0.3482286816351666,0.9211469534050103,1
0.5799686147473444,0.8548485528304455,0.729646118356601,0.42471332661177896,0.34905550772027094,0.9211469534050156,1
0.5765085642078054,0.8542612616279694,0.7316395970252323,0.4448765630017766,0.34657438401133944,0.9211469534050085,1
0.5791160171631626,0.8550962076212221,0.7299117113076828,0.4407822002974899,0.344093260302408,0.9283154121863735,1
0.5774343884113377,0.8522338996865548,0.7322062929238233,0.41280904309171695,0.34492073184113076,0.9283154121863735,1
0.5794421770822009,0.8531747099626041,0.7282494794013502,0.4318475488229921,0.3440932603024083,0.9283154121863841,1
0.5770782605348804,0.8524848698813534,0.7322012000364713,0.4490511854936173,0.34326643421730413,0.9283154121863806,1
0.5794573915810457,0.8530812002350647,0.7284965812215171,0.42859429845395497,0.34243960813219937,0.9211469534049996,1
0.5774721802543625,0.8525279891826802,0.7316861207004812,0.41724960379822446,0.34326643421730363,0.9211469534050103,1
0.5795153211102759,0.8530596250176605,0.7279361865403765,0.44538279133743097,0.34161213659347683,0.9211469534050103,1
0.5789239057704421,0.8525389295473351,0.7308074429842903,0.4416349320993324,0.3416121365934768,0.921146953405021,1
0.5830914421561666,0.8530543886962894,0.7271040288550902,0.4199625326121401,0.3407853105083723,0.9283154121863948,1
0.5803772703525361,0.8525409558022286,0.730828239259179,0.43521899384977614,0.3399584844232681,0.9283154121863593,1
0.5832171104230875,0.8530542087405868,0.7269036858648099,0.4503093428808445,0.3383041867994412,0.9283154121863841,1
0.5802348523209745,0.8525400793413103,0.7301724337877518,0.4197274025733353,0.33747736071433687,0.928315412186377,1
0.5833428167165889,0.8530556632808453,0.7276429822987354,0.4249834918986941,0.336649889175614,0.928315412186377,1
0.5798515613653679,0.8525383471227268,0.7304206665413168,0.45454807276364884,0.33664988917561406,0.9283154121863788,1
0.5790686729668829,0.853057478431791,0.7274728549745582,0.43104822762079087,0.33582306309050997,0.9283154121863681,1
0.5807915500981152,0.8525365791903259,0.7296427783838864,0.412496114076181,0.33416876546668256,0.9283154121863788,1
0.5838148727387743,0.8530591092982789,0.7269977443387101,0.4471006251258823,0.33416876546668234,0.9283154121863451,1
0.5817241862177424,0.8525351498147855,0.7298986128711147,0.4450638054601436,0.3333419393815782,0.9283154121863841,1
0.5864038631053319,0.8530602887747336,0.7265371655780474,0.41954270520044495,0.33334193938157836,0.9283154121863841,1
0.5822514006160324,0.8525342587520237,0.7300455491746096,0.4332331273113179,0.3325151132964738,0.9283154121863788,1
0.5839262457409794,0.8530608586928747,0.7260249304419861,0.4537273907083173,0.3316876417577512,0.9211469534050103,1
0.583016903946678,0.852534039780249,0.7296261237653573,0.4262462630177892,0.3300339895875421,0.9211469534050032,1
0.5875062701966219,0.853060697779018,0.727336610258126,0.4196346336475418,0.3292065180488197,0.9211469534050085,1
0.5853717807520772,0.8525346102332811,0.7295881778721897,0.44869032086847893,0.3292065180488202,0.921146953405021,1
0.5844617104348309,0.8530596861351851,0.7271169807628945,0.44272094324115985,0.3292065180488201,0.9354838709677402,1
0.5822113053820795,0.8525360978451344,0.7296935993124203,0.4132972920371228,0.32672539433988845,0.9354838709677349,1
0.5862851608221835,0.8530576835800281,0.7270453317182151,0.4299733480717996,0.32672539433988895,0.9354838709677598,1
0.5845628598180586,0.8525386596162743,0.7297511061641021,0.45235986262214145,0.32589856825478447,0.9354838709677207,1
0.5856645415480857,0.8530545118227975,0.7269932841878781,0.4310369666858632,0.32507174216968016,0.9354838709677367,1
0.5865946875962681,0.8525425000024947,0.7298040887641803,0.41744066827925147,0.3234174445458532,0.935483870967742,1
0.5879952966412779,0.8530499346575928,0.7269306651999774,0.4429020393933476,0.3234174445458527,0.935483870967726,1
0.5870832343166466,0.8525478935985036,0.7298980258623429,0.4502878254375963,0.32341744454585303,0.9354838709677473,1
0.5865892716197302,0.8530436309915856,0.7266905349712539,0.41898341234415754,0.32176314692202623,0.9354838709677313,1
0.5850731631178481,0.8525552181119362,0.7279388931442168,0.4256266823807311,0.32176314692202584,0.9354838709677615,1
0.5863713721699799,0.85303515365825,0.7271214928639618,0.44994469346549343,0.32010949475181755,0.9354838709677367,1
0.5839498470285461,0.852565006735824,0.7297888095094127,0.43117294418000573,0.3201094947518175,0.9354838709677367,1
0.5866112315760539,0.8530238617328066,0.7262838850884665,0.4131781180184137,0.3192820232130943,0.9283154121863681,1
0.5861981741729948,0.8525780370260516,0.729211040892118,0.44055787746367736,0.3184551971279898,0.9283154121863681,1
0.5886081551497625,0.8530088018691251,0.7264174601003557,0.44761752732284754,0.3192820232130944,0.9283154121863628,1
0.5861991001014397,0.8525954922331133,0.7284967436953569,0.42046136984691,0.31680089950416285,0.9283154121863806,1
0.5885167300872634,0.8529884844283429,0.7256372348966758,0.4271295580562037,0.31597407341905837,0.9354838709677402,1
0.5857674565019965,0.8526192793757394,0.7282618448748424,0.45144436066696,0.3159740734190584,0.9354838709677242,1
0.589344451947993,0.85296041877288,0.723030376071274,0.42918317780353954,0.3151472473339542,0.9354838709677402,1
0.585725337480813,0.8526527315512296,0.7275872713431513,0.4339362527508104,0.3143197757952312,0.9354838709677189,1
0.589120221980055,0.852920006023517,0.7277196984064116,0.4460538491552086,0.31431977579523096,0.9211469534049996,1
0.5836288520936274,0.8527024518890953,0.7280404794162638,0.42411461818986407,0.3110118260011956,0.9211469534049908,1
0.5862933965743877,0.8528572311304805,0.7247557003860565,0.4125362394217732,0.31183865208629996,0.9211469534050085,1
0.5790811634015128,0.8527849200816257,0.7296737243038537,0.45118357158872785,0.31183865208630035,0.9211469534050192,1
0.5841494638788807,0.8527410432070439,0.7264163960332939,0.4422224860130185,0.31183865208630035,0.9354838709677438,1
0.5875722254076752,0.8529766394426879,0.729227439396946,0.41749812660511176,0.3101849999160917,0.935483870967742,1
0.5897764606031026,0.8521562072854534,0.7265740986992529,0.4336339721563201,0.30935752837736885,0.9354838709677296,1
0.5880020231384325,0.8519904085056085,0.729050221847455,0.4514161184305871,0.31101182600119576,0.9354838709677402,1
0.5894942776421512,0.8505421840713494,0.7251582932086855,0.4197943737854824,0.3085307022922646,0.9354838709677367,1
0.5864175688570179,0.8530198359071808,0.727292737089748,0.43669445239954063,0.30770387620715983,0.9354838709677313,1
0.5918957549563411,0.8514843648508825,0.7268391887138268,0.4491654288886475,0.30853070229226415,0.9354838709677402,1
0.5820723162336663,0.853863867014123,0.7254215261164488,0.41755075756065063,0.3043952809595062,0.9354838709677367,1
0.5864318829425814,0.8548019420850477,0.7246964053177798,0.42981759250508894,0.30522275249822844,0.9354838709677473,1
0.5821372888089376,0.8505129309554952,0.7300310108930186,0.4542598398418139,0.3043952809595057,0.9354838709677313,1
0.5886844591876222,0.8541882240991528,0.7248063116910842,0.4220300716593185,0.3035684548744013,0.9354838709677242,1
0.585311469336917,0.8517178136592285,0.7293187124930949,0.42686312675215254,0.3035684548744014,0.9354838709677207,1
0.5908542980721373,0.8537090203021686,0.7251370167220754,0.45387813572847724,0.3019141572505743,0.9426523297491052,1
0.5848360379920511,0.8519943545830132,0.7288561944662595,0.4374991496092262,0.3010873311654699,0.9426523297491105,1
0.5900956741578861,0.8535227662397078,0.7251530585202532,0.41547222746403156,0.3010873311654701,0.9426523297491016,1
0.5862777329056977,0.8521323177847202,0.7292993727420518,0.4458333985284547,0.30026050508036606,0.9426523297491016,1
0.5904016155758148,0.8534131795855415,0.7231130534785246,0.44176548205260585,0.3002605050803656,0.9354838709677242,1
0.5852078909090042,0.8522245066128362,0.7301508677405105,0.416156916931342,0.29860620745653876,0.9354838709677349,1
0.5897137323727543,0.8533315553604388,0.7263390305396236,0.4451994864018807,0.29860620745653854,0.9354838709677136,1
0.585038540269616,0.8523003811920049,0.7303351340796653,0.44643593300522866,0.29777938137143406,0.9354838709677242,1
0.5897448989493957,0.8532574740532646,0.725073575910304,0.41734195783708133,0.29695190983271186,0.9426523297491158,1
0.5872675738907392,0.8523766413967696,0.7269647403592459,0.4241111911432181,0.29695190983271186,0.9426523297491123,1
0.5919427564667122,0.8531739732604529,0.7229691186025259,0.4518271159937332,0.29612508374760715,0.9426523297490945,1
0.5874496593148995,0.8524756380352376,0.7286936781420748,0.43413442884482384,0.29447078612377975,0.9426523297490821,1
0.5912194076430785,0.8530423738238815,0.723786247300065,0.41944028338138306,0.29364396003867593,0.9426523297490981,1
0.5877522864590943,0.8526818723926126,0.7264639319052499,0.44443459463058,0.2944707861237802,0.9426523297490874,1
0.5925402760715384,0.8507217579280704,0.7217931850122383,0.4430829546595537,0.29281713395357145,0.9426523297490945,1
0.5872152213903523,0.851419234432607,0.7266871685553115,0.4167321264405418,0.2919896624148487,0.9426523297491123,1
0.5927813779260881,0.8534629672437226,0.7215766419491698,0.43793356864413185,0.29198966241484886,0.9354838709677367,1
0.5832640269223691,0.8523071034256764,0.7271757913361855,0.44829109740434325,0.2919896624148493,0.9354838709677527,1
0.5916497020499762,0.8531870941141553,0.7234123324038151,0.41602153781280404,0.29116283632974477,0.9354838709677313,1
0.5862026929864441,0.8524888140517605,0.7291014258400681,0.4296428418348086,0.2903360102446403,0.935483870967726,1
0.5924020778485547,0.8520100567435696,0.723984787631011,0.4530637851641213,0.29033601024464045,0.935483870967742,1
0.5873932019295359,0.8518922171353918,0.7287216444538864,0.43128467010260585,0.29033601024464045,0.9354838709677367,1
0.5961906515864751,0.8502554429944781,0.7220954339713666,0.41341421405260664,0.28950853870591764,0.9354838709677544,1
0.5860406075537178,0.8489318644009957,0.7276689762003625,0.4448061542796716,0.28702741499698614,0.935483870967742,1
0.598781052362817,0.8519939672707222,0.7194435711646711,0.44580931833589543,0.28868171262081305,0.9354838709677473,1
0.5879089615081334,0.8495641173053432,0.725232261374114,0.42042000434692844,0.2862005889118815,0.9354838709677367,1
0.5973392612511343,0.851877644617496,0.7195681871294193,0.43766468799282676,0.28620058891188166,0.9354838709677296,1
0.5865360125514834,0.850256150360015,0.725483657772832,0.45001084698480487,0.2853737628267772,0.9354838709677189,1
0.5967161188783855,0.8477376777188064,0.7212455044437805,0.41682148317669315,0.2845462912880545,0.9498207885304559,1
0.5849444614752806,0.8515067912124519,0.7255906487712502,0.4276957860056736,0.28371946520295,0.9498207885304506,1
0.5965505260239802,0.8473315984983563,0.7209662589606836,0.45379266265958,0.2828926391178462,0.9498207885304559,1
0.5854347598771154,0.8501501043463568,0.727143339233657,0.4294558644322732,0.2828926391178457,0.9498207885304701,1
0.6028471421285658,0.8513778557787818,0.721122816953379,0.4163802488597523,0.2820651675791235,0.9498207885304648,1
0.5839269420216459,0.8525090384734741,0.7281622485473458,0.4491012526284085,0.2828926391178464,0.9498207885304577,1
0.6004627493595686,0.8433591104536352,0.7258826240371531,0.4408503851841905,0.2812383414940191,0.9498207885304613,1
0.5736825049373764,0.8761974421055949,0.7320677152681762,0.4205058906123756,0.279584043870192,0.9498207885304577,1
0.5651826226397513,0.8241407558378859,0.6609119438719661,0.43691841569473466,0.27958404387019226,0.9498207885304648,1
0.7465486098632825,0.7358482556483738,0.5548449453208312,0.45457861136068606,0.2787572177850876,0.9498207885304826,1
0.9200882672052658,0.6345134439755422,0.5651787102477936,0.419043933216998,0.2779303916999834,0.9498207885304648,1
0.5668987770412479,0.6566409181105342,0.8017079904177548,0.4457681282307643,0.2771029201612606,0.9498207885304808,1
0.3113384103814765,0.6328964669123835,0.9315798873339121,0.4425900709136827,0.28454629128805453,0.9426523297490927,1
0.3073062277985648,0.669059389737094,0.9522369217175162,0.4917079165551607,0.28454629128805403,0.9426523297490768,1
0.2473024315462964,0.6735813626523386,0.9413147446058571,0.4972390272177263,0.2903360102446396,0.9426523297490927,1
0.2623383421376644,0.6618920329209065,0.9653223596843417,0.4812496641120222,0.2911628363297445,0.942652329749107,1
0.2491279358519787,0.6626906524343715,0.9499022548440719,0.30007595346113847,0.2961250837476074,0.9426523297490981,1
0.2316099954325487,0.6484930354224403,0.9567661036974812,0.45198748341045014,0.29695190983271147,0.9426523297490981,1
0.31659024007006564,0.660036992579693,0.9509923312348192,0.5143738525272165,0.29695190983271147,0.9426523297491016,1
0.23140662552593566,0.6497382399020798,0.960525073674929,0.3782298462569222,0.2961250837476069,0.9426523297490981,1
0.30996846291807567,0.5810168099848458,0.9003749518437828,0.3411298123252839,0.29529825766250284,0.9354838709677367,1
0.7353739717782358,0.6679289084436143,0.7428312787100664,0.42491199598644275,0.29447078612378025,0.9354838709677367,1
0.7844356877234081,0.7170545474326565,0.46247562541053017,0.32421428806057423,0.2837194652029507,0.9354838709677473,1
0.7653930245237328,0.606730913422778,0.3148344762256923,0.38520973528307295,0.27214067274339765,0.9354838709677367,1
0.8076046048498361,0.5269414354358802,0.4547518284711159,0.44307197139597837,0.27131384665829317,0.9354838709677367,1
0.7710460789983692,0.5795242223432061,0.4635538445211982,0.5621386292056575,0.2762760940761557,0.9354838709677189,1
0.8030421225101445,0.5235490240579821,0.263511270561716,0.39808669976190886,0.2713138466582933,0.9354838709677313,1
0.8457500040586536,0.5862989313877817,0.4562612348392301,0.1018506740699639,0.2795840438701915,0.9354838709677349,1
0.7096988855932578,0.7368158500715114,0.552738224859219,0.5608111893959453,0.2696595490344663,0.9534050179211455,1
0.6144122648778951,0.7661465225347934,0.6836036357849162,0.5813147673396503,0.2663515992404301,0.9534050179211278,1
0.6905158694653907,0.811435415440019,0.6928979293498917,0.5842058836629991,0.26635159924043034,0.9534050179211384,1
0.7019879817696171,0.7696581890465386,0.6414487094025015,0.6118056470620594,0.26138935182256784,0.9534050179211384,1
0.6688238142728237,0.7912332847311159,0.6906092940149897,0.17478790449176662,0.2597350541987406,0.9534050179211508,1
0.6539738231546813,0.7884149003793769,0.6915737302021348,0.37576706409342076,0.25890822811363634,0.9534050179211384,1
0.6608509267593663,0.8067732975456774,0.6922279673808812,0.48445559678377315,0.25560027831960097,0.9534050179211402,1
0.6526418237771228,0.797095312585604,0.6858282074561574,0.4828568671101681,0.25394598069577345,0.9534050179211349,1
0.6772464506026322,0.8151816714442203,0.6692340359330714,0.43157337723254763,0.2572539304898094,0.9498207885304453,1
0.6380512268185461,0.8048828607052592,0.6908334502596778,0.4627490792840197,0.2589082281136365,0.9498207885304613,1
0.6408591432642132,0.8257664240786524,0.6910952632646061,0.44950177571344563,0.26138935182256784,0.9498207885304648,1
0.6299809964607669,0.8185446713244495,0.7083607422990529,0.40040780112407603,0.2630436494463948,0.9498207885304701,1
0.604262093534371,0.8362992265320035,0.7126951575045286,0.4306774331805588,0.26221617790767204,0.949820788530447,1
0.6208671512017253,0.8272133594022427,0.7124862296531013,0.46259264416869594,0.2630436494463949,0.9498207885304559,1
0.6252699380638816,0.8376025815494698,0.7102388970642236,0.43947924227612883,0.26304364944639436,0.9498207885304417,1
0.5809429288127047,0.8132716099544592,0.7587222073516846,0.42638362684486975,0.2622161779076722,0.9498207885304506,1
0.5815726779565588,0.8268159962647442,0.7432221287000016,0.4197600002468219,0.2630436494463949,0.9498207885304613,1
0.6311649465466679,0.8221165947714134,0.7082432121757694,0.3827290854155928,0.26717842532553504,0.9498207885304613,1
0.6242635233559275,0.8160305011614226,0.7165108141117903,0.4400493697086382,0.263870475531499,0.9498207885304755,1
0.6442160210921313,0.8063097823386391,0.710056137013938,0.4318741025813431,0.26056252573746314,0.9498207885304453,1
0.6320442354011183,0.8101474602962904,0.7117778423912362,0.4932241963150341,0.26221617790767154,0.9498207885304506,1
0.6493281622412967,0.8045018411280105,0.699604424901517,0.43385751724790994,0.2630436494463946,0.949820788530447,1
0.6450938381671948,0.8129258557546696,0.6955283686119074,0.3981545406531435,0.25890822811363595,0.9498207885304577,1
0.6510426271788373,0.8028596223635389,0.6994510955008643,0.4432516879705756,0.258908228113636,0.9498207885304559,1
0.6443453054412376,0.8136856998808923,0.6966875530538718,0.4774349377380215,0.25890822811363595,0.9498207885304506,1
0.6538875313812931,0.805298919231979,0.6991692048506296,0.4349541518389196,0.25808140202853186,0.9498207885304577,1
0.6413588923604966,0.815547273305006,0.6969128934297667,0.3960523021825738,0.257253930489809,0.9498207885304613,1
0.6434637713364416,0.8099181715805653,0.7026848852281548,0.4312206118029803,0.2564271044047044,0.9498207885304559,1
0.6272653512474531,0.8194390801238087,0.7140659045056457,0.44480947039477475,0.25477280678087794,0.9426523297490981,1
0.6042756169892393,0.8099870610382032,0.7287972572783037,0.4148041111779427,0.2547728067808776,0.9426523297490927,1
0.6215621924094031,0.8268017929053788,0.7089862657854058,0.451273731016727,0.2547728067808777,0.9426523297490927,1
0.6591464998029816,0.8124020680522723,0.6810835167679204,0.4483389675836142,0.25477280678087777,0.9426523297491052,1
0.6555648843133799,0.8215439567181817,0.6688866688438468,0.42699820071351297,0.2547728067808777,0.9498207885304648,1
0.6628109154087191,0.8127839607430518,0.6689622734934153,0.484167500132666,0.2547728067808771,0.9498207885304399,1
0.6534741213179543,0.8096160975461256,0.6764646057996051,0.4438793659724755,0.25394598069577357,0.9498207885304613,1
0.6836183064403936,0.7188461262259472,0.615490017052112,0.4017077158409718,0.25229168307194594,0.9498207885304506,1
0.803216650771755,0.6246715967339144,0.38660656572796354,0.43640875423763764,0.2539459806957734,0.9498207885304648,1
0.943186936537514,0.46490459087656,0.6006387310100959,0.40595727235961454,0.2556002783196006,0.9498207885304559,1
0.7093286764768422,0.8011533243564581,0.4405129280817443,0.42914168262837477,0.26717842532553454,0.9498207885304417,1
0.657230050197025,0.8393421482126446,0.3470166398497824,0.46136972806342835,0.247329435654084,0.9498207885304684,1
0.7349944426055361,0.7701692006670211,0.41766995625331077,0.5268420739294486,0.2580814020285323,0.9534050179211437,1
0.7630333313645185,0.5785650432383691,0.489877008715788,0.33730714192189043,0.2556002783196008,0.9534050179211508,1
0.7727396589006003,0.5104767282238277,0.6657334317140949,0.6085387463380293,0.2556002783196008,0.9534050179211331,1
0.676240256574592,0.5959936243445735,0.7914185531055951,0.4344348650565588,0.2547728067808782,0.9534050179211349,1
0.36852550871398426,0.6400371927529362,0.9061540088268794,0.19106348486436353,0.25477280678087794,0.9498207885304648,1
0.4047003266464074,0.6299597601264763,0.9243240910189616,0.43110506569792967,0.25229168307194677,0.9498207885304506,1
0.41303801866192796,0.6173756319111569,0.9310555239072295,0.4363024458269061,0.2820651675791233,0.9498207885304559,1
0.0647357706038606,0.5746689007803452,0.9349874504124684,0.5657304777914604,0.28123834149401883,0.9498207885304559,1
0.14443472123282097,0.6457294535439164,0.9234122399325504,0.2751530940992128,0.30274162878929717,0.9641577060931805,1
0.7988192824851844,0.7364003865597291,0.6375496815689667,0.5375691636638518,0.3002605050803656,0.9641577060931894,1
0.805143618479134,0.6429880013954593,0.5036364895131425,0.532396532083224,0.29695190983271186,0.9641577060931947,1
0.6718723498073528,0.621094498699536,0.7754821469521365,0.2635132649913021,0.27544926799105185,0.9641577060931965,1
0.3818048319100483,0.6676596525822511,0.8528452528658037,0.30567559338182143,0.2646973016166036,0.9534050179211455,1
0.32972435447579684,0.6436452327600536,0.9872892448598984,0.3406916382004922,0.25229168307194666,0.9534050179211508,1
0.5062773398723971,0.6168493943090456,0.8699194618709964,0.6481950417011086,0.2936439600386764,0.9534050179211455,1
0.6139485464493767,0.47477166417126465,0.8084209802355893,0.3677731734212165,0.3019141572505741,0.9534050179211224,1
0.7553759950426263,0.7821895800027863,0.2766939422989342,0.3687310635449209,0.3077038762071601,0.9534050179211562,1
0.7707490969320163,0.462945721348047,0.35098782151678243,0.5700245304860134,0.2721406727433978,0.9534050179211455,1
0.7735784193937886,0.6101736297137701,0.33333569072303804,0.5612319419129004,0.28868171262081294,0.9534050179211349,1
0.5433556285425181,0.797368914789049,0.18127588440508635,0.6917973946157487,0.2795840438701918,0.9534050179211437,1
0.9999999999999999,0.6101939881235946,0.4788482292974534,0.039744511523564396,0.25477280678087794,0.9641577060932018,1
0.791460202537906,0.7316867061900196,0.6748393828125564,0.3304510563159926,0.25063803090173775,0.9641577060931947,1
0.21143695513959457,0.574015319748477,0.9307615202208812,0.6116516975347932,0.25808140202853164,0.964157706093177,1
0.33212372376692645,0.6359000232511259,0.9758629786895091,0.4633745070679281,0.29198966241484897,0.9641577060931912,1
0.5790222331829453,0.7170452702881291,0.7127465126370188,0.4695082468617153,0.29281713395357156,0.9641577060931912,1
0.7450126449375035,0.8248671473680134,0.5602915504637356,0.293403288565229,0.27958404387019203,0.9641577060931912,1
0.7180201566501662,0.6861507168512708,0.7628072410819391,0.392860602162773,0.26304364944639436,0.9641577060931841,1
0.6634844640996826,0.7473682234023182,0.7066970237566138,0.6116528340730252,0.25229168307194655,0.9641577060931947,1
0.6544159269633589,0.7400156641036175,0.7386560163453958,0.567935676283134,0.25063803090173764,0.9498207885304613,1
0.6813683206295239,0.7499325173460427,0.7201293881079278,0.3450677450116579,0.2506380309017376,0.9498207885304559,1
0.6399650981329982,0.7536153833397043,0.7531398269204823,0.3185950048099749,0.2572539304898094,0.9498207885304613,1
0.614119238858856,0.7851258404686692,0.7530520355615631,0.37271756567186515,0.25725393048980905,0.9498207885304684,1
0.5869353398742186,0.7823704142391334,0.7818137568473502,0.4361251867251689,0.2580814020285321,0.9534050179211455,1
0.5803445918400495,0.7991127590801195,0.7736479998068009,0.39847283593937005,0.2605625257374633,0.9534050179211455,1
0.5839972759041795,0.7876869074894508,0.7903963740121502,0.48015163889207946,0.2630436494463948,0.9534050179211455,1
0.570196053282217,0.8003300700427347,0.7786585043375133,0.4738649591430379,0.2646973016166034,0.9534050179211455,1
0.5836302115633578,0.7919848979991507,0.7886323458690025,0.44723564397587506,0.2646973016166034,0.9498207885304577,1
0.5554403709639423,0.790331526201703,0.7904956599579867,0.4027230519753563,0.2646973016166035,0.9498207885304737,1
0.6106990706029269,0.7803585414079888,0.7758314297328397,0.4556275175436268,0.26387047553149934,0.9498207885304648,1
0.5647272604608401,0.7744805735083959,0.7856165204515664,0.44849162990698055,0.2655247731553258,0.9498207885304506,1
0.47631178446157707,0.7420479350691194,0.8875100732443244,0.39566488997471405,0.27710292016126037,0.9534050179211455,1
0.5741724127869724,0.7835236617286271,0.8164283155099934,0.4614264164068528,0.2862005889118819,0.9534050179211491,1
0.5805458977052095,0.7635010589524205,0.7741680770015072,0.32583530240725883,0.2853737628267776,0.953405017921158,1
0.7554640362025953,0.7941447498432255,0.5336487633903166,0.454733785312319,0.28206516757912276,0.9534050179211526,1
0.7240023131692033,0.7231953166168829,0.7452649618942708,0.6091097046922228,0.2597350541987403,0.9641577060931805,1
0.6364435509937026,0.7538696373097817,0.7001811452728616,0.30288956669115924,0.25725393048980916,0.9641577060931805,1
0.6822383222725695,0.7183325553302167,0.7471734593273501,0.3936282057900868,0.2564271044047047,0.9641577060931947,1
0.6957384297349904,0.7314117098285151,0.6954804035171613,0.5720698138386399,0.2622161779076712,0.9641577060931663,1
0.684672309032431,0.7181558115265129,0.7234545224022056,0.45881167820540025,0.26221617790767204,0.9498207885304559,1
0.6972778931945675,0.7269606155266268,0.697277527661679,0.2930923263209876,0.26138935182256734,0.9498207885304506,1
0.6884930904815183,0.7176843896840932,0.7184040436143628,0.46204839918206403,0.2613893518225672,0.9498207885304399,1
0.6981214032794447,0.7272566028850792,0.6967829776034975,0.4510872445815569,0.26304364944639474,0.9498207885304613,1
0.6877303776758679,0.7169314481533582,0.7185502193366776,0.414631884390786,0.2622161779076721,0.9641577060932018,1
0.6958675372284886,0.7279178387317242,0.6964005090024807,0.4317695470125828,0.2622161779076718,0.9641577060931734,1
0.6846626520607074,0.7208976393085021,0.7157959152451115,0.46808856431470003,0.26387047553149934,0.9641577060931859,1
0.6929153664126801,0.7287766151108575,0.7005439145292959,0.3976399057420246,0.263043649446395,0.9641577060931859,1
0.6866700478296823,0.7207564053849951,0.7158259438842187,0.43620798196294774,0.26387047553149934,0.9534050179211455,1
0.695349122932559,0.729528777492901,0.7031191684797373,0.4576658529245867,0.2622161779076722,0.9534050179211402,1
0.6850850396596537,0.7240692801213222,0.7146258964760361,0.4177684101151791,0.2622161779076722,0.9534050179211402,1
0.6931540091899158,0.7315437106069764,0.6976715059388182,0.4213472103686179,0.2622161779076722,0.9534050179211455,1
0.6841743922630501,0.7216272653910544,0.7135348089377935,0.4811261132473789,0.2622161779076721,0.9534050179211526,1
0.6915383686797661,0.730282517326003,0.7043443469931481,0.4167972536164541,0.2630436494463949,0.9534050179211562,1
0.6855553041165603,0.7235143509345601,0.7135176645857871,0.4190412447985914,0.2638704755314991,0.9534050179211349,1
0.6931194195456638,0.7306799590996962,0.7017120618692022,0.4684733042699763,0.2638704755314991,0.9534050179211384,1
0.6845860113566377,0.7247251170312493,0.7123272723740819,0.4611406579825254,0.263870475531499,0.9641577060931716,1
0.6916403912044929,0.730470368291778,0.7018163526224025,0.3988252269664998,0.26387047553149934,0.9641577060931965,1
0.6854170903406304,0.7251623453151486,0.7134148912158972,0.4327019345883135,0.26221617790767215,0.9641577060931894,1
0.6932629829626292,0.7324428114964656,0.7030694473615112,0.4659434266342143,0.2646973016166036,0.9641577060931859,1
0.686917041059115,0.7252094644874609,0.7098964843046414,0.43307831062362134,0.26221617790767154,0.9713261648745544,1
0.6913703412994957,0.7290652687388026,0.7038990797872395,0.40470602944680517,0.2622161779076722,0.9713261648745402,1
0.6857728812672783,0.7250930069297669,0.7138345438740927,0.45115272197991274,0.2630436494463945,0.9713261648745597,1
0.6926219482663395,0.7287452182954477,0.7033830772144725,0.4452931514392085,0.26304364944639447,0.9713261648745437,1
0.6847126891565631,0.7225145475691197,0.7107721879773884,0.4033617772362116,0.26138935182256756,0.9534050179211349,1
0.7017840947394661,0.7305708958643367,0.6791100589133846,0.427422262307384,0.2622161779076723,0.9534050179211508,1
0.7280638980855461,0.7288639591884671,0.635131886579449,0.46029336043208113,0.2630436494463948,0.9534050179211615,1
0.741402881971585,0.7438535167158212,0.5885854396152491,0.42993410425902306,0.26138935182256756,0.9534050179211349,1
0.7407353604107686,0.7426546365069259,0.5899231652563538,0.41186967267281965,0.26304364944639513,0.9534050179211562,1
0.7349800843461013,0.7499070762713399,0.5888201341263817,0.477014618470084,0.26221617790767204,0.9534050179211331,1
0.7344621350302631,0.7429075846411639,0.5978607044961066,0.4576613788662434,0.2630436494463945,0.9534050179211206,1
0.7293175038079662,0.7428332790527525,0.6226368432705771,0.39412879596577743,0.2622161779076723,0.9534050179211562,1
0.729819658378105,0.7347768245140449,0.6384926056714988,0.42157574261463365,0.2638704755314994,0.9641577060931965,1
0.732583272813587,0.7691282075965691,0.6256929375751688,0.4256253878501058,0.2638704755314987,0.9641577060931716,1
0.665514513663306,0.79808065985915,0.63879823635697,0.4088727962389221,0.2646973016166035,0.9641577060932072,1
0.6611864817398158,0.795369466387659,0.6928854595231305,0.4059097399890174,0.261389351822568,0.964157706093177,1
0.6631698632982612,0.7906596939254013,0.7014402169095049,0.47292667709849506,0.2638704755314989,0.9534050179211384,1
0.6084725197668073,0.7795451579305163,0.750564426005377,0.43925994498179827,0.2638704755314991,0.9534050179211384,1
0.6441992893012841,0.7545450878244402,0.7611150164840247,0.40856800141809035,0.27379497036722467,0.9534050179211491,1
0.6462095147668215,0.7675711445881406,0.7331960766353119,0.5105949480065924,0.2820651675791234,0.9534050179211491,1
0.6405158645865041,0.7392872346165945,0.7135414341151125,0.4096933786704059,0.2820651675791233,0.9641577060931965,1
0.7837482402096192,0.7358433388763631,0.5417155142095142,0.2890959984272823,0.28041151540891435,0.9641577060931894,1
0.7460869413809215,0.7188136075874966,0.5581014369329402,0.5068135420503337,0.2737949703672251,0.9641577060931965,1
0.7661459765359997,0.7361129434079727,0.5224855148766306,0.5470632155581231,0.26717842532553465,0.9641577060931841,1
0.757541008761858,0.7305727546015883,0.5304200466897026,0.4731843118453435,0.2638704755314987,0.9534050179211455,1
0.7595359116953097,0.739260811459491,0.5143096386445687,0.43779778742884073,0.26469730161660343,0.9534050179211437,1
0.7557002302528935,0.7354286165607146,0.530119823369849,0.4327196637211593,0.26387047553149934,0.9534050179211615,1
0.7521340161958575,0.7494043989360673,0.5256922744635365,0.4506564034640017,0.26387047553149917,0.9534050179211491,1
0.7551177761350488,0.7532913397084484,0.5635802043395226,0.3576084612839238,0.26469730161660365,0.9534050179211402,1
0.6549328604580277,0.7826072410437909,0.6913163104281225,0.38101500547231826,0.26387047553149945,0.9534050179211508,1
0.5716496025446168,0.7717985079221342,0.7913507214767734,0.4474582145553766,0.2613893518225678,0.9534050179211437,1
0.5349746267582812,0.7775869835536082,0.8142696752992573,0.4029336830308023,0.27296814428212035,0.9534050179211349,1
0.38010328612825806,0.7222283731727245,0.9182282729072679,0.462800084195243,0.27462179645232937,0.9534050179211455,1
0.6482446066920652,0.7438457750734402,0.7634220049532605,0.4694220632673803,0.2795840438701921,0.9534050179211615,1
0.718830206989373,0.7718987056436708,0.6471453808114223,0.3923564135376196,0.28041151540891446,0.9534050179211349,1
0.6981391726963604,0.7801017450502981,0.632959922355993,0.3320583251768663,0.26965954903446626,0.9534050179211508,1
0.6906071095420031,0.7845004821606617,0.6512918476727865,0.5622892988008794,0.269659549034466,0.9498207885304577,1
0.6894264021117421,0.7856590210845715,0.6472051468372815,0.47949234008701425,0.2680058968642578,0.9498207885304577,1
0.7097909034138238,0.7867826923839609,0.6651030132449796,0.4436369610451414,0.2680058968642573,0.9498207885304613,1
0.6663540667898591,0.8185175782205507,0.6543716334409103,0.3676791096890704,0.2680058968642576,0.9498207885304755,1
0.6124783553459583,0.8383069800161229,0.6953780842986272,0.43043601092423206,0.2688327229493623,0.9534050179211615,1
0.5911479382208816,0.8504081473649521,0.7029841069361537,0.41425647827302375,0.268832722949362,0.9534050179211455,1
0.5816744774708482,0.8380652085488316,0.7439487540283971,0.42089810712952336,0.2671784253255347,0.953405017921158,1
0.6056887981015727,0.8329337101182177,0.7313294765906995,0.45130797412517826,0.26717842532553526,0.9534050179211508,1
0.6037372045491918,0.8330346938977433,0.7185889979550768,0.41477090024459323,0.2680058968642576,0.9498207885304755,1
0.6104642327235972,0.8324590345730463,0.7221632432613752,0.40708339949808675,0.2688327229493623,0.949820788530463,1
0.6087331054293489,0.8302207106033002,0.7235102787827858,0.39224396379074694,0.2680058968642578,0.9498207885304577,1
0.6129236217319094,0.829087208930344,0.7235080427571248,0.4494860776177871,0.27048702057318946,0.9498207885304879,1
0.6054766543820693,0.8277023925862398,0.7253204919236186,0.5011990446417679,0.27296814428212035,0.9534050179211384,1
0.6108722583553188,0.8299804737699028,0.7234265403871065,0.49605006519946476,0.2729681442821205,0.9534050179211437,1
0.6088836445765072,0.8267682576244636,0.7302349907999075,0.4562733229501631,0.2721406727433979,0.9534050179211562,1
0.6143817581816112,0.8294738051577609,0.7219408414128345,0.40152324857658955,0.27296814428212046,0.9534050179211615,1
0.6060187522227443,0.8269335329169467,0.7292329612879398,0.4227555128380224,0.27379497036722467,0.9534050179211562,1
0.6133055742925765,0.8292840355196534,0.7228772967726796,0.4390810103448658,0.2713138466582937,0.9534050179211455,1
0.6090266909760939,0.8273549133402627,0.726788844174691,0.42217135258765925,0.2704870205731891,0.9534050179211349,1
0.6128993821430024,0.8298407546925328,0.724198333056471,0.41744212404803405,0.2696595490344659,0.9534050179211402,1
0.6027942869046433,0.8268953778461696,0.7333559363015923,0.4552182012553251,0.270487020573189,0.9534050179211508,1
0.6004827148577992,0.8324583375057126,0.7341723071154681,0.44385187843882773,0.26800589686425785,0.9534050179211526,1
0.5959787082344031,0.8257315595430801,0.7442086924207683,0.4162771272991401,0.2680058968642575,0.9534050179211437,1
0.595940900951702,0.8303133077785866,0.7367002268945071,0.4244141318974905,0.26552477315532613,0.9534050179211402,1
0.5930373913228828,0.8261265053015573,0.7455626522590777,0.4523283200637756,0.26469730161660365,0.9498207885304559,1
0.5962801391427237,0.8301699387587786,0.7385767606790813,0.4296004945345269,0.2646973016166038,0.9498207885304755,1
0.5961308442851095,0.8261534800600138,0.7480910524902101,0.4253163762610466,0.26387047553149917,0.9498207885304577,1
0.597996398576552,0.8302508844938701,0.7384643549821004,0.44062756600698755,0.26304364944639474,0.9498207885304648,1
0.5951629143824804,0.8258656284188299,0.74888755146166,0.42894005003852115,0.26304364944639463,0.9426523297491016,1
0.5975374107452817,0.8316166765062636,0.7293072407841366,0.40879842375868003,0.26221617790767204,0.9426523297490945,1
0.593781431359017,0.8275623015661238,0.7369223377097662,0.45406611907108974,0.2613893518225679,0.9426523297491052,1
0.6125920324217822,0.8239602263760087,0.7304725872171971,0.4419336546198921,0.2613893518225677,0.9426523297491105,1
0.613932060556075,0.8220093685208476,0.7309117104391798,0.414786958098589,0.2605625257374637,0.9498207885304577,1
0.6089665279031244,0.8273648076169581,0.7258049331603027,0.44655492883579045,0.26056252573746325,0.9498207885304559,1
0.6106425343536431,0.8253006014753785,0.7311358305768516,0.4622004850922329,0.2597350541987403,0.9498207885304577,1
0.6090567250807023,0.8303327441591319,0.7233912534160046,0.40150500182151144,0.2597350541987406,0.9498207885304613,1
0.6086725446891637,0.8261125669362306,0.7300649407318179,0.4118816229096336,0.2589082281136363,0.9426523297490874,1
0.6096662253640867,0.8302194039852654,0.7253765112216141,0.4383308476673611,0.25890822811363623,0.9426523297490998,1
0.6070058726303732,0.8260409894761158,0.7322656537079055,0.42806733517207396,0.2580814020285319,0.9426523297490998,1
0.6066870434676388,0.8324047775557006,0.7237500614502803,0.45309233756668454,0.2589082281136361,0.9426523297491016,1
0.6038088060733999,0.8283482380589356,0.7312914456505706,0.46736771285145773,0.25725393048980916,0.9426523297491016,1
0.6052251686408899,0.8318158454657976,0.7214873077116086,0.4185294047631693,0.2564271044047046,0.9426523297490927,1
0.6052018950492042,0.8290108976514079,0.7328572032126047,0.4231624833814305,0.25725393048980927,0.9426523297491105,1
0.6041040908986798,0.8328457840217651,0.7240289278916228,0.45413084017788796,0.25642710440470445,0.9426523297490874,1
0.6041130831466779,0.8279719311146282,0.7341319187531339,0.43995698625975616,0.2547728067808776,0.9426523297490839,1
0.603977829302264,0.8303202255909177,0.7228108236408,0.4154503189994325,0.254772806780878,0.9426523297491105,1
0.6069264647700388,0.8258509137480827,0.73601951122119,0.44621817421966853,0.2547728067808779,0.9426523297490981,1
0.6049820187863871,0.8306691542859257,0.7205979472640958,0.44141149365083987,0.2539459806957733,0.9426523297490839,1
0.6058383126581415,0.8254117114604633,0.7373020072893819,0.4236035303272238,0.25394598069577357,0.9426523297490981,1
0.6049417693885827,0.8312836444193592,0.718834259895469,0.43709674238615587,0.2522916830719466,0.942652329749107,1
0.6054928873113644,0.8245722209692853,0.7417989850209501,0.44640355308911545,0.25146485698684196,0.9426523297491158,1
0.5920933739730663,0.8303236064303623,0.6851205726174749,0.4167151488158491,0.25146485698684184,0.9426523297490927,1
0.6400971011554494,0.736490506558585,0.7806714827671473,0.4303486372682675,0.2506380309017378,0.9498207885304559,1
0.6613980978988665,0.6666845772943222,0.7809733721210188,0.4470461563512913,0.2514648569868424,0.9498207885304577,1
0.7766394228485445,0.6753085935398558,0.6083527575740834,0.4430621554997353,0.25146485698684207,0.9498207885304701,1
0.766385049811138,0.6339800210143887,0.6399499763612917,0.412411928829286,0.25229168307194616,0.9498207885304346,1
0.732844739313129,0.6677350924761142,0.674051470755155,0.4569189299003012,0.25229168307194627,0.9426523297490874,1
0.6983424649483956,0.7300721457092918,0.6692600208402518,0.5279953425696049,0.24650260956897924,0.9426523297491105,1
0.6974723116809469,0.7521305871136751,0.6552459704586294,0.3967190792680953,0.2465026095689794,0.9426523297490981,1
0.7049321617221084,0.7489425849593458,0.6681656811490084,0.38450036134013654,0.24567578348387492,0.9426523297490945,1
0.7033826975595989,0.7498070768240892,0.659540904743102,0.510035154881655,0.24484831194515222,0.9354838709677402,1
0.7187595009278902,0.7467235538362225,0.6508265345633057,0.37742374083616376,0.24319465977494364,0.9354838709677438,1
0.7258734422127141,0.7470875277170704,0.6124912724500846,0.3173826655490023,0.24319465977494403,0.935483870967742,1
0.7290849707898106,0.7478806302812292,0.6017022967186774,0.44847361695599913,0.2878103502360431,0.9354838709677402,1
0.7292654573746229,0.7512211763423483,0.6069432556677598,0.4546831351554237,0.28946400240625153,0.9426523297491052,1
0.7276875987227576,0.751005813648323,0.604912548126244,0.4425088933503909,0.2869828786973203,0.9426523297491158,1
0.7273319691455128,0.7503655443294321,0.6088225210061583,0.43991560882273445,0.2878103502360428,0.942652329749107,1
0.7307798227182812,0.7524028490087437,0.6091635345334789,0.4032140643595892,0.2861560526122157,0.9426523297491016,1
0.7283243626179547,0.7526849136487184,0.6102932418568853,0.41283413097095156,0.28615605261221544,0.9283154121863859,1
0.7307287710323521,0.7534662774119276,0.6090473617053842,0.44400658049763586,0.28532922652711185,0.9283154121863806,1
0.7262337512677399,0.7506881623811782,0.6093506078612201,0.4506504414978346,0.28450175498838887,0.9283154121863717,1
0.7298469462506081,0.7524507053628398,0.6088499622153902,0.42614378363732647,0.28284810281817985,0.9283154121863859,1
0.7267684714002282,0.7505555933958159,0.6095482498718534,0.43550204188223945,0.28284810281817985,0.9426523297490927,1
0.7307859640677661,0.7524753439049962,0.6096686145301803,0.4628949384690764,0.2811938051943527,0.9426523297491052,1
0.7267711930337378,0.7504623397891138,0.6093039156964555,0.4269884467558553,0.2828481028181798,0.9426523297491052,1
0.7320530358373429,0.7523930086363795,0.6077994231745998,0.42812752980398144,0.2828481028181799,0.9426523297490892,1
0.729292096585109,0.7508829578045099,0.6114041453562131,0.45888972804649886,0.28119380519435294,0.9426523297491105,1
0.7305188214114414,0.7524174854379109,0.6075460452801738,0.44318200003262215,0.2811938051943529,0.9426523297490981,1
0.7284107916099613,0.7508456269144055,0.6100816404281356,0.42126472045772145,0.2803669791092487,0.9426523297491229,1
0.7280749897440951,0.751509447236904,0.6097504714212449,0.4424436404887695,0.28036697910924857,0.9426523297491105,1
0.7284932094083497,0.7514219282897161,0.6109529555962436,0.44731441725274895,0.27953950757052615,0.935483870967742,1
0.7287129460924534,0.7519866701465058,0.6095337268084082,0.42954013441601935,0.2787126814854216,0.9354838709677544,1
0.7292485881571031,0.7527512546009418,0.6100171547131991,0.4353440479853778,0.2787126814854215,0.9354838709677491,1
0.7318041917572985,0.7540791473288667,0.6077294636189422,0.44780233312821116,0.27788585540031696,0.9354838709677367,1
0.7271794017962072,0.7491958797287588,0.6092676294281004,0.42989330129172426,0.2778858554003169,0.9354838709677313,1
0.7276237039042156,0.7527250084808709,0.6073495655839364,0.42271913437904546,0.2770583838615945,0.9354838709677367,1
0.7262891174028262,0.7492212056234961,0.6089235795122475,0.4428413387468253,0.2770583838615945,0.9354838709677527,1
0.7280811696423475,0.752848823209492,0.6095111266790048,0.4414205284936929,0.2762315577764898,0.9354838709677473,1
0.7283693581177607,0.7522506673664244,0.6083369547374509,0.4223844199304808,0.2762315577764903,0.9354838709677438,1
0.7331733401407582,0.7541944954460759,0.6147582136672834,0.42784117516758485,0.2754047316913856,0.9354838709677544,1
0.7238706119659006,0.7475449059566717,0.6074546848080673,0.4475876215649177,0.2754047316913857,0.9354838709677313,1
0.7339594696201978,0.749016411129368,0.5937484683989702,0.43068965153057837,0.274577260152663,0.9354838709677349,1
0.730963538415908,0.7448536054238832,0.6092937646524224,0.4216383269931118,0.27457726015266304,0.935483870967742,1
0.7309163996865546,0.7473691463069146,0.6053697095504814,0.44119174413092754,0.2754047316913857,0.9354838709677313,1
0.7311238615620665,0.7458288575810599,0.6099746309956393,0.45772845640420523,0.27540473169138585,0.9354838709677313,1
0.733599913260622,0.7486977883521866,0.6062886709309552,0.4247573048392462,0.27540473169138574,0.9354838709677544,1
0.726575980103383,0.7495374443114626,0.6127238683041188,0.415179170541499,0.27540473169138585,0.9426523297491105,1
0.7275526549176011,0.7543847262512984,0.6086975651275228,0.437793471298337,0.2762315577764903,0.9426523297491105,1
0.7246113130174009,0.7524852920004192,0.6204534679628618,0.43270059254420234,0.27457726015266337,0.9426523297491105,1
0.7242039860748134,0.756034334313654,0.6131550407218868,0.4201290454919766,0.27540473169138546,0.9426523297490892,1
0.7152994955119395,0.7537598869121551,0.6320764090169823,0.43947579584539576,0.27623155777649,0.9354838709677491,1
0.7203342066474462,0.7559484229722547,0.6257665571724971,0.442427353267288,0.27540473169138624,0.9354838709677473,1
0.7151369807109229,0.753800734620388,0.6307592005181164,0.42565699362528236,0.2737504340675587,0.9354838709677473,1
0.716525226031211,0.7550728891194659,0.6270213726421674,0.4322055460743571,0.2729236079824545,0.9354838709677402,1
0.7151622731995847,0.7532743253719165,0.6321173039670902,0.4457377224714424,0.2729236079824548,0.9354838709677544,1
0.7183905448137604,0.7565708566058217,0.6242005710866385,0.4346862172865793,0.2720961364437318,0.935483870967742,1
0.7199654497265839,0.7528587496539128,0.6338122007211939,0.4305971612274794,0.27209613644373165,0.9354838709677473,1
0.7191791218416596,0.7561055753604016,0.6254504566609838,0.4497958176994954,0.2712693103586274,0.935483870967742,1
0.7206637292762506,0.75661460026743,0.630462395208853,0.4324591676056923,0.2712693103586274,0.9283154121863788,1
0.7137466520143629,0.768622980165782,0.6274339525456952,0.4189535131578739,0.2704424842735229,0.9283154121863841,1
0.6933234625291739,0.7741177077265671,0.6404082036550336,0.43582272169397535,0.2704424842735231,0.9283154121863895,1
0.7074383377941585,0.7727039930148982,0.632910144234033,0.44846614265765594,0.2696150127348001,0.9283154121863681,1
0.7051854557622623,0.7694684395805934,0.6393178836774562,0.4198057729227863,0.2696150127348004,0.9354838709677438,1
0.7131208684725856,0.7700871898880467,0.631466983022995,0.42920258577845516,0.26961501273479965,0.9354838709677242,1
0.7090148864124363,0.7694045627723297,0.641414247854122,0.45006727410333214,0.26961501273480043,0.9354838709677402,1
0.7056288652344298,0.7791635589940857,0.6356284169598083,0.4326975859884289,0.26961501273480026,0.9354838709677367,1
0.6945103802739583,0.7833054844026726,0.6452203349504506,0.42031990161976707,0.26878818664969584,0.9283154121863841,1
0.6944203258750091,0.7907641803180074,0.6377154211011751,0.4432771646545197,0.2687881866496959,0.9283154121863841,1
0.6878199318649296,0.787304044218551,0.6505646878284927,0.4303908735490599,0.2679613605645917,0.9283154121863841,1
0.6984331307429625,0.7893359939814643,0.6384743126558304,0.4217095466797627,0.2696150127348001,0.9283154121863841,1
0.6945323148000194,0.7849278192352926,0.6512452261066273,0.4436385970332633,0.2687881866496957,0.9354838709677349,1
0.6963062399908019,0.7896788751145005,0.6341792469994485,0.4477442348512577,0.2687881866496957,0.9354838709677402,1
0.6936942962450361,0.785695423873049,0.654282752627547,0.43146573558932333,0.2671338890258687,0.9354838709677438,1
0.6984654436239343,0.7933363233457266,0.6316870861527684,0.4263305968336334,0.2671338890258683,0.9354838709677313,1
0.6778489157966379,0.7961222511757908,0.6690300252761086,0.4428558832562055,0.2671338890258688,0.935483870967742,1
0.6680237320358646,0.8012763630592277,0.6356944473495443,0.42999998674155687,0.2663070629407648,0.9354838709677473,1
0.6634958795135127,0.7686825936068886,0.7445387288221741,0.41811620149910655,0.26465276531693754,0.9354838709677402,1
0.6704855416466156,0.7758338949180145,0.7192399956372235,0.4462370723435456,0.26713388902586865,0.9354838709677367,1
0.6015018060522778,0.789760524524577,0.7109264692196866,0.41579856986953145,0.2696150127348004,0.9354838709677402,1
0.688480775802905,0.7856638748082854,0.674721596696398,0.43418123384603224,0.26713388902586904,0.935483870967742,1
0.6752178372032803,0.777176054800415,0.6326168857100802,0.501361839745581,0.26961501273480043,0.9354838709677598,1
0.7142217665457424,0.7498632711615191,0.6529090887653406,0.5281477221888686,0.26796136056459136,0.9354838709677313,1
0.7458858368305369,0.7377461273000091,0.614948910824142,0.38259249551179614,0.2679613605645914,0.9283154121863681,1
0.703137351404667,0.7376655369426632,0.6604354611833063,0.4295744615040804,0.26465276531693754,0.9283154121863717,1
0.7354673601466004,0.7523272212221557,0.6135323009090727,0.4296673743138557,0.26382593923183256,0.928315412186377,1
0.7133340902074539,0.7438808336204107,0.6452728260794223,0.35414087034385416,0.2646527653169375,0.9283154121863735,1
0.7303314600946765,0.7526246897393652,0.6148758741643948,0.41132518992211275,0.26465276531693727,0.9354838709677296,1
0.7158724362718083,0.7512221035951697,0.6365819245234936,0.4366980433966647,0.2638259392318331,0.9354838709677527,1
0.7234738348989693,0.7560691887398535,0.6197582841418402,0.41610031525247554,0.2654802368556601,0.9354838709677527,1
0.7170138128095738,0.7529918150233446,0.6327414964450803,0.39169171726397944,0.26465276531693777,0.9354838709677438,1
0.7214678855233354,0.7551836835707446,0.6221949083366672,0.429396222874221,0.2646527653169374,0.935483870967742,1
0.7181655437092545,0.7537580815635302,0.631774128155345,0.3880972496530106,0.2646527653169373,0.9354838709677367,1
0.7220508054442413,0.7538470653031173,0.6228019660841265,0.4560334129303098,0.2638259392318332,0.935483870967742,1
0.7197515096655135,0.7523727470912472,0.6285221729311768,0.43789499439638435,0.2638259392318332,0.9354838709677242,1
0.7233014871891201,0.754040566106426,0.6235986455224807,0.429234984122275,0.2629991131467285,0.935483870967742,1
0.7190715244694441,0.7521981797984597,0.6309352238834791,0.45928954176214076,0.2629991131467288,0.935483870967742,1
0.7201805974956581,0.755789164525098,0.6228332188835096,0.4602526712885195,0.2629991131467288,0.935483870967742,1
0.7172759871188132,0.7553679662783183,0.6297998726408038,0.42540002503761337,0.2621716416080059,0.9354838709677402,1
0.717239839478364,0.7558279954213973,0.6233525339320289,0.45578407340616794,0.2621716416080059,0.9354838709677242,1
0.7153545010271856,0.7555477957667807,0.6298113672054013,0.4629406722483511,0.2605179894377968,0.9354838709677296,1
0.7188038980375617,0.7587914578836186,0.625354814064238,0.4402876394798395,0.2605179894377972,0.9354838709677313,1
0.7182538155648263,0.7578585432470465,0.6292356860309019,0.4255183954116085,0.2596905178990745,0.9354838709677367,1
0.7165724486783372,0.7573705095751309,0.626082941818443,0.45967255930189793,0.2596905178990748,0.9354838709677402,1
0.7156576924426544,0.7587914072147014,0.6305655271472261,0.4411120967339427,0.2588636918139705,0.935483870967742,1
0.7174667287121413,0.7618629089785971,0.6255450032302368,0.42018056170730617,0.25886369181397034,0.9354838709677367,1
0.7142101235333634,0.7599125256747796,0.629462703578909,0.4396458970377493,0.258036865728866,0.9354838709677242,1
0.7148031144811732,0.7613371630271839,0.6255839096871553,0.453181262139547,0.25803686572886614,0.9354838709677313,1
0.7166968699559941,0.7619356535920809,0.6277142055793455,0.42220374421487755,0.2572093941901436,0.9354838709677402,1
0.7138496870811283,0.7582200414795871,0.6252569115768534,0.41630509504523106,0.25720939419014316,0.9354838709677473,1
0.7145234612365687,0.7584212565881687,0.6276493001572433,0.443195012905792,0.25720939419014344,0.9354838709677313,1
0.7150853455340631,0.76080017714291,0.6255219684861878,0.4450431606687293,0.25638256810503884,0.9283154121863717,1
0.7148688226682666,0.7594640935769739,0.6285943102222631,0.4186047439785885,0.2555557420199348,0.9283154121863859,1
0.7178619582425232,0.75985096659911,0.6251097846638352,0.4291390784430665,0.2555557420199344,0.928315412186377,1
0.7140745401827414,0.7596989319252838,0.6287537384599511,0.4449760721396419,0.25555574201993464,0.928315412186377,1
0.7173143313152602,0.7584096866082395,0.6251857283899935,0.43312330485778455,0.2555557420199347,0.935483870967726,1
0.7144648494662411,0.7598294356315545,0.6282838773372663,0.42220740650811445,0.2539014443961075,0.9354838709677367,1
0.7181534239440571,0.7587355243865953,0.6259732862527473,0.4460558712244993,0.25472827048121155,0.935483870967726,1
0.7155886209220839,0.759537882493883,0.6282078411466141,0.4349838993524834,0.2539014443961075,0.9354838709677473,1
0.7165494118286172,0.7598769956044759,0.6257354780882151,0.4168366860745522,0.2539014443961076,0.9283154121863788,1
0.7168315889910063,0.7600579235705915,0.6271882925649501,0.4384143204129052,0.2530746183110032,0.9283154121863681,1
0.7144838651491872,0.7589291730116239,0.6259610351199384,0.44694084309094717,0.2522471467722803,0.9283154121863735,1
0.7163588771339998,0.759971278772922,0.6291643936378527,0.41706355188037497,0.2514203206871764,0.9283154121863788,1
0.7175622950359588,0.759311030287116,0.6254569560308778,0.43781513025723306,0.2514203206871759,0.9354838709677242,1
0.713481364660159,0.7608860636470118,0.6280778149412051,0.4480721470561383,0.2514203206871763,0.9354838709677473,1
0.715226627264273,0.7609008105867419,0.6262824006174054,0.42323931991413766,0.2514203206871764,0.935483870967742,1
0.7159397073630392,0.759994994873656,0.6280172029930053,0.4364854181296775,0.24976602306334905,0.9354838709677296,1
0.7155218909313004,0.7598966686498239,0.6255790721033223,0.4482043641184798,0.24893919697824507,0.935483870967742,1
0.717863021741774,0.7602570635384731,0.6279989276048692,0.41773447156132426,0.24976602306334944,0.9354838709677491,1
0.7170477815211992,0.7571452113447814,0.6262142108720654,0.4370707905166741,0.24893919697824524,0.9354838709677527,1
0.7150846240079836,0.7599376214209737,0.6268597248964015,0.4486472966294424,0.24811237089314075,0.935483870967742,1
0.7171962433245646,0.7590653615736241,0.6261578711536491,0.4191886911907638,0.24811237089314037,0.9283154121863859,1
0.7156077971567857,0.761006351077397,0.6266507981521217,0.43157629097366484,0.24728489935441766,0.9283154121863859,1
0.7159027492460169,0.7614305543426534,0.6272890073631836,0.45154308372069263,0.24728489935441766,0.9283154121863788,1
0.7175167071104337,0.7590452210213652,0.628177197792676,0.42618218554652,0.24645807326931335,0.9283154121863735,1
0.7193122221190377,0.7594678970077824,0.6254413365680812,0.4234397348061,0.24480377564548605,0.935483870967742,1
0.7139117384374015,0.7593728563714125,0.6276487803999138,0.4457665181085144,0.24480377564548594,0.9354838709677313,1
0.716132170779028,0.761991783275354,0.6266339154235179,0.4396710490761632,0.24563124718420853,0.9354838709677313,1
0.7156338389411676,0.7612403032231124,0.6268446856190808,0.4203830121713605,0.24563124718420865,0.9354838709677313,1
0.716159257334769,0.758509551585466,0.6260782952527066,0.4436984155358474,0.24480377564548605,0.9283154121863806,1
0.7162158732292684,0.7584387108413684,0.6278776190817313,0.4433731414089917,0.24397694956038168,0.9283154121863628,1
0.7150844144296862,0.7601226780669159,0.6260825977914476,0.4216534914202749,0.24397694956038168,0.9283154121863841,1
0.7175372269082291,0.7606577624107337,0.626876391539925,0.4227865560857762,0.24232265193655478,0.9283154121863859,1
0.7182995645920953,0.7589812610502351,0.6261115608246262,0.44817436117871395,0.24232265193655467,0.9354838709677438,1
0.7161560313872696,0.7600300619064412,0.6268424051501127,0.4353120922929848,0.24232265193655483,0.9354838709677349,1
0.7162130192378301,0.7603062449182194,0.62615106598639,0.41912010225442653,0.24232265193655467,0.9354838709677296,1
0.7160026807640457,0.7595634197204084,0.6267938520201243,0.43264980721194446,0.24232265193655483,0.935483870967742,1
0.7187142292014878,0.7591964963495278,0.6262193314563776,0.4506781020778709,0.24149582585145046,0.9354838709677349,1
0.7194832321342391,0.7613760250090758,0.6266639219302872,0.4229211148343321,0.24066899976634626,0.9354838709677527,1
0.7157077102978837,0.7606601395746404,0.6270238613262782,0.4253896270637056,0.24066899976634643,0.9354838709677438,1
0.7157907516409826,0.7593963065045839,0.6271150799067088,0.4466682054574878,0.2406689997663466,0.9354838709677473,1
0.716900203541003,0.7598334211950704,0.6260337042463596,0.43940361643690545,0.2398415282276234,0.9283154121863717,1
0.714734675344864,0.7589943180170202,0.6268848994944958,0.4145291455553656,0.239841528227624,0.9283154121863859,1
0.7175738143564777,0.7594665395196254,0.6261150031642111,0.43843306366733875,0.23901470214251958,0.9283154121863681,1
0.7168753624407639,0.7565847312763947,0.6268404205601104,0.4479362922411795,0.2390147021425193,0.9283154121863717,1
0.7178269051791213,0.7581185527221871,0.6261402917090565,0.42623191500090574,0.2373604045186924,0.9426523297491123,1
0.719247709689113,0.7583659207311332,0.626834534106475,0.42104141765650344,0.2381878760574147,0.9426523297490998,1
0.7160097910989913,0.7563465341471093,0.6261013306187551,0.44987315035368197,0.23653357843358763,0.9426523297491158,1
0.7177449923713431,0.756962621865059,0.6277069324991142,0.4339056435537392,0.23818787605741432,0.9426523297491123,1
0.7171661391026609,0.7582185509605462,0.6263682421589029,0.4219699344167886,0.2365335784335873,0.9283154121863664,1
0.714993619754696,0.7594239642485074,0.6266653073861848,0.4445178123063022,0.23570675234848304,0.9283154121863735,1
0.7189108462504105,0.7565195222717687,0.6262956729395998,0.4426464918985824,0.23653357843358708,0.9283154121863628,1
0.7159641524172381,0.7578365385185295,0.626676350921433,0.41485191813798594,0.23570675234848315,0.9283154121863681,1
0.716124876974293,0.7609902935905882,0.6263002581451745,0.4379136741599992,0.23487928080976056,0.935483870967758,1
0.7154978384663849,0.7600399659851246,0.6266650772339882,0.4480738095636159,0.23487928080976067,0.9354838709677527,1
0.7177924972480976,0.7582548107023911,0.6263154451825405,0.4248693941209735,0.23405245472465608,0.935483870967726,1
0.7171606463601676,0.7606948909151701,0.6266468247862833,0.4232309017037214,0.23322562863955204,0.935483870967742,1
0.716264980695144,0.7610439243131849,0.6263368728849215,0.4496024736193773,0.23405245472465647,0.935483870967742,1
0.7162471407039894,0.7585150780253384,0.6266212724624917,0.43231076755572195,0.23322562863955182,0.9354838709677438,1
0.7175915843485596,0.7575846795639719,0.6263687640353052,0.42312969009968504,0.23322562863955204,0.935483870967742,1
0.7181322804776471,0.759545660444933,0.6265781089192971,0.4464994133345227,0.232398157100829,0.9354838709677313,1
0.7155525941191105,0.7578164093700162,0.626435866516106,0.43750525171408783,0.23239815710082873,0.9354838709677313,1
0.7172992696829524,0.7568141246322994,0.6264417646880925,0.4159294990610523,0.23074450493062043,0.935483870967742,1
0.7177125770819149,0.7594310896516664,0.6270963069694536,0.4459993519851749,0.23157133101572486,0.935483870967742,1
0.7183672485700819,0.7586753789524767,0.6270958669319029,0.4402372698930644,0.23074450493062065,0.9354838709677313,1
0.7163627860195378,0.7595955819345119,0.626175933685228,0.4173100798464416,0.22991703339189784,0.9354838709677313,1
0.7191164712953321,0.7588594218594192,0.6266840710264951,0.43895429807868985,0.22991703339189784,0.935483870967758,1
0.7151894951773426,0.7589131507922846,0.627155853174048,0.44753569710695285,0.2290902073067939,0.935483870967742,1
0.7168251229475897,0.7614038530034867,0.6269132419382498,0.41949793804510954,0.22909020730679402,0.9354838709677527,1
0.7148064580922375,0.7601021771897951,0.6260898364189706,0.433920689123557,0.2282633812216892,0.9354838709677491,1
0.7171032386321281,0.7607696549002508,0.6270408256565222,0.4507985444915324,0.2290902073067938,0.9354838709677367,1
0.7171177657360127,0.7574357258106965,0.627056538319858,0.42333886152182876,0.22909020730679341,0.9354838709677207,1
0.715405036398246,0.7609321069765276,0.6273032010833672,0.42648413562704873,0.2266090835978622,0.9354838709677367,1
0.7163276170809781,0.7598008365840324,0.6267908780490858,0.45177463470775814,0.22578225751275732,0.9354838709677207,1
0.7171600034803884,0.760286911803286,0.6263505226532018,0.4282923921418945,0.22660908359786175,0.9354838709677242,1
0.7144740820335628,0.7611286049851019,0.6266023424525007,0.4198781931812039,0.22578225751275738,0.9354838709677367,1
0.716709173693293,0.7629611663301937,0.6263135953427599,0.44629551875205054,0.22578225751275743,0.935483870967742,1
0.7153986045924862,0.7589492843896324,0.6270554903618413,0.4420813692785801,0.2249547859740349,0.9354838709677313,1
0.7166337047927429,0.7617879354857132,0.6271857839631777,0.4155686364981812,0.2241279598889307,0.9354838709677402,1
0.7140191470959697,0.7601953647264043,0.6261522879522363,0.43391068098647206,0.2249547859740349,0.9354838709677189,1
0.7156219650774288,0.7631147047106537,0.6275824877534371,0.44859068843588507,0.22330113380382627,0.9354838709677367,1
0.7148178493486116,0.760942738463888,0.6275023174778439,0.4273037899221385,0.22412795988893092,0.9426523297491052,1
0.7160177161231762,0.7630427375985415,0.626491440692616,0.4263425223820541,0.2233011338038262,0.9426523297490874,1
0.7151065374877831,0.7595067823743875,0.6264943465504036,0.4495836177568705,0.22247366226510357,0.9426523297491123,1
0.7146392626051101,0.7588664275230242,0.6264119319991545,0.43505425947074006,0.22164683617999936,0.9426523297491016,1
0.7155814704512112,0.7612720596748713,0.6272494873128542,0.416613532985906,0.22330113380382677,0.9426523297491016,1
0.7164359389371632,0.7617088652648644,0.626924336241694,0.4381655629645829,0.220820010094895,0.9426523297490927,1
0.7134453997615806,0.7612655275866007,0.6261737261888929,0.45117130682532763,0.22082001009489488,0.9426523297490874,1
0.7158221356555894,0.7574510492318554,0.6268255347309541,0.4238965347713521,0.22082001009489488,0.9426523297491016,1
0.7157123889517615,0.7591807949563572,0.6260299557271236,0.420488008900646,0.2199925385561723,0.9426523297491158,1
0.717244953125416,0.7609473802803215,0.6272636987839479,0.44571222205424293,0.22082001009489477,0.9426523297491123,1
