chest_ACC_1,chest_ACC_2,chest_ACC_3,chest_ECG_1,chest_EMG_1,chest_EDA_1,chest_TEMP_1,chest_RESP_1,wrist_ACC_1,wrist_ACC_2,wrist_ACC_3,wrist_BVP_1,wrist_EDA_1,wrist_TEMP_1,label
0.8868350336741422,-0.1099476666480484,-0.2494493897548949,0.10075895284310381,-0.002421442129395962,5.688423660341928,29.124506,-0.2986720179845072,40.759359348843866,8.66659201259438,34.0031228351904,-25.45717733934845,1.640539,35.81,1
0.8811559966316858,-0.11031464949189726,-0.268155916660317,0.060828457949599235,-0.002857093120957931,5.652232101087033,29.128557,-2.0787646193982026,60.721726790737485,-27.49094565262678,39.144483956280354,56.117784696519216,1.6341319999999986,35.80999999999994,1
0.8827916854268159,-0.11583270759322518,-0.25794006039798767,-0.0894079299807569,-0.0029705606568021666,5.616603946869525,29.133036,-2.733852114205099,54.070266649790646,-21.97394105098023,27.718297142378578,31.981851790138837,1.6149120000000001,35.80999999999998,1
0.8783403250396914,-0.11955250135698484,-0.26576250129990886,0.030382704421213016,-0.0028733733907291637,5.570026597005384,29.133722,-1.805446213017588,51.6962721166089,-19.47406636788985,29.27277562543582,77.94712812674048,1.5918479999999997,35.81000000000003,1
0.8877017193943768,-0.13337511800335156,-0.23907880404829057,0.10284614498279948,-0.002582598993344823,5.542960138001033,29.132586,0.5069753436887617,53.56361109632943,-18.708712262011904,26.746549387747386,-109.26894025553189,1.558534,35.81000000000004,1
0.8787722566393562,-0.12681746094670987,-0.2679648000218308,-0.019608893800839754,-0.002415223481482095,5.529277734063255,29.137714,2.2558556264677185,46.95847258124197,-19.71761694008792,38.044208815096255,-147.15395681715538,1.5610959999999998,35.80999999999997,1
0.8803613351720324,-0.13134587285908914,-0.2640637736342406,-0.027173277928794967,-0.0026867654093558056,5.510906714168834,29.137255,2.0762953966590914,42.65590304418052,-21.650752134568002,40.15488935985157,-12.411956649203999,1.5354700000000003,35.81000000000007,1
0.8806665802733566,-0.1297341956446408,-0.2710442471147377,0.06550335549885078,-0.0026100809537141245,5.498132178670798,29.136646,0.41695013343151305,41.99895494330441,-20.86831099726296,41.21674532766192,85.41519649244523,1.6161940000000001,35.81000000000001,1
0.8777765425821178,-0.12770965314221255,-0.27724409190734045,-0.022881987469490925,-0.002725816547945351,5.4826506069974,29.13988,-1.2595414219222296,41.71429074782924,-21.984100329100755,41.55652746514891,149.37868815649384,1.585442,35.809999999999995,1
0.8746326395800673,-0.13522841970066896,-0.27955573418022045,-0.0836400003001465,-0.002858981364052109,5.457413200764126,29.142591,-1.3626291330700964,41.66950924243515,-21.237996186873428,42.15363397331321,31.403664993763797,1.5739100000000006,35.83000000000003,1
0.8744210446153455,-0.13442824102283396,-0.2807592658277605,0.03782185537531216,-0.0028056111271725077,5.430758407659239,29.142916,0.19706017981476703,41.386213864587845,-22.32326006125441,41.781340163762195,-141.6091969898319,1.5675030000000008,35.83,1
0.8761576027513613,-0.13558520564771243,-0.2777802257217387,0.01842090323562319,-0.0030675292733899143,5.409283785727563,29.143423,2.3601139629598857,41.88325500455587,-21.476268518315592,41.363141624039315,-53.56170298278874,1.5585340000000003,35.83,1
0.874614931336208,-0.13703636944953754,-0.2816912333534568,-0.055526695709168856,-0.002498371118451232,5.396393650445815,29.149473,3.775212493551485,41.80322957779999,-22.326981529733942,41.07486831268656,24.126991782882772,1.550846000000001,35.83000000000003,1
0.8727737021066166,-0.13228648105742438,-0.28337250262885133,0.05398164400899167,-0.0027561766426337144,5.384531185140263,29.14993,3.8225855504565542,42.00568014842438,-21.153688919273502,41.032600037792896,-49.05238869386348,1.5470020000000009,35.83000000000002,1
0.8766675896480922,-0.12921262752726811,-0.27559332724977165,0.021370006690178675,-0.0032925909544343494,5.377633299241776,29.152267,3.1256103784919786,41.95891214891663,-22.138747082264274,40.972101058865235,25.53983978276137,1.5380320000000007,35.830000000000005,1
0.8816566748277365,-0.116896670632669,-0.2718878672743421,-0.0702857869254071,-0.0026654153149892313,5.366266027906938,29.148186,2.540298060053389,42.04524261615824,-21.560549939653363,41.01369464696904,72.97571730698255,1.5329069999999994,35.82999999999998,1
0.8781137272847684,-0.11483995741410723,-0.27722390310071804,0.0840184005936629,-0.002468032349768815,5.368894533184485,29.14375,2.211381147561863,41.69009903167465,-22.800469300062133,41.10382457718281,5.617562160101806,1.5277820000000006,35.83000000000001,1
0.8760713107482822,-0.1181088518780969,-0.2805984214261788,0.0038366693338974787,-0.002422634373483803,5.36382342505552,29.146975,1.86352892066221,41.86454687551887,-21.39110413455768,41.02570867984042,-11.4328981409277,1.523938,35.83000000000001,1
0.8756163810061915,-0.12421021140581467,-0.28333308272303503,-0.09070875736007668,-0.002493127015077902,5.35002133589644,29.145817,1.5854113053181345,42.11759353456383,-22.603494471045302,40.99333240657856,14.109824010257084,1.5226560000000007,35.83000000000006,1
0.8730649819406197,-0.12577853554708096,-0.290548279776232,0.07843293168743551,-0.0027321781027563577,5.335042130759889,29.146612,1.2791483463354645,42.39500979284637,-21.039907820207155,40.9941926941018,-27.687132425180106,1.532907,35.82999999999998,1
0.8728581042472184,-0.12778944851781998,-0.2902469758580462,-0.0753570102401605,-0.0028733530638894492,5.322732540755073,29.148933,0.8330275320620786,42.240770077206136,-22.420965424985983,41.01650467868213,1.9330780047842735,1.5290630000000007,35.83,1
0.870696658261677,-0.12787012700421918,-0.29651415091471595,-0.03698462814639541,-0.0030829104461746657,5.311935956776219,29.151436,0.3798002333947034,42.07467284274273,-20.987632774282382,40.974236640683834,50.55775439035622,1.5252190000000003,35.83,1
0.8658507079444293,-0.1308747993155421,-0.30475708525376244,0.10902439665279506,-0.0027131029082173587,5.310720123908993,29.149721,-0.07325324126876055,42.0683499221405,-21.94245412737185,41.03108059351249,-27.819762311696845,1.521375000000001,35.83000000000001,1
0.8741447455094572,-0.12408263315038419,-0.30115454835091765,-0.06432128835601997,-0.002151962801951277,5.3252989812965135,29.153208,-1.3359568090512488,41.92996330979602,-21.45955257048881,41.064952625455234,-16.463457106474056,1.5162500000000003,35.829999999999984,1
0.8716832574504518,-0.13055232720063614,-0.30171272635814067,-0.011292206035204675,-0.002698333532005751,5.319801445259991,29.156807,-3.6384566147133417,41.946118312688895,-22.44585356961948,41.08767351018672,13.85501071467087,1.5136870000000004,35.830000000000034,1
0.8657630395840249,-0.13704737650763543,-0.30522213048812424,-0.0026349718202657146,-0.002442456993012101,5.288916593038369,29.163708,-4.730929802631849,42.052043948548764,-21.512939186861807,40.905837705127375,-13.855368995605259,1.5085620000000008,35.83,1
0.8641593676596759,-0.1461501645644629,-0.3124846306951581,-0.037844320380604875,-0.002407301180683104,5.260443479874182,29.164623,-2.5272690197025076,41.95098031295242,-22.486504111031312,41.11261870954023,8.200631325027034,1.5072800000000006,35.83,1
0.8648772834553159,-0.1474024453007412,-0.30785346151172244,0.09857684724821646,-0.0027193694652104723,5.231462601308414,29.156034,0.7171537640620071,42.044324665375754,-21.675074340478226,40.846392735278634,-1.5515215461276197,1.502155,35.83,1
0.8667364086309585,-0.14741445444966964,-0.30127031856416686,-0.03173325220463722,-0.0026436518418591474,5.2106085869539855,29.161345,2.9582250127973526,41.96285177423865,-23.07267952573541,40.91650441948577,-22.58586016226851,1.5008740000000012,35.83000000000006,1
0.865081267355297,-0.13931534105527274,-0.3088877462779219,0.036756813415707135,-0.0022889521835460893,5.201689235867888,29.15836,3.9193323870337955,42.02988221165907,-21.686896044005632,40.52221162458531,34.08765785698328,1.5021550000000004,35.809999999999995,1
0.8679542605423033,-0.14089865501639093,-0.2997469584187904,0.04097893291641539,-0.002860125762319797,5.198639801751971,29.158161,3.5511405917293737,42.698055196695904,-22.77260739858387,40.159957563586325,-3.194776167747875,1.5008739999999996,35.80999999999995,1
0.8752473800965562,-0.13238668255996053,-0.29367495534239385,-0.04772148169555816,-0.002487133043019144,5.195211995822553,29.156847,2.7952573419348195,42.78178296554979,-21.754474186226453,39.99231605274677,-9.700482492565055,1.498311,35.81000000000001,1
0.8717227523642237,-0.1207395299243403,-0.30143461666902244,0.08047211418882153,-0.002811061294669306,5.190960081000857,29.158855,2.352549124671271,41.92676057835028,-23.368813509288213,40.57611232336629,27.81082976590224,1.4970300000000012,35.81000000000004,1
0.8684198925165736,-0.12489722310113813,-0.3033764144144345,-0.028282159204867048,-0.0028505285412067797,5.195224660707313,29.159512,1.748997582837177,42.12286438025907,-21.802004093405955,40.38993909957054,-1.9524138338487524,1.4970300000000007,35.809999999999995,1
0.8683348753764116,-0.1299238933870274,-0.30696118399276273,-0.0668627900139354,-0.0023934606668635752,5.193013085593683,29.161991,0.8177289030754041,42.45887142382823,-22.73880517292536,40.67577976299858,-0.3414832809380419,1.4854980000000015,35.81000000000006,1
0.8686089402020843,-0.13146726420889526,-0.3034911869619695,0.08759400147836051,-0.0028430125769154054,5.193802079628925,29.170172,-0.06313395453363443,42.57412100017869,-21.27369996396295,40.227223510104054,-50.75238911291578,1.4816539999999994,35.809999999999995,1
0.8686627917547923,-0.1287838625521972,-0.3017130055340301,-0.0987320027765302,-0.0028701999303935213,5.190351925963668,29.166023,-0.6713985478543321,42.52771820150358,-22.745075967945155,40.36556629759875,-44.155107687624444,1.477810000000001,35.810000000000045,1
0.8701974998808031,-0.12829892473213128,-0.3025779490468436,0.04757078539626543,-0.0025746780331295633,5.187359568895488,29.168306,-0.9921121189074205,42.94985576425687,-21.21791746153827,39.886839596182135,89.66256304546462,1.4752470000000002,35.839999999999996,1
0.8694643141363612,-0.12980012915296196,-0.29680177773016636,0.005692023142304016,-0.002458857171250029,5.1890131403035396,29.171906,-1.3700966101552547,42.761258765462664,-23.031191956599354,40.1531316719351,72.4441450331702,1.4726850000000002,35.839999999999996,1
0.8696775126245463,-0.12945957114941642,-0.3021524423040124,-0.048261350003806616,-0.0026356459127464425,5.188541930730036,29.178213,-1.6225366867359565,43.009176499617865,-21.244418956935807,39.64103302027866,-27.77043414550845,1.4701219999999995,35.839999999999996,1
0.8699433140950412,-0.13039050429287477,-0.312709508066921,0.0960857191474305,-0.002741872175748079,5.192076657324378,29.178162,-2.2439166824665118,42.968744214698766,-22.777077214066153,40.154093294474585,-11.542774242691785,1.46884,35.84000000000002,1
0.859823177506291,-0.1353251453714454,-0.321095573759184,-0.0927062567697599,-0.003219771758455787,5.194331407140669,29.180353,-3.8790192653467375,42.63063434310895,-21.05082053247391,40.020048813668225,-33.61884113712121,1.4649960000000002,35.82999999999999,1
0.8680278036237196,-0.13075410745253407,-0.3113028937696552,0.019321070699951877,-0.0028932778506835146,5.202294745984266,29.183138,-5.779323378875186,42.241286398256804,-22.95096761267098,40.98255503715744,39.297478589230174,1.4649960000000002,35.829999999999984,1
0.8711187653764932,-0.12678194283427482,-0.3076401857321156,0.008679258799664025,-0.002241779510783441,5.20666162493649,29.186752,-7.733747976975649,41.838405940684815,-21.24762032447139,40.84551405435991,-13.545979460835207,1.4624340000000005,35.83000000000003,1
0.8677166305394923,-0.13288993985358588,-0.30256195776784267,-0.09751320472521671,-0.002521857450077921,5.196578525094769,29.1948,-8.56369361188187,41.645154395651254,-23.5208397479375,41.36154523036807,-9.892647744620822,1.4585900000000007,35.82999999999998,1
0.8699006444926307,-0.13584327791263234,-0.3005668053711181,0.06730703807395427,-0.0024229726536778933,5.184044531212489,29.192148,-6.649711174488939,41.61427265509807,-21.80283285462361,40.82084513101688,-7.916366679170773,1.4534649999999998,35.809999999999995,1
0.8687760742238181,-0.1423363309001779,-0.2970381733265588,-0.008370447814581492,-0.0025722477101004543,5.172888097938623,29.190659,-2.952805774313587,42.0787577220358,-23.469779097403958,41.33908722406422,-14.527823500275872,1.4509020000000001,35.81000000000002,1
0.8687893368149141,-0.14319454920889288,-0.29706493965095,-0.027578870552119984,-0.0026816286791112275,5.163849536189274,29.195047,0.53264571615693,41.76147006135192,-21.93612200767522,40.16491589615431,0.48636953699617386,1.4457760000000002,35.810000000000066,1
0.874191729541869,-0.1448296177571215,-0.28530149841023966,0.07888678648443262,-0.002491611310944032,5.15869194388014,29.197502,2.5292725162379415,42.777784128824855,-24.272281879565643,40.78359015108503,13.707444173462026,1.4432140000000007,35.80999999999999,1
0.8702753196249859,-0.13494943430580117,-0.2947099403952946,0.0009133017970000934,-0.0025519440961490926,5.152885317155101,29.196701,3.3601215090227203,42.311855156250665,-22.212751942034775,39.83269038988122,-3.779815068126205,1.4419329999999997,35.82999999999999,1
0.8740397310182128,-0.1378251033271731,-0.2892532941310729,-0.03852965167340799,-0.002917476422773975,5.147063980314869,29.194721,3.519339876860165,42.775541336865295,-22.55378729643805,40.26415985571207,38.37466591493763,1.4393700000000011,35.83000000000002,1
0.8681386715173439,-0.15640937306833433,-0.29906834969309276,0.10239518977093488,-0.0025247114997764904,5.146156499626934,29.196987,3.2560568479162644,44.82321138516743,-21.092995801194395,37.9514740776874,-32.75619713223575,1.443214,35.82999999999999,1
0.8620793520454338,-0.16547889479401126,-0.3096079831196063,0.012752222998144097,-0.002721494920129496,5.151791536796466,29.19873,2.074524709761984,55.14626358783953,-23.60344753213047,38.38919760981473,32.14275546402421,1.43937,35.83000000000002,1
0.8699703773551882,-0.16142500842754257,-0.2960663853872374,-0.09139895579174961,-0.0020995947793497048,5.144918929126103,29.198524,0.03009471691079891,43.01390152260209,9.75053338988374,51.8842967675756,4.213764076060188,1.420150000000001,35.82999999999999,1
0.8665295908950704,-0.1523712970657031,-0.30405497247634583,0.09441789824335986,-0.0025552331668122334,5.143666274605541,29.197178,-1.9500667204956887,33.00641816738032,25.45577525685854,31.231390784935748,-10.778008507881811,1.4355260000000005,35.83000000000004,1
0.8694770244625853,-0.14396120655868302,-0.2917971404191945,-0.03301365674667334,-0.0033658323206081035,5.149533409085095,29.194609,-4.123211147542392,46.6483850862263,15.595889710968768,37.44308380419234,-56.471343303762126,1.434245000000001,35.83000000000003,1
0.8819282746333978,-0.10999540308590247,-0.2739977420415549,-0.05179692645538981,-0.0019842857372986407,5.154593743803056,29.18949,-5.717898043345078,38.66548239872405,20.38472703255377,45.25456801304888,112.74828525967894,1.4034930000000017,35.83000000000003,1
0.8762811643189129,-0.08746001070759363,-0.2885003381787607,0.057886314514203056,-0.002034219921959749,5.1541528403301005,29.185596,-5.784455830076658,46.652666721354656,19.200649741050817,40.11963885213622,-80.64674394576788,1.4124620000000006,35.80999999999998,1
0.8766603609079728,-0.0917486678395142,-0.26370479190946816,-0.0205718319049143,-0.002731634333166673,5.155563883297314,29.181627,-4.611538620023169,37.930667493240996,6.988654592379413,50.698314805414334,149.8178382462091,1.4111800000000005,35.81000000000002,1
0.8873959906395085,-0.09071183523878551,-0.26847067104414957,-0.016634480922974707,-0.002932911080495597,5.154566530869948,29.182081,-2.6707179980583122,43.932759267304704,20.988135659996,43.58208931439977,16.49690034671406,1.393242,35.80999999999998,1
0.8833705216076537,-0.1133759007126409,-0.25958921468409096,0.053844792413909506,-0.0025654537996113082,5.153913084451684,29.174654,-0.664805562124402,49.89308671949293,14.74629395700046,28.992130244035433,-150.43126472933102,1.3906790000000013,35.81000000000003,1
0.8883032571059232,-0.10477499085564983,-0.23953450705746526,-0.062420889192605654,-0.0025756870974529508,5.156088742670557,29.170639,0.8889082148898727,42.42084222293069,-4.780379064954066,46.995162099820924,57.215850788006804,1.3663340000000004,35.81000000000002,1
0.8874524276371925,-0.14355791237948376,-0.23687712719956275,-0.06313605975118407,-0.0026233135797927376,5.15548405459684,29.16248,1.7528178987141778,52.89430881788384,-5.109140007788022,34.580426760933705,-31.85958901883695,1.3419890000000008,35.81000000000003,1
0.8757913685309667,-0.14482071822234507,-0.24746371159924577,0.11314554152039279,-0.002537007120583225,5.14838871494833,29.160513,2.3162429663102593,55.80953621176775,1.66308207359236,9.982453206410264,25.061096050722714,1.3202060000000009,35.81000000000002,1
0.8895386707298618,-0.1266386523778779,-0.26606303138290394,-0.08584922619491718,-0.002843816307003172,5.14070946772278,29.152838,3.3620367381406373,60.76618964007206,25.424950670952843,-31.40280514414612,62.90774458837579,1.2804849999999999,35.80999999999998,1
0.8779444088733483,-0.1389369447740578,-0.260784723793173,0.10007249890166542,-0.002419311202191675,5.134638266068357,29.152075,4.506953357012235,42.67073524230972,27.443940632664038,-38.719886845475095,-180.4593421933909,1.233075,35.83,1
0.8709326471208876,-0.1799393746837966,-0.28237160351891083,-0.03178759693088563,-0.0028006863750207893,5.137116781790617,29.148102,4.301315463753782,50.12774551184982,18.65385368420359,-30.92192756902502,-27.837743232092766,1.2241060000000006,35.83,1
0.8740106759612347,-0.19340472856297303,-0.250016046024163,-0.07894402180104464,-0.0023827225812074813,5.137473262850205,29.146095,3.035960822643473,49.72762084866962,16.57371294573707,-36.68120243796112,142.043402280779,1.2471700000000006,35.83000000000003,1
0.8877602029739179,-0.22549029931751632,-0.21782849903700505,0.05296466532135626,-0.0025698962978293674,5.136386696518597,29.146107,1.9170492753121298,57.41801083868322,15.805901027998662,-26.108595368284384,-79.08403446754575,1.2356380000000005,35.82999999999997,1
0.8795052536682728,-0.21998580749672014,-0.22059476717716242,-0.08280359142151075,-0.002251811452554779,5.136556040480244,29.143768,1.7258156322548257,57.39515570534363,16.37607010866504,-17.022171937395743,-52.79312255957329,1.2356380000000011,35.810000000000024,1
0.8710281536107989,-0.25101938133845825,-0.23859228476257102,-0.004084515049675695,-0.0022314470262386806,5.129791605564263,29.13845,3.3014651457332755,54.34812538139191,17.72518937298269,-28.138043098872846,-116.90347464111663,1.242045000000001,35.810000000000045,1
0.8630274557265929,-0.2697745079748791,-0.24553103347064129,0.09513161260363891,-0.0031486064231792538,5.121938569688453,29.13779,5.459611565717109,47.15872697230313,16.757980046771053,-37.45633792154268,-17.07653003569573,1.2599840000000004,35.81,1
0.8715419844773792,-0.25965713848575395,-0.23985382467204694,-0.036132135106787054,-0.002392974157723738,5.121249932576608,29.131166,6.442925813589075,47.84125663979268,18.03792610806619,-41.29919669438786,-73.82939369170711,1.2574210000000006,35.81,1
0.8671567228937976,-0.24248902067726372,-0.25658559829887795,0.05490764855956573,-0.0020498450435374902,5.113674470411122,29.134361,5.508855456628679,59.582621161115775,16.163018924191945,-15.65246397645046,104.99167235762188,1.2356380000000002,35.81000000000003,1
0.8708277297612332,-0.22796829790775028,-0.2511950088484645,0.03746987584453858,-0.0031546494805150768,5.115001696335658,29.136372,3.440470189944707,65.40549951519496,5.562894998783592,12.834755869042464,122.0871900984996,1.2241060000000006,35.81000000000003,1
0.8817494374981815,-0.22804369319758835,-0.2191334137625392,-0.08103474295249254,-0.003056647804249817,5.110372105712088,29.139782,1.3424460597032353,41.74920111130244,9.059883375257822,37.83677906735655,-3.2663606858686434,1.1331320000000007,35.809999999999995,1
0.8815453585768857,-0.22332296318735992,-0.2287683791670188,0.060080291523600955,-0.0025093764107740014,5.1056814277711995,29.144522,0.17465542683793567,24.17583578034042,10.654631613749364,56.518181929508565,111.97582874734627,1.1536330000000006,35.810000000000045,1
0.8801635562974244,-0.2032491754255906,-0.2375936051139593,-0.005566023376554336,-0.0028290717463541237,5.100638150415897,29.1447,0.00654682517206491,39.99162269250988,11.353161016320405,47.29438926692844,62.29867306297806,1.2266690000000005,35.809999999999995,1
0.8766702296302689,-0.20429223439424582,-0.24766304274231007,-0.02676417102569882,-0.0030507667125734303,5.091764479363213,29.150482,0.5059693915716299,52.72076437396766,7.310880849077422,35.170645350741765,15.607599046090618,1.2753600000000003,35.81000000000002,1
0.8742289544391648,-0.20535670027584074,-0.25047571883921976,0.06502279967865923,-0.002334084834739205,5.086305873226108,29.151205,0.462397200327357,54.17271793706508,9.885718061074169,38.189778989529145,-89.05060669191236,1.279203000000001,35.81000000000004,1
0.8808109929498591,-0.21134610303825066,-0.23435884100950724,-0.08268342324649447,-0.00303204807753771,5.087440450518619,29.154852,-0.5600555348806733,30.73205466359735,4.379983947039532,52.4573406410105,-233.74861032695418,1.2317939999999998,35.81000000000002,1
0.8785833074985255,-0.2124301412026694,-0.234212612436082,0.03925804012809666,-0.0016057293861518951,5.083610724337459,29.159874,-1.9209365461096997,23.59281757359319,4.902494065643839,59.14152509354775,218.32409234194603,1.2625460000000006,35.81000000000002,1
0.8807666007429171,-0.21732100878700922,-0.23265786994588267,0.025689597178767138,-0.0023090681062969153,5.083963673648284,29.160315,-3.1934534640310295,12.483786059135022,3.1199045968570798,60.75431643889195,179.7968868559025,1.2843290000000003,35.81000000000001,1
0.8768260907101264,-0.21892597693862764,-0.2410082577726912,-0.07712198827867608,-0.002255952885708535,5.078714215006712,29.16332,-3.804352343858917,16.89934306142827,4.666954418679276,61.77297295351708,-249.9147093305113,1.3061110000000005,35.80999999999997,1
0.875202692297536,-0.22275341433975285,-0.2443053909884308,0.062476581754217914,-0.002325471316331915,5.068893003513358,29.166191,-3.0894294167773304,10.351894646965121,2.107620296791061,62.024017381323915,-77.32383479022145,1.3189250000000003,35.81000000000003,1
0.8720267546792323,-0.22172462756737202,-0.2485869122839695,-0.018390907417038933,-0.0024519690493539337,5.057606423524781,29.170647,-1.3990347792065791,14.682440129304224,4.16396715569156,61.47114152455127,79.45842752980502,1.336863,35.809999999999995,1
0.8748988208009191,-0.2239517359727609,-0.2429938087463613,-0.028145774125482727,-0.00246771145614497,5.045090308546771,29.174456,0.691429941089668,-0.17252232120543431,0.7931535668516629,63.30371167902565,-39.970093485171446,1.3471140000000001,35.809999999999995,1
0.8723986935300705,-0.22135399279851717,-0.25596841512912105,0.0532001300439783,-0.0017482957629083194,5.03523446727536,29.175957,2.2780699518820797,34.70603172612792,9.418920381640124,45.17391250618302,20.255553664851426,1.3624900000000009,35.810000000000024,1
0.8753543067650174,-0.212841821990123,-0.255233391566039,0.04592767026556391,-0.0029045648620055014,5.03533829020553,29.179222,2.095134870240956,67.28709058937464,13.727446107129158,12.82049995494797,-19.015203132756742,1.3714590000000009,35.81000000000005,1
0.8741371777897473,-0.2087162946121255,-0.24922636297551334,-0.07498569210073336,-0.003231746184666322,5.033750846593885,29.186132,0.6214003047352824,46.386850331795415,13.022165976086509,34.70355897684286,77.53872281040054,1.3663340000000008,35.790000000000006,1
0.8786645843585823,-0.20709669291523608,-0.243205453350544,-0.0003078281443473484,-0.0023838055732802277,5.031727255604552,29.18853,-0.8224237421564439,28.159419905204565,14.037495320268398,50.48714942202604,-41.07705540609634,1.3624900000000009,35.79000000000003,1
0.873330877566845,-0.20289865291100223,-0.2535041246944763,0.06766086921618397,-0.002976784109849079,5.029729192483468,29.19337,-1.796366650438843,24.08445199926753,5.7215607599168825,57.64265118634782,-77.55012312480928,1.3419890000000003,35.78999999999999,1
0.8824691454546134,-0.20537938857671678,-0.24392673171315643,-0.02522799028720545,-0.0021795937388920193,5.031212205117602,29.195982,-2.3935103586454494,50.43220532519784,4.494667955055113,34.024478067843006,90.37448326557865,1.3599270000000003,35.79,1
0.8814599374717008,-0.2280214661106047,-0.22722086149765955,-0.09016052346537452,-0.002966337623073986,5.024367191797909,29.201872,-2.746740464460388,57.08437454125011,7.153938371123509,25.403489709117828,191.93812674223298,1.2484510000000006,35.81000000000002,1
0.8793515684608786,-0.2346997214513532,-0.24997783134910992,0.06012475594926865,-0.002435965360676789,5.012982623159542,29.203306,-1.4112226666397887,60.33664985660569,6.337090032711814,16.52476400658065,-90.0863538873984,1.149789,35.80999999999999,1
0.8538082475785455,-0.20482119329707615,-0.2839320704130366,0.009690316432457968,-0.0021591015220267388,5.003017424524524,29.20629,1.5581361476158766,62.06754816702354,10.943255949633944,14.426085499512673,-120.30730020761987,1.1203180000000004,35.81000000000004,1
0.8856114968447962,-0.15810283566195138,-0.2955318562895854,-0.060990505592313095,-0.0028458682697432808,4.992951071217274,29.205145,4.209131071633948,53.35434276960934,42.04603067280512,-5.00764884423212,303.18013340239236,1.1485080000000008,35.81,1
0.8339749669704258,-0.1641500809633379,-0.3590207991893649,0.05255593218953711,-0.002662862994593879,4.98465718613748,29.203344,5.013824485806198,37.93284427758747,53.58658119074853,-14.093856624376839,-181.01824657452372,1.1497890000000004,35.809999999999995,1
0.7561213222574822,-0.18767934904753827,-0.5255224808867904,0.006633501473875878,-0.00205366005244044,4.984533550706144,29.198845,3.1924295955008053,35.325077235866644,38.40581138442083,6.390924866804367,-323.4588565004379,1.1741340000000005,35.80999999999999,1
0.7262450260362,-0.1711531344354478,-0.5949694651996846,-0.03723053479341217,-0.002191286301674739,4.9855638737703885,29.198519,0.18953175586024265,58.85679686378879,32.65531606907434,18.91143536402229,113.582482891847,1.1292880000000007,35.81000000000002,1
0.7058608507534461,-0.14403270720478598,-0.6101456368001225,0.10537606340035459,-0.002448799282144733,4.989149452309475,29.202787,-1.8764858129164212,59.81499602464382,25.095896149023936,3.1437373542524036,223.68955608136227,1.1382570000000005,35.81000000000003,1
0.6972326220516393,-0.10625459930605718,-0.6287728917449104,-0.09812756723032409,-0.0027240085873241936,4.986597142204915,29.214573,-2.9012742867697194,63.56938063622141,23.10780579123425,20.59496235670318,-94.4725163123568,1.142101,35.83000000000001,1
0.673840888991103,-0.06466642574388086,-0.6661964292059918,0.005819290246176659,-0.0029052668048054945,4.977059037141995,29.222343,-2.8318945942291456,16.594989615433665,11.440161808555697,52.91652698811811,-29.882774570041505,1.1369760000000009,35.83000000000002,1
0.681465111364462,-0.044048466730823875,-0.6469598833651636,0.0797975556598495,-0.002680796046749287,4.9669293763636535,29.229992,-1.7565713896209831,-20.22026297758401,1.8159952889279154,64.60955488652748,-139.56826567871744,1.2561399999999998,35.82999999999999,1
0.6858495010686118,-0.044256684322399584,-0.6452753853466812,-0.0911297803922421,-0.002913338072082097,4.958086269078807,29.239046,-0.380141753445346,35.210733612447086,12.682771031576195,38.22451889177072,37.88944485988168,1.3471140000000001,35.82999999999999,1
0.7308387502985967,-0.054241444032161246,-0.5879653477306026,0.13021001036655577,-0.0028787950428010717,4.9441164897708445,29.248596,0.6218585354550058,71.53210573161638,21.508664753493278,21.322493485453297,-37.90529875443569,1.3599270000000006,35.79000000000001,1
0.7944269020297708,-0.10608869104828049,-0.48374523383781376,0.0026134028203400835,-0.002850221581096139,4.931609106236114,29.252277,1.123467818598416,21.093335104979396,52.11745519491952,20.475468278665346,183.12161517663054,1.2612649999999996,35.78999999999999,1
0.8542865988734221,-0.12729074385348782,-0.3398548923181809,-0.026880883692755566,-0.0025279839616587333,4.918124507733899,29.25521,0.9075773406331108,42.55854607330424,23.05281162099859,-17.318514975999474,64.41542499669869,1.2074490000000009,35.790000000000035,1
0.8901622348789828,-0.14997124205622364,-0.1791166818883584,0.09705957031248084,-0.0025151466155189854,4.918897051467088,29.256771,0.5079482830802247,81.93555000832912,-3.716668239302714,3.0986981255556216,-118.46126014208156,1.17029,35.790000000000006,1
0.9136655620169881,-0.15044400444043052,-0.09687671162081776,-0.1458539279489849,-0.0030848346059262183,4.913895477700355,29.255949,1.2353346375987972,40.56875166062566,8.506449112733089,35.239411123633026,62.46812511113336,1.1151930000000005,35.82999999999998,1
0.921001023904079,-0.14940595140682447,-0.06963751577923999,0.07632493552500391,-0.0034681436004567827,4.898900218425844,29.256445,4.079731623216608,-1.128067842581537,5.191516848690185,59.206548757111086,-35.39754908796418,1.076753,35.82999999999997,1
0.910280317736442,-0.1509655296826143,-0.07987982105518138,-0.046018833730882724,-0.002636182023874018,4.890475368412428,29.256594,6.470299196457967,-22.330423182976,-8.476470391390555,53.709768257459864,-14.694073773044058,1.2740780000000005,35.830000000000005,1
0.910143006870227,-0.15706256923554088,-0.09748043204226958,-0.023825429820079503,-0.002565270301530363,4.884101377195483,29.250095,6.376830229417545,-5.296063751456769,5.487892349422902,64.60339244056789,-65.22380997072665,1.3727409999999995,35.83,1
0.9087707089992177,-0.1630517563181878,-0.10055394957106466,0.05613585654302087,-0.0033270000323122454,4.888162775028615,29.244751,4.625012864613171,55.173068518878246,18.826459749005824,38.791466869366424,70.01932686732107,1.3740219999999996,35.82999999999995,1
0.9103791336158367,-0.16909411633144855,-0.11881090081105908,-0.10004396783984718,-0.0019101192020524397,4.897000877231066,29.247324,1.6334118797438308,62.697368301066945,26.555022162139448,13.80860081359735,-54.59197938515239,1.2561400000000003,35.82999999999997,1
0.8953608478307045,-0.12527066683881324,-0.16010188761064895,0.016867446769954053,-0.00035209430224416194,4.891174628708815,29.243643,-2.0313606187662927,42.58266610986758,43.314409816156584,4.199784292764255,60.230249621397085,1.2343569999999997,35.82999999999997,1
0.8933819773540003,-0.12138743258160424,-0.23253035582439593,0.08909846628468378,-0.0025277129506712805,4.8820714196840775,29.239052,-5.277371762573404,-18.015378256822196,54.929180430574355,10.436512071047218,237.04176359285634,1.2599840000000002,35.83000000000003,1
0.8484204929058361,-0.060398921853097,-0.3493185406933255,-0.15412571611362494,-0.0024350496860096093,4.884113631909192,29.233864,-7.193060404753036,-3.4608177894196217,40.75898123478405,30.53661632213898,-278.6535187586022,1.2522949999999988,35.82999999999999,1
0.8431397455838162,-0.06586916533072311,-0.387252429967285,-0.08260308688936804,-0.0029735159831794354,4.887598543959623,29.231052,-7.950317454115417,-18.751086413071235,24.362886767966003,65.93273889168952,-34.395109369004,1.1254440000000008,35.83000000000005,1
0.8280510674757764,-0.0532146949352746,-0.41737341015817403,0.13440658882072057,-0.0011423615219022455,4.881784173520466,29.231855,-7.446688097398698,-25.0660213960529,10.920559710732267,63.40831229325499,76.28205855384807,1.1049419999999999,35.830000000000005,1
0.8115703964795835,-0.11973242246904472,-0.44271219864368994,-0.03932833679124327,-0.0022252106270370647,4.860425049617891,29.237726,-5.16496686496095,-18.220706397593897,3.577907305448914,63.07960904504558,84.3369165729064,1.2599839999999993,35.830000000000005,1
0.8224893161965418,-0.08791927410356384,-0.4111740110200455,-0.056797326094331156,-0.002550112885855892,4.848299333594875,29.239536,-1.424926020902074,34.52712817279173,-9.469619789452944,55.55387110059812,-81.77231700207102,1.2856099999999995,35.80999999999998,1
0.8506120772433844,-0.05361067143835733,-0.3823407967246906,0.11679600791239952,-0.0022944195250370805,4.8388819196121595,29.24924,1.9879001856109622,64.94398365602677,9.924578824212725,8.422337319211078,48.65855062330598,1.2766410000000001,35.80999999999999,1
0.8520968606935306,-0.03885217835517855,-0.3553762533109008,0.028397352831026977,-0.00316999823387558,4.833502574489424,29.253347,3.916097898897352,55.03152507895918,-6.70593277598167,9.097727439075214,-157.13301524439203,1.1869479999999997,35.809999999999995,1
0.8513679653707628,-0.058674829972332726,-0.37163293773489514,-0.03785559672922432,-0.0020737365712621306,4.82987883394843,29.254683,3.574921803810925,62.00682254668648,-13.237054479302952,14.314102091268127,113.95498591196791,1.3740220000000007,35.81000000000001,1
0.8359381824258945,-0.0780866708028726,-0.39250272632116456,0.024425494875912043,-0.0017130047008418118,4.826284816587046,29.252853,1.721246480597926,60.52303067396673,-10.020059059249663,10.905264412732683,-107.10461847676143,1.4355259999999996,35.80999999999997,1
0.8402055272184316,-0.09697496608836033,-0.39157063070443515,0.062223020812391235,-0.002319368169706015,4.823169869207086,29.251652,-0.4446961693867465,58.70768997686298,-13.371745184706901,21.43521790981941,100.26344454197195,1.4214310000000006,35.810000000000024,1
0.8304263898339896,-0.08286206127593414,-0.4047524311061524,0.01893070579376082,-0.0020506660975196877,4.8197514072766126,29.24947,-1.7498694366528373,62.25167579369907,7.523463560436505,11.225024437324066,173.19640333938963,1.4163059999999998,35.81000000000002,1
0.8281734699978948,-0.11216890268184544,-0.4145343737407555,-0.14803755048000128,-0.0019340925615055934,4.8157386064582175,29.248049,-2.2666581930749086,54.67661797520213,0.20673368838480272,12.891225079419483,-102.723499093358,1.4368070000000002,35.81,1
0.8354052719204241,-0.11523072221133311,-0.38568297246451044,0.028539098960863183,-0.002845702897906446,4.813489101750949,29.250519,-2.634259861950525,59.16529411120242,-18.09551693596322,19.99901494581787,-85.65189494575571,1.3817100000000004,35.83,1
0.8769344393522854,-0.14338452830398632,-0.30988334683620594,0.06997124059083736,-0.0030178836177845395,4.805568568442309,29.257538,-1.8546185121727827,72.00335332766264,-1.9821856363517787,1.6460992970261565,-7.152429810643531,1.1651650000000002,35.83,1
0.8576133614458039,-0.16572045834948165,-0.24272019888265528,-0.0001721114914961337,-0.002562257684968706,4.793712366998306,29.256536,0.8463638116881262,60.63465978092995,-8.313860334785446,9.592968750921036,34.506537773293225,1.0895659999999996,35.82999999999997,1
0.9016668928990452,-0.1370196762052433,-0.21364097898590562,-0.0344753345393729,-0.0026954922499923947,4.781485013924909,29.261845,3.6181378012311343,61.18568178548494,-1.7936090054064475,12.595918464606312,-69.9364282075439,1.0716280000000002,35.83000000000004,1
0.9948188260513361,-0.1804924860337615,0.07741829763496212,0.19389879171956664,-0.0030637475965993753,4.782719495056197,29.26143,4.940742293017867,65.35054031725082,-11.878462629681332,7.300480191553139,-90.7974447940738,1.0600959999999997,35.870000000000005,1
0.726808967683282,-0.15882277653520402,0.339192324299064,-0.0716037780058197,-0.0036502686908693118,4.798586326605715,29.26571,4.814110435738584,58.52538647854973,-11.813507559111727,-0.3867088216588648,25.73674511458169,1.037032,35.87000000000002,1
0.7066749455059607,-0.08999123111342378,0.5074992388205803,-0.09825445990749568,-0.0027057270972359834,4.8009717291087535,29.26661,4.013119727073785,60.88981523937878,-8.6333931075351,3.7768270002624997,-189.2406944707481,1.0447200000000008,35.87000000000003,1
1.009576144676472,-0.09750079176433588,0.4927543617031924,0.02840810248660398,-0.0022916817069633024,4.804646353595045,29.268225,3.502986511520843,70.02494442231298,-1.324698554028954,5.098783118594706,-26.879277206912896,1.0485640000000003,35.870000000000005,1
0.8697007677453813,-0.12447292695805334,-0.0922500657949361,-0.09106391862445423,-0.002854125886700262,4.802161860325307,29.272154,2.8089826705473526,63.61584384137103,-0.4205027743555595,2.6681752450777023,215.05918523899282,1.0741900000000004,35.83000000000001,1
0.7849838535197627,-0.12652649864244386,-0.3966102337828882,0.0028307806727045663,-0.002670864618645541,4.786433064138969,29.277687,0.9132166629149727,55.184182827751165,20.818781025397072,2.6062526216862203,279.7787863553263,1.081878,35.82999999999997,1
0.7140735844984701,-0.030829349481317214,-0.6342051517537544,0.07380784783233141,-0.003451800619729718,4.780228505413939,29.281244,-3.206645753028613,60.94754627449945,23.925935961057853,6.70404849782453,-139.25756197688884,1.0870039999999999,35.82999999999999,1
0.65188027985718,-0.0501002887510802,-0.6808974408383782,-0.102451802598986,-0.0021545749324167573,4.793161283252682,29.273252,-5.696643536888544,59.059326866756756,19.696939515262923,7.707934579912996,-168.06123740354303,1.0395950000000007,35.82999999999998,1
0.6981391744885449,-0.12990109535540623,-0.6194623134143837,-0.018639167885882206,-0.003021868113288543,4.803356531194279,29.270466,-5.26291229223505,59.01065468440653,14.35300893233448,3.598530415967629,181.54758571752848,1.048564,35.809999999999995,1
0.6341746226152253,-0.1364594252318276,-0.6985328639393569,-0.04755840975050582,-0.0015179779691492654,4.802726578511492,29.267601,-5.851228275158022,60.66831203260626,24.43967967314692,2.5297672704342156,6.648471394668227,1.0588150000000007,35.81000000000002,1
0.6272355997106035,-0.1005147682268121,-0.7167310452192297,-0.10259667650227805,-0.0029105093984268388,4.798713553861917,29.2645,-6.110905943538261,64.41921586253106,12.982905010181666,0.9496352658070639,161.28485776120803,1.067784000000001,35.81000000000001,1
0.6091088143448277,-0.10829900688249375,-0.7172085139767519,0.10336692141470327,-0.002416548207443918,4.7961928818566895,29.25747,-4.581497809170934,62.68182810265729,2.5275977673941257,15.693807706288192,-42.12831436290769,1.09341,35.81000000000001,1
0.626681169442036,-0.13307636499074849,-0.7142426245319441,-0.05678277173617701,-0.0026827498217725674,4.793982957675529,29.253906,-1.904844010920631,52.775346775330966,9.623977119716127,29.220332066256436,-49.8217233506732,1.0870040000000003,35.830000000000034,1
0.6033717915791942,-0.12306886139011301,-0.7204322111379189,0.04454255594928208,-0.003650534494979456,4.792980172571269,29.244854,0.8437683466220667,38.29258106080995,19.889754772386052,52.405629444497734,-19.060612268628415,1.1254440000000003,35.830000000000005,1
0.6117734349591293,-0.13364565447356802,-0.7107528576491874,0.0919627196699058,-0.003537714059659071,4.795628426038878,29.230608,2.7680182565722586,7.991404339466216,4.324232476552779,60.62788164478577,-51.394954773351564,1.1920730000000006,35.82999999999999,1
0.6185080004227318,-0.10657409616043771,-0.7223416186037981,-0.05689072317371137,-0.0014380291486388406,4.803955714097523,29.21943,3.3839498077463492,6.330600373719461,10.607519943131745,61.62184649011966,19.423560007321598,1.2792030000000003,35.83000000000001,1
0.6223086719012787,-0.10964442711935038,-0.7149491255911317,0.1285358371823557,-0.0024066358106104627,4.812712082932504,29.207212,2.482036944786333,16.962371883395917,8.710434842780302,58.56195899344176,-70.16610872366262,1.2932979999999998,35.83,1
0.6180924918551849,-0.12312522874947922,-0.7148433391507247,-0.08911454513863695,-0.002323926379520127,4.81789671753425,29.199406,0.6730054749151381,41.05820147793323,20.01745313092713,45.026860667049455,7.422188873390983,1.2907350000000002,35.82999999999999,1
0.6271045112302944,-0.11353838419092195,-0.7119606723752658,0.03348959861218116,-0.002251225134984255,4.809845493497077,29.192867,-0.723834814061342,53.257707990836565,15.131468863068655,30.8604676799351,161.54479985415247,1.313799,35.830000000000034,1
0.6223403641638734,-0.10017909309338155,-0.7121639886852701,0.06972893326980413,-0.0026218108300552732,4.812643806492041,29.181679,-1.5164014229339347,62.1103770583562,13.13236856359927,18.260922718785753,71.97474782017747,1.2868910000000007,35.830000000000005,1
0.6223917396252958,-0.1056981489311208,-0.7142148059246777,-0.10740083518801659,-0.0029686891200832156,4.805816529271419,29.17717,-1.8199991217317413,54.068540728883825,12.418478715632059,23.869345171107444,6.011474639120132,1.2804850000000003,35.790000000000006,1
0.6231532640404264,-0.10777608398755266,-0.712024893728361,0.11915595379829938,-0.00320773801146258,4.802937332619469,29.168777,-1.6717520527231549,62.753285668028134,11.83666569116536,23.821359949727782,-187.51345942516738,1.2676709999999998,35.78999999999998,1
0.6180788714642597,-0.11191105140777807,-0.7144389529739177,-0.024612602233656987,-0.0030842893589097006,4.795952489762229,29.164541,-0.9950097278525335,40.35323092743144,17.0330450557707,47.12738998146609,-5.4478958996681985,1.2471700000000001,35.790000000000006,1
0.6053803057374083,-0.11289205422205154,-0.7269337338590096,-0.030154111304471154,-0.002652914968295355,4.791391106339261,29.16182,0.03786883159668396,1.2362340928800826,12.685537616173526,58.331807538901906,-22.5427735051689,1.2548580000000005,35.79000000000001,1
0.6146162147645757,-0.1098673037943537,-0.7195675516555811,0.11415195009621584,-0.002905372365156788,4.790047892031953,29.159475,0.5945514970650345,-11.649742931093959,-3.386811902079651,59.44484797707903,51.67597420873443,1.293298,35.81000000000002,1
0.6070837903530075,-0.10409584279290038,-0.7291006124150928,-0.0827350098940809,-0.0030438787236220077,4.790078107584409,29.156147,0.45866556878038034,-14.569481332806813,1.1372810566060856,62.25952291309235,-72.87827312429862,1.3163620000000005,35.810000000000045,1
0.6092777807936941,-0.11162614941490008,-0.7264958942162452,-0.0500579038612666,-0.0034621775024822137,4.7877692149162066,29.160458,-0.08497980196692649,-9.822951422852913,2.180767845811326,62.64077922391694,-30.02910728850658,1.3112369999999998,35.809999999999974,1
0.611700692128905,-0.10489039984289854,-0.7235413151569874,0.09156598572918599,-0.0022790807413274584,4.7846370323700045,29.161736,-0.7623589345616346,-10.969513419102892,1.2679472910640885,62.57548918107904,-289.93814481986226,1.3061109999999996,35.80999999999996,1
0.6141815585454365,-0.1088862980540305,-0.7209502310691663,-0.025131159176294368,-0.0021833521176984386,4.78178551514594,29.162365,-1.1306488874342977,-9.178036527631544,0.8525358145460166,62.19023023551043,161.45665295112457,1.3035490000000003,35.790000000000006,1
0.611486218341837,-0.10618239920559308,-0.7241235819464177,-0.06803187640495122,-0.0032623464709046488,4.778086484036108,29.162868,-1.0188858536800989,-12.468693773294802,1.1403649882525162,62.268269686179096,227.05780584244607,1.2984230000000003,35.79000000000001,1
0.6146558648521772,-0.10920582164015995,-0.7208346348751137,0.0710158477970412,-0.0022915368900331525,4.77453397093468,29.163689,-0.6269671919464667,-11.18866125773458,0.6670034376101124,62.08209186449621,-42.474344821213634,1.293298000000001,35.79000000000003,1
0.6131168247551512,-0.10539800312277228,-0.7223866305878301,0.02343574078910924,-0.0030324065376848212,4.775280516064236,29.164293,-0.33954579861647666,-12.408453026189116,1.3502402248086425,61.87795814632547,-51.23292673278968,1.2958610000000006,35.79000000000002,1
0.6140899712119922,-0.10817181685362023,-0.7209680577763118,-0.07191967785423381,-0.0026661154838393377,4.770568691836887,29.163702,-0.03191758016926147,-10.472767143679349,0.825503618258645,62.24441778153306,60.257107693326915,1.2932980000000016,35.77000000000007,1
0.6126157451646266,-0.1059370877587494,-0.723300042632345,0.016981633429530484,-0.0028055522044923157,4.766754647729333,29.162966,0.41169839960494625,-11.731036389384714,1.1768684133279668,62.27192963915492,-4.166847838655049,1.2894540000000008,35.77000000000001,1
0.6157902514954687,-0.10832933588647602,-0.7193664010678585,0.07377961018670563,-0.0030804434209018724,4.762523110711927,29.162682,0.8448380936028871,-10.39291760868198,0.501875754010739,62.64694358169006,-5.372679612415565,1.284329,35.769999999999996,1
0.6109022912740797,-0.1084882397300518,-0.7233564063858007,-0.04199210807833557,-0.002810744207954277,4.756897017326488,29.163437,1.4699151396156964,-11.540684043443557,0.7120551922178416,62.143915848209474,40.965175090550375,1.2792030000000008,35.77000000000001,1
0.6104949810424464,-0.11016807459005727,-0.7231911301152205,-0.03769750655161909,-0.002153496876719241,4.749765258347472,29.160507,2.344346599289941,-9.979265701378312,0.24509906445164134,62.5596466764872,-11.807732448897442,1.2753599999999998,35.789999999999985,1
0.6092182210111963,-0.10904755374345844,-0.7231070529036053,0.061125792081505544,-0.0027251836769512094,4.7447294792266925,29.1612,3.007746411140182,-10.623724740030426,0.5469642663278023,62.28124335849464,-39.480503839199116,1.2702340000000019,35.79000000000003,1
0.6121302489089246,-0.10936533461113984,-0.7233146466360497,0.022018501813196575,-0.0024295129379873267,4.74371969230521,29.162413,3.1753510882308915,-9.657494893468336,0.7039892001483402,63.043616245001814,14.942954528778426,1.2676709999999993,35.79,1
0.609939808190042,-0.10732219868888651,-0.7244664899178314,-0.07500657531403973,-0.0029190597707777037,4.7445823813097485,29.158524,2.5446328235767632,-10.220383371514705,0.8798809404789673,62.252449794527614,15.222167439287423,1.2638270000000005,35.79,1
0.6146820692289762,-0.10720796344916697,-0.7223388632049261,0.012942948767862316,-0.002815629051744849,4.747998045608846,29.159264,1.3889710258064834,-8.355997637347102,0.523093022975967,62.65798602813372,-25.444983367844564,1.2587019999999998,35.79,1
0.6140209640470934,-0.10665405855434623,-0.7214552285165651,0.06270745982065094,-0.002784826237249083,4.747694258630741,29.160452,0.22974160590214437,-8.828963966229185,1.1058428828331959,62.80166528283359,-34.05354003537649,1.2574210000000001,35.79000000000005,1
0.6152702666474558,-0.10713118852874327,-0.7192836738819235,-0.031326498902111394,-0.0034844589007088115,4.744320414541909,29.161259,-0.3160547054443114,-7.384235761056506,0.5050157240996443,63.05262787767907,30.418476096605684,1.2510140000000003,35.79000000000003,1
0.6133083619833326,-0.1060129138567179,-0.7214817715237164,-0.054856407547470974,-0.0033094496286670853,4.7412591997877405,29.161858,-0.5046823605480856,-8.62069508662926,0.9196305979474754,62.72861355893485,-1.3598725939235103,1.248451,35.78999999999995,1
0.6154614582376893,-0.10580256443448464,-0.7211499708943768,0.07721318832239991,-0.002470321220922829,4.737688982280051,29.159851,-0.6100320714213129,-5.903825353942258,0.40765686870361223,63.013891277004326,-31.183629351930893,1.2433259999999997,35.80999999999998,1
0.6152733586086644,-0.10583524609404804,-0.7202807973714832,0.024550910017728588,-0.0024457498217826177,4.736324583690658,29.159754,-0.6119532644017469,-6.0325634973897,0.8206484251628516,63.12849650202986,14.532846970713482,1.2407640000000006,35.809999999999995,1
0.6175266877766515,-0.1047769202221348,-0.7200578873587968,-0.07587100986338385,-0.002740201904060226,4.732052256768436,29.157482,-0.33903112083624787,-7.761736359495418,-0.10497264250281223,62.699477577683844,19.489132110412285,1.2369199999999998,35.809999999999974,1
0.6148862769966471,-0.10447614940315128,-0.7206196808551392,-0.0021019912226396247,-0.003319091759319869,4.726245849583401,29.155998,0.1837299610439984,-7.324455426169761,0.012586593708099513,62.73007880989865,-35.920365824428906,1.2330750000000001,35.81000000000002,1
0.6156022980359092,-0.10915771739000803,-0.7199706476104873,0.08780305238703502,-0.0026716655278078575,4.7199383507925265,29.153008,0.8922278021727842,-5.744877139153548,-0.2765276244286395,63.16501064361273,-4.082838576388251,1.2292319999999997,35.79000000000001,1
0.6087716773478835,-0.1126209040313601,-0.7227733638356071,-0.0635480498974694,-0.0026895440736371345,4.714009597440064,29.15195,1.760579846032116,-8.087573839040527,-1.1020640476985073,62.00852929179875,31.89342268932142,1.224106,35.78999999999996,1
0.6050694636308385,-0.11179652591719222,-0.7257839547351672,0.009422499409744005,-0.0029425952537784016,4.707153532103197,29.148666,2.865724547871644,0.692938645243097,-1.0083414789710075,65.55754201601651,-10.525317529286516,1.2202620000000004,35.789999999999985,1
0.6165307257326603,-0.09626264915359932,-0.720402278572091,0.08890348948212315,-0.0030050799161387668,4.7023564793072525,29.143404,3.5573606155339283,28.067259105087963,17.136404414713386,50.29980846323461,-31.25567640235956,1.2215440000000006,35.79000000000003,1
0.6137028488732029,-0.11753206054596603,-0.7207559296991681,-0.06389252901773691,-0.00314573523975351,4.702316934182309,29.137829,3.24258548109134,44.50208145959794,34.91165654392781,29.84450175532557,77.84382179249837,1.203605,35.789999999999985,1
0.6178055339863693,-0.11790508904192906,-0.7164391732179521,-0.052896513326881923,-0.0029560986090322646,4.700253023457606,29.126793,1.7631688016683695,61.9377906390526,18.18762845561138,16.777165995992522,89.51280638342736,1.1920730000000006,35.79000000000003,1
0.6278438480220422,-0.11204611174128605,-0.7090804500739195,0.08316142715971417,-0.0024883088795489413,4.697760942901839,29.12203,-0.032309741384156425,60.1278858511754,12.740365430725758,21.05155641035434,-118.75812781810266,1.148508,35.79,1
0.6171185598772706,-0.11798983918104118,-0.7168032833055005,-0.12010135860407291,-0.002814918375242122,4.694427267675622,29.113829,-1.2286028173963,56.57846969098676,16.03941605160514,22.656988240743047,-22.332452389449124,1.1075050000000004,35.79000000000002,1
0.623537455620692,-0.1158124463649388,-0.7127855360565765,0.0674678000843735,-0.002837762444465737,4.687320487968469,29.106813,-1.7543911465711035,55.37220500738081,13.67345427948852,26.14119110340523,62.124748037265505,1.113912,35.77000000000005,1
0.6208461084911594,-0.11692984909276519,-0.7130724043761983,0.04214519446688676,-0.002262812477557145,4.6851032202812615,29.106813,-1.8887550638622252,58.298639830389,17.53033239758965,22.065168218833946,-218.1441594723835,1.1126300000000002,35.77000000000003,1
0.6223522990262768,-0.11847844123402664,-0.711607174264776,-0.09121799296481742,-0.0023226303666333313,4.679160719773064,29.10017,-1.6014994971937462,56.48349144541928,17.953450478975704,20.645721148067814,25.412209006106284,1.1087860000000007,35.77000000000003,1
0.6225628559966939,-0.11399058345908746,-0.7137466080690353,0.09352008881166453,-0.0024601953394110822,4.676820634172866,29.094704,-1.2367605160556496,54.62074735684211,18.790282202155872,25.2725253903545,115.98840282738182,1.1113489999999997,35.769999999999996,1
0.6248971875101998,-0.11742303381036506,-0.7124564944712197,0.001250806531364339,-0.0033855436146037875,4.671213510253465,29.09465,-1.0773292413669087,49.987372428509154,19.856958615199105,32.518269395835276,-42.6649818260715,1.1164740000000004,35.750000000000036,1
0.6174842427078299,-0.11798055698125347,-0.7178914563205423,-0.07796171930575349,-0.002716874898898231,4.664429296001968,29.09219,-0.7666304533568506,48.51864834688179,19.75272022113672,35.74939957922509,122.94550881646543,1.1177559999999993,35.749999999999964,1
0.6155281319694199,-0.12230789064236505,-0.7176397778180066,0.11291815481836008,-0.0027662059022413254,4.656120977240345,29.088686,0.023561857159184043,41.730312944721824,19.93891091870452,41.29004924661037,17.963326506890443,1.117756,35.74999999999999,1
0.6081368846122862,-0.11784415838094871,-0.7209888725081407,-0.06398301137598794,-0.0026205857442730303,4.651728524121177,29.082205,1.3444888619922208,49.25409889281531,14.56621334274208,35.57479109257298,-113.45064787598233,1.1228810000000002,35.74999999999999,1
0.609030296822938,-0.1251907917943529,-0.723205220490597,0.06975810801956593,-0.0023311481824258968,4.646260019524566,29.07923,2.6210755979816316,50.11897550961957,14.607521432928941,42.06683246621001,36.24950376369656,1.1228809999999996,35.77000000000001,1
0.6059397429687658,-0.1255003513665169,-0.7271904090816522,0.0344146700371717,-0.002899662196319137,4.646864850815861,29.078753,2.817622649153962,11.325150682211207,13.805109710850944,58.69874502736383,-57.808130582753286,1.15107,35.769999999999975,1
0.6161313624845094,-0.10852244614601125,-0.7229328357905194,-0.09811514230880429,-0.0028559580338107927,4.64887982041164,29.077108,1.5382995622325146,15.161111243423887,6.588732852608562,60.3068075733231,32.01942581447411,1.1946359999999991,35.76999999999998,1
0.6115850050830492,-0.11944137797706629,-0.7242257377516704,-0.001842210395658183,-0.0025023271971267255,4.653266837684479,29.07127,-0.6708147322948297,19.48835482427192,12.474099617336881,59.55969534515144,-62.27410269051999,1.2228249999999998,35.769999999999996,1
0.6152101716068785,-0.11339454105710203,-0.7195011258617391,0.02510542056120811,-0.0027848102085098916,4.65417462761983,29.06948,-2.499691513359128,33.08405771972677,11.852274240396826,54.38549965743254,93.70586724257728,1.218980999999999,35.76999999999998,1
0.6133173271734391,-0.11367359549936829,-0.721669744507859,0.014247625245434412,-0.00270963873030491,4.652630454456269,29.070301,-3.0806851351548548,12.267684876011534,14.245926422680432,57.308678213436856,197.20495724003635,1.212574,35.77000000000002,1
0.6154656910741139,-0.11397448797514322,-0.7215118309880026,-0.0890937009778942,-0.002360833476075971,4.646908914411385,29.065973,-2.797487393609995,0.8978857430001697,11.67934245087942,62.266760954177556,-191.3315150242739,1.184384999999999,35.76999999999998,1
0.6147693642715277,-0.11538224373140907,-0.7198091097483126,0.04297545405082216,-0.00277182821201459,4.641877318845981,29.067131,-2.230846805580864,14.216669032062036,12.789418098638157,63.94102263952084,56.03366323045654,1.1997609999999996,35.769999999999996,1
0.613434658788198,-0.1136668389480739,-0.7210569367305745,0.0450589233509248,-0.002581112300955024,4.636554421302866,29.064995,-1.289882994316943,14.268454555882654,11.865277085534455,58.85724171567206,31.73655929320513,1.202324,35.77000000000001,1
0.6098115432277083,-0.11553477106093002,-0.7215584928667258,0.004752799427541718,-0.002159310075580311,4.629716162558656,29.06323,0.12041992835702102,21.052328079079015,11.068853169436963,58.51659615610354,157.0651373077074,1.2036049999999994,35.76999999999998,1
0.608460851582543,-0.11236379198764823,-0.7225561533546005,-0.05002948768687021,-0.002474074245357085,4.625140441011082,29.062616,1.6419304333001612,19.09510687020821,10.613411615776325,57.90403797220422,-27.76012888275755,1.2010419999999997,35.77000000000001,1
0.6097806358983239,-0.11375444860714952,-0.7245896535276696,0.03158711004794128,-0.0020664926837035275,4.6220773900191165,29.059757,2.4976799670639047,17.049347289514618,10.376070419059916,57.43397512106469,-209.99422033923705,1.1869479999999994,35.77,1
0.6168057904578147,-0.11147755426016016,-0.7195918867902323,0.04863379073803483,-0.003157909945263895,4.621783080318814,29.058914,1.8829675157548353,19.26836202251614,10.989962536327898,60.905741761388825,-158.41783431645118,1.1843849999999996,35.749999999999986,1
0.6151220151940573,-0.11158520990818996,-0.7197684706496281,-0.06544482912480777,-0.0026568577936245197,4.617967226362275,29.052555,0.2927363878328024,23.126702030936244,10.524044266027623,58.68339065090284,162.31357805402425,1.1869480000000001,35.74999999999996,1
0.6164782786670934,-0.11045483295817034,-0.7184585328500571,-0.04062513071377112,-0.003509430779061024,4.612556091005471,29.056044,-0.9511829190043025,24.908385549358737,10.679483989326672,57.185715225837,144.74266840459586,1.1895099999999994,35.74999999999994,1
0.6158258498155049,-0.11081924691515642,-0.7215749852359252,0.06195435747731064,-0.0028174879157641273,4.611602563411889,29.050451,-1.6124443207524624,22.503627548117546,9.362894557859864,58.12951047832355,-89.22978529178353,1.1933539999999998,35.74999999999999,1
0.6218473311597589,-0.11012660699508332,-0.7174884084257749,0.026069093960873774,-0.002067665297012022,4.60745282388872,29.05244,-1.8720573057810062,14.095804418139801,9.639601255746134,60.41978226167547,-222.83012012950127,1.1907920000000003,35.75000000000002,1
0.6137916594938279,-0.11467992886928013,-0.7196246609402219,-0.08761016605663162,-0.0027036085757902416,4.600611374810687,29.045694,-1.3762540197844175,11.264777901300588,11.527523721721469,61.57113978971382,57.31250927910413,1.1856660000000008,35.75000000000005,1
0.6115921057941914,-0.11544007069640871,-0.7231725558016899,0.00014927359926385228,-0.002312739022325659,4.592624027921574,29.046368,0.08924727417582529,14.274032354904456,9.292781012772894,60.75913302743512,6.268642848736094,1.1843850000000005,35.75000000000002,1
0.6087990064172919,-0.11716627075625898,-0.7195503485249428,0.09183831974093475,-0.002276124338689885,4.588155591256593,29.042673,1.7267650620746817,13.683406154738243,9.659639891558196,60.25121144629358,68.82474789078738,1.1869480000000001,35.75000000000002,1
0.6105880316258666,-0.11830067664295181,-0.7228058093628908,-0.04025868011839946,-0.0029133377800398407,4.5826622513948605,29.04197,2.817025608126837,15.153001068849788,9.818055914093675,60.2482662572029,-38.8532190816785,1.1882289999999995,35.76999999999998,1
0.6109826685293006,-0.1149226983471267,-0.7235251998440743,-0.017142047647875185,-0.002719375441782427,4.58108546298856,29.037176,2.781124025867676,16.20700432121824,11.279379755327167,60.345692367420874,-178.08471061801123,1.19848,35.769999999999996,1
0.6180524634830891,-0.11307528267857324,-0.7177080020247034,0.07271399023806985,-0.0024888435322865917,4.580428076742112,29.035622,1.340075466036644,18.061478686134482,10.655701467000803,59.438271965704,106.22172304492494,1.186948,35.770000000000024,1
0.616823504806282,-0.11287239811960804,-0.7182845891055748,-0.03951168082633731,-0.0030577420314391634,4.5788776542711584,29.03424,-0.5806406621473961,17.43172364901553,11.486647815986204,59.95989845091785,42.8546683121198,1.1818219999999995,35.76999999999998,1
0.6175445854406636,-0.11159926781075832,-0.7178090399595691,-0.08459597856966497,-0.0028328130103948673,4.572405977889933,29.03271,-1.768259478740706,17.674016733291086,10.283793483925278,59.43269676672254,144.6595116284384,1.172852999999999,35.74999999999999,1
0.6181688478712648,-0.1111694981437914,-0.7193955463451833,0.09271793344595265,-0.002797542715400648,4.569928204467145,29.029919,-2.1898126572146683,17.533573627048316,11.340649921245543,59.84716781243532,-46.45137558699915,1.1677279999999999,35.74999999999999,1
0.621428804905599,-0.11171627414262314,-0.7153989778231687,-0.019373672308612058,-0.0029871947199745677,4.56683741804754,29.0284,-2.193437122777967,18.43346960650286,10.367551728424528,59.183931036860145,51.03075106074214,1.1626019999999992,35.749999999999936,1
0.6139219089027167,-0.11454584266113857,-0.7193538207289415,-0.0789868194957433,-0.002746156492294054,4.560431923644534,29.024584,-1.5528753319762876,18.762097006118886,11.202952044557776,59.58746240567757,9.962636480986605,1.1587580000000002,35.75000000000002,1
0.6160955467622927,-0.11520675947900742,-0.7202187520226825,0.10014065269102629,-0.0026083901798778395,4.554271418610102,29.022888,-0.24108638810903066,19.548000755623256,10.743216696859426,58.804202597502936,-54.680374743877834,1.1536329999999997,35.75000000000001,1
0.6130676584737442,-0.11565176751207747,-0.7172341032149651,0.036180331466663496,-0.002822416136649989,4.547308007103137,29.02051,1.1787258234005522,19.30734018232272,11.259851463746134,59.24230841190757,-53.024349010381,1.1523520000000003,35.74999999999999,1
0.6133706675093102,-0.11497429404161032,-0.7201108028259534,-0.056998127521027585,-0.003259102519660385,4.543216362037262,29.018978,2.2829620866711546,19.48959003360732,10.748229074714153,58.934831605500776,34.51918438732256,1.1523520000000005,35.749999999999964,1
0.6141938254351151,-0.11354617642365511,-0.7218471180498117,0.07744768548118003,-0.002873029619313169,4.538759563601727,29.018639,2.42106275554663,19.40644866308058,11.229203907424168,58.90805053090742,10.369614364783926,1.1510700000000005,35.74999999999999,1
0.6191711384090393,-0.1113819790005736,-0.7164172778966191,0.0015932111928661193,-0.0026043750100883684,4.540984444532957,29.016035,1.2728940277101464,20.426726322481272,10.93030123496564,58.47276396289646,16.023889397111002,1.1510700000000003,35.75000000000001,1
0.6180648187679725,-0.11055130470429603,-0.7171362554557518,-0.11202780925032889,-0.0027770753542806044,4.540106050849835,29.010859,-0.27125301004142344,20.04387596077778,11.491823117502982,58.86374543225524,-20.854879150592073,1.1485080000000003,35.75000000000001,1
0.6196634006624347,-0.10923443844858369,-0.7168475463647569,0.01585027533134177,-0.0029589883642079234,4.5357578106775565,29.00894,-1.4193537113705992,20.81419699280423,11.11278740680687,58.388023506607475,-36.89298749261919,1.1472259999999994,35.75000000000002,1
0.6191242420947708,-0.10780027533075065,-0.7162718213423631,0.07001928949881947,-0.0028353466172506823,4.534229864326474,29.008387,-2.0513686746464352,20.367397198228442,11.42889020715866,58.81391375559237,-22.22956119923004,1.1421010000000005,35.75000000000001,1
0.6196149632174361,-0.10846919722276106,-0.717928326195343,-0.0766886439295398,-0.003087430733092785,4.5307299960771905,29.00487,-2.0888416266088212,20.573687565382492,11.209319775173649,58.39298283967237,29.214217841667114,1.1395380000000004,35.75000000000001,1
0.6179016034941268,-0.11029648839234456,-0.7177921564371086,-0.0315498998876825,-0.0024387746632488594,4.526522211750435,29.00184,-1.7604317144024624,20.48908598708281,11.379374269918356,58.80141101271205,0.41247283182934524,1.1369760000000007,35.74999999999999,1
0.6177601673739896,-0.11325030277245704,-0.7169874600745741,0.07872481531458557,-0.003084631145951445,4.519964146513337,28.995855,-0.84851010052774,20.871495999040395,10.82038937317938,58.23173377805869,-12.172316699019023,1.1369760000000007,35.750000000000014,1
0.613978271379233,-0.11473855156702176,-0.7186943886055227,0.006879685828538511,-0.003221992609839211,4.516358069806886,28.994059,0.710813686555468,20.413346402742103,11.283691924114928,59.022854488581366,29.567047904220804,1.1331320000000003,35.75000000000001,1
0.612370388599542,-0.11508203209157959,-0.7192157727969866,-0.051419618408689347,-0.0029817488446156875,4.510988671526016,28.995106,2.1982987345782137,20.92491056234904,10.731606200085457,58.35732532807399,15.712368133378467,1.129288000000001,35.75000000000002,1
0.6122970712527804,-0.11430818238022653,-0.7219594416484522,0.06130314043300677,-0.003031312434745454,4.505859786739988,28.995937,3.1529434193958754,20.81596806831943,11.246817675285401,58.620338274702675,-14.977058341451373,1.1254440000000003,35.75,1
0.6166939083200753,-0.11223389754351255,-0.7183407208776083,0.059972797889298476,-0.0027003048275156508,4.505524175012074,28.993097,2.8795776023707336,21.10208633148929,10.987386338546777,58.44405559415291,11.879690065213747,1.1228810000000005,35.75000000000002,1
0.6168180611168613,-0.11085429281742644,-0.7187409985975276,-0.08689306951991839,-0.0031405272191494292,4.504771632505603,28.991074,1.5273033558490985,20.017260846343646,11.82628746733538,58.491996693156516,20.90101370552381,1.1228810000000002,35.75000000000001,1
0.6195046506864214,-0.1105893867161649,-0.7149803997980739,-0.001480723124255496,-0.0025839772392582624,4.501817541655596,28.986834,0.010236065564712463,20.760571369878296,11.338298262429253,58.183212421050065,-3.3473948812453362,1.117756,35.73000000000002,1
0.6250685218623736,-0.10885432081490305,-0.7118306860435876,0.06339027539049837,-0.002470455894551777,4.502969573324001,28.983696,-1.2055751233141359,20.37900900260013,11.849526871004128,58.49245981922164,-9.73127869616974,1.1203180000000006,35.730000000000004,1
0.625457900001667,-0.1079760178920286,-0.7100234878152091,-0.027699488250786924,-0.002993789906250265,4.503156859123816,28.983072,-1.8726990086410986,21.07688881339313,11.106819977372451,58.50385081621951,18.317929461636613,1.1151930000000008,35.72999999999999,1
0.6223626456462233,-0.10784313461613163,-0.7129629487929959,-0.08498218846035299,-0.002570639165191444,4.497720927585367,28.978699,-1.9546817946435917,20.58179096546656,11.564032315522955,58.70498974188653,1.3170660832725591,1.1113490000000001,35.73000000000002,1
0.6248447322151951,-0.10863788866355269,-0.7131519270829113,0.06520668559064942,-0.002502428585301154,4.493426321809451,28.981934,-1.649923546389204,20.88118049790623,11.287083741383674,58.27720894637554,-14.619569504308824,1.1075049999999997,35.74999999999998,1
0.6225527693078161,-0.11015657250719484,-0.7127023745009584,0.025488488245546,-0.0024728293456006893,4.489183621745298,28.981253,-1.2946005167161732,20.53197850927276,11.340764020529212,58.854665341218094,14.761844108914607,1.1049420000000012,35.750000000000036,1
0.6193069531902181,-0.11297878149645749,-0.7151845647014666,-0.04626436731574606,-0.002568392494285843,4.481974293532711,28.979021,-0.45724850504699305,20.528448890473282,10.838348500026807,58.15983789250357,17.298782285898746,1.101098,35.749999999999986,1
0.6146767848252508,-0.11464836862358538,-0.7193080570518323,-0.0564519872127135,-0.002611796585035858,4.476659099701307,28.975357,0.8156155366272959,20.497895043678795,11.246084790482904,58.69412969569796,-13.478572927623045,1.0985360000000008,35.75000000000002,1
0.6161258400440843,-0.11442939388335976,-0.7159528483134747,0.1012476725803979,-0.002873506071669553,4.468740665778728,28.97419,1.774405796938514,20.774824026781065,10.745325184357325,58.42896345960686,-10.545031383747183,1.0934100000000004,35.75000000000001,1
0.6156752505842654,-0.114187132141627,-0.7184493261944538,0.01202258526411629,-0.002693850253160753,4.46656604848893,28.974096,2.1782181601899233,20.319996534254138,11.260074945738792,58.83385216222999,12.003719873938698,1.0895660000000007,35.74999999999999,1
0.6178845098198659,-0.111486387553011,-0.7180693889876704,-0.060589435518531395,-0.0025548426971062498,4.463819613826412,28.971848,1.9064172411776343,20.94655320301787,10.735881018273497,58.44087926896486,2.280408586404582,1.0882850000000004,35.750000000000014,1
0.6192553053733549,-0.11130538293661071,-0.7169764027849143,0.0009766528720775046,-0.002961062692081435,4.460898198124703,28.970673,0.8368261653350773,20.424478856533113,11.989818299348999,58.5058354945659,-21.028894253023072,1.0818780000000003,35.750000000000064,1
0.6216310930186187,-0.10962322992951844,-0.7142761096060914,0.08192901813813773,-0.0028085278098135447,4.456927739111232,28.969904,-0.4622472913603128,20.902787316549293,11.311531789539355,58.39180989892775,-3.321106359506157,1.078035,35.730000000000004,1
0.6208041489370215,-0.11007020311807951,-0.7139125206277404,-0.040237446105774816,-0.002903297117055721,4.457177209141287,28.968925,-1.2766537306099521,20.622864415259848,11.279645018787903,58.813167648545495,13.738194464193482,1.0741900000000006,35.730000000000004,1
0.6218414758565617,-0.1090022877613626,-0.7117655826838301,-0.06248285065824982,-0.002566658161506833,4.451991685364392,28.964228,-1.438354377307424,20.813910581632893,11.13492860951173,58.279437895095725,-5.463621960199168,1.0703459999999998,35.73,1
0.622064338850788,-0.10949053227178683,-0.71433615449155,0.05281370751731499,-0.002524737300619922,4.450801711451488,28.965443,-1.3482851732283596,20.44670755387132,11.756690002848154,58.84403953980073,-9.65769769911306,1.0665019999999998,35.73,1
0.6241786910945203,-0.10860989156884013,-0.7132142897676321,0.05509408889191978,-0.0026704712781553406,4.446399873023914,28.963785,-1.2618346867633796,20.844113944369322,11.14977613953994,58.547513879219366,18.24043859218351,1.0652210000000004,35.71,1
0.620273178109541,-0.11173123769944254,-0.7145385595337005,-0.07888944830443605,-0.0028729980310208784,4.443044684622667,28.961288,-0.8334169647207357,20.369416102393085,10.938008737939011,58.63009807356152,9.76594996633708,1.0600960000000001,35.70999999999999,1
0.6169735556130105,-0.11376928614881797,-0.7184695495791612,-0.031346607691517904,-0.0027752939973299836,4.435601732663956,28.962278,0.21629937685010678,20.775222666366062,10.658662255670908,58.58756001987484,-17.554651314696592,1.0575330000000007,35.71000000000004,1
0.6139909537868856,-0.11519964819806804,-0.7192630008343861,0.1002026554601488,-0.0024382810625260256,4.432036257686052,28.96053,1.5043342873846233,20.404014243058405,11.153330615032402,58.82527760657654,-8.565435123301304,1.0575329999999998,35.70999999999999,1
0.6134768459774879,-0.11509920526296775,-0.7172162255895417,-0.0009740721424885964,-0.0026796574192363897,4.427256914989856,28.957453,2.457354289944253,20.933577308424322,10.765866163669822,58.48803121191168,18.315047877846233,1.052408000000001,35.710000000000036,1
0.6127453685864077,-0.11413656325495655,-0.7217603419086627,-0.05744881291121607,-0.0027852064121987705,4.423440183405268,28.957182,3.001089644204053,20.353952759539442,11.239853885347578,58.73894242967347,-21.219483224608055,1.0511259999999998,35.710000000000015,1
0.6173660327078414,-0.11076898320664513,-0.7187317517656867,0.0663978756456741,-0.002811745342326778,4.420095829338412,28.952602,2.513447318058567,20.95727452920689,10.758752356916792,58.133383836293525,-12.826513290210398,1.0460010000000002,35.709999999999994,1
0.6191543492546516,-0.11080224886925026,-0.7157272165104528,0.016656954982765353,-0.002537089876297434,4.417436309007065,28.952711,0.8861740897819097,20.67585536891294,11.241760524620473,58.95964725308399,19.88308787069929,1.0395950000000007,35.710000000000015,1
0.6206095446765962,-0.10936098360536818,-0.7152485588565366,-0.10835851487758105,-0.002415404220582467,4.413404223338094,28.950426,-0.7522151957796608,21.131545337922446,10.757933906401021,58.40076056711223,13.938004175694724,1.0370320000000002,35.71000000000001,1
0.6201395726409362,-0.1091817649597054,-0.7153478932771481,0.022872764946384645,-0.002577009181444267,4.409760060058353,28.95174,-1.6813739531466705,20.838606265779042,11.242363294756505,58.72691001355896,-13.989017716708481,1.0319069999999997,35.71000000000001,1
0.6231687494609569,-0.10819107800683177,-0.7142261420181639,0.0810055746650911,-0.002460208466955536,4.407925315263277,28.949526,-1.9372144714357427,21.118136186260962,10.757273941611103,58.35101505182689,-8.162975316335421,1.0306250000000001,35.71000000000002,1
0.6217317516506049,-0.1094438205254991,-0.7150513231303074,-0.08968478286690582,-0.0031025824403661316,4.4046217173049955,28.94879,-1.8142345711338976,20.814965573002624,11.243187096754733,58.48584443189634,18.28344164677232,1.0267809999999995,35.710000000000015,1
0.6195817116894453,-0.11121155966265776,-0.7150843679467399,-0.030866762195041576,-0.0030318255681534107,4.3969161705619095,28.94958,-1.2866262947621636,21.23904816634224,10.756236328320002,58.366309617982424,-10.712119000194434,1.0229369999999998,35.729999999999976,1
0.6176626066937302,-0.1139651798307398,-0.7170352587110194,0.09882949313007633,-0.0031244092583444004,4.393852583952428,28.94763,-0.32513465217770265,20.743703249122717,11.24446691247358,58.455197667130705,-23.371955062354065,1.0190929999999996,35.729999999999976,1
0.6160069792109499,-0.11408080073749348,-0.7167505494429697,-0.01704039601868826,-0.0028580928216331795,4.388430229481346,28.947296,0.9439204333836829,21.364925914241127,10.754694395220755,58.07698095274942,20.502173200496536,1.0152489999999996,35.72999999999995,1
0.6128742436847103,-0.11490865386055076,-0.7200644652838372,-0.04279488752927389,-0.0027454747969176494,4.383367750732269,28.951286,2.000319806445489,20.854841511447937,11.246287883446382,58.3809739237788,8.729537788764304,1.0139679999999995,35.72999999999998,1
0.6163652188628256,-0.11303723140529272,-0.7188540805338025,0.10240258188676653,-0.0028952550128724846,4.381476366712334,28.9468,2.27038410426978,21.497157243808772,10.752577943974321,58.06695193811456,-26.155989296633436,1.012687,35.71000000000001,1
0.6175776089707058,-0.11204843568324674,-0.7179736023521517,-0.005939135889025666,-0.00305199543232145,4.37873673720616,28.943937,1.4715309767176108,20.665280268979643,11.248717037298874,58.79091304912147,5.646272086779325,1.0062800000000005,35.71000000000001,1
0.6205784365300091,-0.11015559649558508,-0.7159414662851975,-0.09025784957114177,-0.00257554504008352,4.3763384724890635,28.944962,0.235795299069975,21.422362052977935,10.749817407037968,58.017038196048524,20.559018722439045,1.0049990000000004,35.710000000000036,1
0.6212073121929018,-0.11113233452899299,-0.715370257913043,0.03345411067000231,-0.0024980866068437437,4.374263538299468,28.94464,-0.9089234363152795,21.187427224630294,11.251829470443758,58.56307348222268,-16.261013954133663,0.9998729999999993,35.70999999999998,1
0.6227379634320608,-0.10942077059072265,-0.7127842176326071,0.06655040910772869,-0.0025091725726274724,4.373181834112517,28.942514,-1.7222946082853232,21.714800533678055,10.746330567398887,58.18317464312816,-1.2135595448564118,0.9960290000000006,35.710000000000036,1
0.6209337281573182,-0.10938682729358858,-0.7143549039585867,-0.06048317906869098,-0.002932663750382972,4.3708216650281555,28.9426,-1.9769024427808461,20.78202100979054,11.255715162457612,58.450780475089374,20.57640986917181,0.993467,35.709999999999994,1
0.6229238783814159,-0.10888498497900848,-0.7138779472961092,-0.05222986184333886,-0.002491586682166345,4.365758816388453,28.938429,-1.8070775555909144,21.454976768429574,10.742020052848673,58.19682800308075,-14.876400795080212,0.9909039999999996,35.70999999999999,1
0.6218270614096179,-0.1103809218436585,-0.7143001069034847,0.07020267072531416,-0.0027570087280538807,4.36350306390293,28.937464,-1.390423375423456,20.844968649678737,11.260476943581471,58.41047650743515,-13.262498456229807,0.9857790000000002,35.710000000000015,1
0.620508857562998,-0.11180234904773165,-0.7135262558531371,0.011636177319923464,-0.0029603475194672504,4.3582416413624,28.93589,-0.7241421779703943,21.562972625992707,10.736782389383519,57.91602030035342,22.51027447992005,0.9844969999999995,35.71,1
0.6149162172846093,-0.11429487399944283,-0.7179605084704188,-0.0658323799346297,-0.002402797327831721,4.353258809740456,28.935938,0.43901976223424144,20.846041346433076,11.266208401256796,58.535733579115124,3.1145795849529603,0.9793720000000002,35.70999999999999,1
0.6146119955526711,-0.11449424051960908,-0.7178969870924482,-0.002236931682431104,-0.0026012118234884137,4.348958712961827,28.932793,1.7518352825090646,21.579065262958025,10.730556402665568,57.74420473499987,-23.720614049959252,0.9755280000000002,35.70999999999999,1
0.6144249364763347,-0.11431551362762735,-0.718675479119731,0.1107548066301789,-0.0024145251916691426,4.345718536739738,28.93032,2.567011073582761,20.784477426181013,11.272888858954287,58.451533828386204,2.3167767125657495,0.9742470000000003,35.709999999999994,1
0.616903677442134,-0.11194851325833421,-0.7197911958716875,-0.0534401212544598,-0.0028102470804572104,4.342864559540791,28.932793,2.3690455170040337,21.424247276796102,10.723560306502524,58.14070298196875,27.042070166208482,0.9691209999999997,35.68000000000001,1
0.6183901844828027,-0.11124357050979153,-0.7185958654487602,-0.04455484246589972,-0.0025581767021362004,4.339719275792597,28.929008,1.300022687283911,21.09164399793177,11.279799876753616,58.29095837638692,-11.008892239623137,0.9665589999999995,35.68,1
0.6221265741940701,-0.11024594951151284,-0.7142396025070757,0.06101235991553452,-0.0032656203791487266,4.336589920892047,28.929863,-0.13744168882340893,21.557654492290656,10.71797121567365,57.914692475860654,-22.426199855730495,0.9652770000000002,35.67999999999998,1
0.6211071800517525,-0.11042763723020291,-0.7139157948189472,0.02738800442664596,-0.0026040152231323224,4.337386040609405,28.927034,-1.3495098566450205,21.10215675549697,11.27889819040776,58.63090802783159,9.63892128206591,0.9588709999999997,35.679999999999964,1
0.6227894698294867,-0.10908195948156721,-0.712878123915462,-0.10739123754374683,-0.0027822483190562547,4.331871747494773,28.924702,-1.9074549333946356,21.738581799242674,10.803316170652847,57.844593237532656,15.647275809376028,0.9563079999999996,35.70999999999997,1
0.6215482456493158,-0.10975959240947668,-0.7144072412422782,0.024643890758624595,-0.0026637561470684613,4.330026119191443,28.926138,-1.8919721839627472,21.03515599537926,11.35568690294114,58.25015494632078,-22.507149528969286,0.9537450000000008,35.71000000000008,1
0.624035630981814,-0.10969792907872675,-0.7124377000390741,0.06681879730617137,-0.0028268708430663927,4.325783056554732,28.925955,-1.6380684151695846,21.696670827764443,10.655422310960116,58.01920239992406,1.7351087045217017,0.9511829999999997,35.70999999999996,1
0.618850381636647,-0.11355120334606995,-0.7146818032951633,-0.05014923163358025,-0.0027464683481638863,4.323056732509016,28.923473,-0.9839894074612775,21.17552359596105,11.35075044237579,58.21392006236512,17.559398241904116,0.9473390000000002,35.70999999999998,1
0.6173063854645702,-0.11412060780161064,-0.7181341794997687,-0.06910938674570384,-0.0030495945408963022,4.316690031733982,28.922901,0.17509067345934587,21.822057564142014,10.637863193830206,58.09975915491689,-10.219901152842006,0.9447760000000006,35.680000000000014,1
0.6139545167218986,-0.11595104996294853,-0.7184116932422,0.10735608212615862,-0.0026804163602893536,4.312206493980455,28.918339,1.424529672086676,21.230596980959476,11.377243369717963,58.24225407658066,-25.599926751945464,0.9715850000000008,35.68000000000002,1
0.6162711462296455,-0.1143387045480972,-0.7159018092680751,-0.0014303315033926615,-0.0032946417704932296,4.307951135928508,28.92032,2.431541373013016,21.69099002661249,10.604208101089085,57.941141512904366,19.12874507104631,0.9690220000000012,35.680000000000014,1
0.6140287499446051,-0.11526732372872997,-0.7206322337410648,-0.05371185402525937,-0.0031607625387347644,4.305065526535802,28.91853,2.775167561625795,20.876947847162207,11.415700510740564,58.333463351155956,9.021592942095065,0.9651780000000003,35.67999999999997,1
0.6193473917057554,-0.11185614201456691,-0.7164520452875348,0.058876836545945554,-0.002832541496751684,4.300282033539938,28.91314,1.9864631251417846,21.947318541191756,10.664283994667425,57.72032987823486,-21.296905722901094,0.9638970000000006,35.68000000000001,1
0.6185628211090518,-0.11386649738119169,-0.7158227189509568,0.0437820831956226,-0.0026748277681125014,4.298245133544935,28.916786,0.47554632850765965,22.066971331176227,12.419301779637848,57.726269869263845,-6.646311855733171,0.9600530000000018,35.680000000000035,1
0.6232917173636092,-0.11338547965500612,-0.7112219291742543,-0.10583830079073023,-0.002909936591246887,4.296879610791576,28.914413,-0.7447069817728121,33.272340987004405,11.361023920808021,50.32919661991513,25.6412090366073,0.956209,35.68,1
0.6204021217997908,-0.11718909310260743,-0.7153014462075069,0.0182433944512529,-0.0026987277327482316,4.2948266862531534,28.909698,-1.438102530432514,55.823400614757624,17.767791452312967,24.74694842728261,-19.38262908454046,0.9510840000000006,35.68000000000002,1
0.6254363795777301,-0.1211125808715074,-0.7130458313925787,0.08768788731121628,-0.0026295446594488616,4.2917318273640275,28.90791,-1.8666913792561393,64.31017667046093,9.865417979543151,-2.667416191783835,-21.20014838579013,0.9485210000000001,35.68,1
0.6187648280522972,-0.12481631450790515,-0.7129009416188101,-0.10360504516297794,-0.0024577811759439266,4.287737532558431,28.909067,-1.6728161999685094,67.61989859872455,10.211742877544355,-2.0093298454263424,-33.677005751568636,0.9549280000000013,35.68000000000006,1
0.6174751327563908,-0.1228648831459181,-0.7204460140844829,-0.007341790427259239,-0.0025008293183780258,4.282462221890059,28.909632,-0.4183535655725729,60.061998961763315,10.85011492121437,-10.550129560599272,-19.453800219745904,0.9408330000000001,35.68000000000001,1
0.6149236588872387,-0.13031661338719325,-0.71338881649777,0.10127641182996645,-0.002870577092810385,4.277475316554952,28.903437,1.235091754219837,56.568378282611896,19.20389703508181,0.7336956146816674,46.30280895168983,0.9305820000000006,35.68000000000002,1
0.6170163123824667,-0.12967855568839912,-0.714898747077717,-0.0611934941580692,-0.003004992093608508,4.274837964500634,28.905691,2.572291141738418,59.50637242988003,19.21435815072006,9.961426281683803,46.74894721693686,0.9126440000000002,35.68,1
0.6203049241843834,-0.12199876253155194,-0.7155893343373433,0.01646081617386934,-0.002799584539191931,4.270190357520271,28.901108,2.9368811141941387,60.27000160284811,16.213435065294902,11.749610464870253,2.9225690822092436,0.9088000000000003,35.68000000000002,1
0.6221592158912364,-0.12135129072361103,-0.7127250788731879,0.0765986309269236,-0.002625945514754632,4.267414998803467,28.90029,1.7330300254192044,59.01411918853086,10.550046180190503,14.031366708613598,68.25225377308392,0.9062370000000001,35.68000000000001,1
0.6260206768135618,-0.11626226283994985,-0.710573259747911,-0.0979443359929522,-0.002578076375805716,4.266692505534616,28.89742,-0.2685463582873088,50.70264565448945,13.452018240957912,32.34692631730538,-32.18610934713158,0.892142,35.67999999999995,1
0.6222357368649782,-0.12200862604785896,-0.7122252899617876,-0.0029008814885447694,-0.0027221604800636294,4.262353710098557,28.89746,-1.7374652865059226,52.52900326134001,15.040548615333314,32.14094836349177,-70.68750782456563,0.8844540000000001,35.66,1
0.6259105479537274,-0.11728378934453791,-0.7114555716131826,0.1000189571644723,-0.0031107908898675043,4.260192513261457,28.892954,-2.4603151915270147,51.63780270339833,15.39797477369661,32.606893514659006,-52.44384446378766,0.8575460000000005,35.66000000000003,1
0.623595999957565,-0.12264951620592136,-0.7115223020612578,-0.10223557388813508,-0.0027270309796205423,4.2568653568018995,28.88896,-2.476158290098728,53.50697239929841,15.95180855634259,30.270872362989028,-53.54925402584247,0.8613900000000001,35.660000000000025,1
0.6197528061497188,-0.12353952414342116,-0.7144556185764721,-0.01939925089577455,-0.002895199569054122,4.250705804119572,28.886604,-1.7572007894125798,51.584193061614705,16.028086107546486,32.72926917984255,168.92844301670561,0.857546000000001,35.66000000000002,1
0.619695141170893,-0.12615346580150363,-0.7132508245633963,0.08261113486460019,-0.002584019782008794,4.245993309506463,28.881498,-0.347018797512884,53.47794352623816,15.98421967633036,30.536766469498993,16.596496814518648,0.8485770000000001,35.68000000000002,1
0.6151410906798229,-0.12716225547670457,-0.7137585949491503,-0.047566631246530044,-0.0033203248180107467,4.2425246987227245,28.883055,1.195464310853624,51.87800443716326,16.35611863491207,31.26431885324104,-35.00043363265965,0.8472960000000002,35.679999999999986,1
0.6182228546525169,-0.12590319863004718,-0.7168341381730564,-0.009941925851894953,-0.002749074222351909,4.238869859300436,28.881607,2.313765637776805,54.3950295038555,15.577738964134104,29.64335871861602,-1.633935251321157,0.843452,35.679999999999986,1
0.6188124690916414,-0.12253606107330327,-0.7160281275318234,0.09716069525327226,-0.0027534554255923367,4.235703993383753,28.880661,2.216990256808507,51.48607658314847,16.58122175706656,31.3863148659249,-35.80448615208074,0.840889,35.67999999999998,1
0.6252314552095797,-0.12082990714440983,-0.711462396652808,-0.0482274182449061,-0.002679519483890527,4.23455733175093,28.876701,0.9382878948966982,55.66383004975494,15.058204509045403,29.90714402895326,9.349711796699685,0.8383259999999993,35.68000000000001,1
0.6200062843243574,-0.11829775559198569,-0.7123503526923894,-0.07191199144191962,-0.002881617868069896,4.230159573725715,28.876429,-0.534028960585799,46.26925911950546,18.40759759823086,29.493266297778007,17.904005138282837,0.8332010000000009,35.68000000000001,1
0.6192437191160388,-0.11837547650668981,-0.7183796240768303,0.09378094103779065,-0.002647824874757165,4.229160035671682,28.874434,-1.6103736453022595,62.3811037977179,2.4181017633571753,6.121090654540572,-24.67261950063117,0.8319200000000002,35.68000000000001,1
0.6187434317124576,-0.1215966432625358,-0.7181943631266278,0.018376192567997413,-0.0027363650177076827,4.2273579924054046,28.870346,-2.3304058357733313,68.30864620093656,-11.498682886795285,-4.096633486476461,4.929718773077622,0.835764,35.67999999999999,1
0.6158777917515513,-0.12473534469067031,-0.7192233544200711,-0.12574705543881512,-0.002871590094523245,4.223356689092131,28.869944,-2.2366966498366323,67.59934201087786,-14.541198623217609,-7.011791574056802,28.162724789321892,0.8485770000000001,35.71000000000003,1
0.6052416951548084,-0.11663202899130097,-0.7233472604225718,0.05285264224163675,-0.002649587465112465,4.21901051283435,28.86987,-1.0153311165422891,65.19384294120965,4.678928708663933,-6.233822360760859,20.10589535195674,0.8780480000000002,35.70999999999999,1
0.603840733457228,-0.13338156911507051,-0.7251467644306919,0.039575753179993754,-0.0021384064092271303,4.221877307497112,28.871763,0.8792838901447388,54.76495192226554,24.170665885921817,2.5376968398952804,17.518526280077165,0.8485770000000005,35.70999999999999,1
0.6130691590206804,-0.09329968313301913,-0.7238719894576015,-0.0678028695549665,-0.002332417775083389,4.2179714882289465,28.871548,2.5153897079708445,50.575177711655954,19.141968689321608,32.595755614639394,-43.92503626064382,0.8460139999999997,35.70999999999998,1
0.6144759800436669,-0.10277407804348791,-0.7252733947626759,0.07294496728027203,-0.00304715328993755,4.210830827070691,28.871649,2.8498615842182833,27.138315420497356,32.3562095032354,43.64715631502396,126.10296518695833,0.8588280000000005,35.71000000000006,1
0.6109735472995674,-0.1246464784421674,-0.7218389501091672,0.03444788130876752,-0.003262091736722191,4.213528382831475,28.868639,1.2567196099136344,33.87198125751479,36.11991130258595,35.699623571596,50.78939303832672,0.8947050000000005,35.710000000000036,1
0.6130312391261971,-0.1040275128289383,-0.7208023644004854,-0.12647321923659097,-0.0018376339535267415,4.208236076691715,28.875994,-0.7029338172610442,44.535037768235995,38.65061580431809,24.94178622118361,-117.76759927396859,0.9023929999999998,35.70999999999997,1
0.6132353497139261,-0.11021868551492621,-0.7253023002547978,0.018366073416881467,-0.0026798070337138292,4.2049179157270355,28.87927,-1.77896267671812,51.03853356014171,37.093278589846705,7.315740246326347,-126.80571615243599,0.8934239999999994,35.71000000000001,1
0.6155920181757186,-0.10265912616255662,-0.7201256909712784,0.0698185566285599,-0.0021549319791777507,4.200403717709706,28.881485,-2.2280243211980193,52.27755913430202,36.93525456725525,6.4790100240388355,107.45172145858835,0.8754850000000001,35.70999999999996,1
0.6057214659958291,-0.10923360208121476,-0.7281118374450873,-0.1091593440159196,-0.002489291085497748,4.196379497771273,28.885778,-1.7312200760081333,48.00828073506148,37.1645352980988,12.355195431855554,-84.30681343483067,0.862672,35.70999999999999,1
0.6081119143275575,-0.11060792492670876,-0.7251885431220089,-0.007436114476754579,-0.0025288969243831656,4.190611972986074,28.889425,-0.08306865937887069,47.47824568404661,32.432316208510755,20.25715406069421,111.50291421584149,0.863953,35.70999999999999,1
0.606050851962584,-0.11183100244108088,-0.7225126078451837,0.1220587206448821,-0.0030337993680551877,4.186378043115817,28.889837,1.6182415174305214,53.03049071153455,37.271361426395686,12.382788088852845,-14.478641484120512,0.843452,35.70999999999997,1
0.6222778586244933,-0.09427882075646413,-0.7209585468654169,-0.04981281584637167,-0.0029541273791294275,4.18461859860858,28.891342,2.6578102083183257,52.869483778802326,30.28068218248584,13.938816557489424,36.417843033167614,0.8421699999999998,35.71000000000003,1
0.624855122426887,-0.10242639327961899,-0.7100700359739495,0.013508263368875027,-0.002503085622612334,4.179789478751734,28.887152,2.008056552026151,51.0882786136684,28.679450782920526,25.829006402655946,-151.0017123546713,0.8434520000000001,35.71,1
0.6221005816363556,-0.10666344350900658,-0.7099881227287215,0.10908146118173694,-0.002528675038630952,4.174163565933371,28.889269,0.2686428205393943,50.973528123354725,27.78530633488454,24.55318483687609,-16.27030664999642,0.8370449999999993,35.71000000000002,1
0.6309927751588644,-0.10867732221178023,-0.7072243628150304,-0.11812705624563606,-0.0026199882348075915,4.171167709538814,28.887106,-0.7890021363779228,53.916578062100015,26.151030894183396,22.840018945435606,105.533609785385,0.8421699999999989,35.70999999999996,1
0.6252579635261576,-0.10690388613398587,-0.7137881626139004,-0.00767538532642696,-0.002515891582631628,4.161982483291123,28.884935,-1.1137182866295894,53.58800484006141,26.284819383748058,21.688835494303493,-102.35109892536254,0.84217,35.73,1
0.6205068825838091,-0.11105501796928244,-0.7106915818263424,0.07491489820188037,-0.0020290205706832917,4.160706515370739,28.883465,-0.8522151290269646,53.851839249407554,25.678175419724337,21.953117233115996,-4.459023282871954,0.8421699999999998,35.73000000000002,1
0.617555289557389,-0.11380052132757283,-0.7149868044752945,-0.09608382786151513,-0.0025020155841187627,4.156974954265125,28.876863,0.45913038311240817,53.47385892297139,26.069736995974225,21.32996968416037,14.075954297989332,0.84217,35.72999999999997,1
0.6191286315432019,-0.11541116316972175,-0.7166487656228124,0.03268168922157241,-0.002359658218211389,4.14973082622778,28.87625,1.862929669629256,53.8211943874798,25.571404121307726,21.59020347673662,27.720331190268226,0.8370449999999997,35.73000000000001,1
0.6213199846260438,-0.1125544002313982,-0.7140047001637154,0.06733582676954392,-0.002828437087410964,4.1446814300621035,28.878004,2.1514560210053513,53.76881527349086,26.076044318907698,21.608323453644346,-59.91122148866863,0.8383259999999995,35.709999999999965,1
0.6189615296728646,-0.1133968443904038,-0.7136541099024319,-0.12482172411558191,-0.0025611558098000667,4.138924589324029,28.87508,1.6277139263990024,53.72648812108753,25.846942625264745,21.575027373993606,2.6490126943795973,0.8332009999999992,35.70999999999993,1
0.6218588280046115,-0.10945051632350498,-0.7148562576178444,0.1321108103954125,-0.002347079055774415,4.134548612561055,28.871607,1.1434376139312015,53.734263281137785,25.66959125151165,21.50127487213503,6.7787936977755265,0.8306380000000004,35.71000000000004,1
0.6252215769477417,-0.10830003305023214,-0.711001432330264,-0.06020289099658601,-0.003040041072400193,4.1325037130519675,28.865896,0.15859284300530016,53.93832400768147,25.70374988948119,21.600755663815967,-9.059577041273835,0.8319200000000002,35.70999999999999,1
0.6226630720778454,-0.10648692570571722,-0.7119298436302895,-0.016220401617109702,-0.0024928030467359593,4.128968953125391,28.868431,-1.1659402836853627,53.834523862717646,25.861143990194662,21.40570961724969,12.907018493578198,0.8306380000000007,35.71,1
0.6273682232403726,-0.107287717153931,-0.708937309975219,0.09337266006750725,-0.0026225635231670527,4.126620694271996,28.866753,-2.056755015762585,53.98703341306442,25.809731829021246,21.833947834097245,10.44059190229612,0.8267949999999998,35.710000000000015,1
0.6248563947151625,-0.10596638888055104,-0.7111120958190273,-0.10138620411538367,-0.0026231033310895454,4.124344662434746,28.862587,-2.285998540556988,53.65159962758692,25.75742223113779,21.416655418843753,-24.23449278709887,0.8255130000000003,35.709999999999994,1
0.6272327387467482,-0.10653661594304868,-0.7108156362785737,0.04530614590033521,-0.0026666149864161643,4.119767159110471,28.863678,-2.050555852407118,54.007462583680386,25.909592390285926,21.77824876679638,19.15028916086141,0.8229499999999998,35.71000000000002,1
0.6269882240256538,-0.10727191441527101,-0.7090067258389616,0.05503310089565884,-0.002432992289701218,4.11632379659765,28.858519,-1.7128044911679046,53.78462090283338,25.944743082727058,21.386849034487867,-23.22517419119273,0.8203880000000009,35.680000000000085,1
0.6236125935056681,-0.11122655338469657,-0.7103527785931236,-0.04838676729143419,-0.002551679031632576,4.112775118774132,28.857918,-0.8847625820000198,53.82243642879809,25.75812422358303,21.728191414820532,13.174625504509919,0.821669,35.67999999999999,1
0.6195882128185728,-0.11110415174609428,-0.7144224299566851,-0.06048467564751868,-0.00269783984965528,4.1081121938645815,28.858622,0.42112559828257834,53.605793899372635,25.798580072827598,21.429000477381216,15.007984408823733,0.8191070000000011,35.68000000000001,1
0.6203818312961497,-0.1134220601850499,-0.7119956896321975,0.08207393000974228,-0.0027480510568786264,4.104956766910636,28.860226,1.394356778260091,53.81889529650963,25.874865225219462,21.68109243376639,-5.4348087555832905,0.8178250000000001,35.68000000000001,1
0.6211352411244762,-0.11081815495202932,-0.7138371686894034,0.019187827465115336,-0.002837678386299,4.101578398032293,28.859177,1.8613170470987532,53.83214785097747,25.86075696483844,21.055370756778064,29.99421199054331,0.8165440000000006,35.710000000000036,1
0.6223549464342041,-0.10927684238689027,-0.7130144084928427,-0.05967283215263774,-0.0027777178159446576,4.097214188013541,28.856607,1.5498102810147414,54.11187971826106,26.055572869848213,21.861392751892087,25.866188877092636,0.8139810000000001,35.70999999999997,1
0.6246064871018399,-0.10686528160458708,-0.7118389524012355,0.011992182021712759,-0.002750615570882508,4.09378052375979,28.855892,0.4611332996207395,53.917328936355425,25.785665860961174,21.247499811703083,-8.7142043888818,0.8127,35.710000000000015,1
0.6269035164564826,-0.10794891901575318,-0.7078850496707519,0.08522677649742333,-0.002302336025193025,4.092570398501002,28.855429,-0.6757305526190313,53.897067979742964,26.25021491877351,21.97419096673106,7.6956643410526295,0.8126999999999994,35.709999999999994,1
0.6197555526612031,-0.10722383351800241,-0.7146825254693533,-0.0241446231902624,-0.0030489532565797705,4.091766022588216,28.849218,-1.4068557578930407,54.69004649509903,29.11149484866486,20.48744699547512,32.320611054222816,0.8114190000000002,35.709999999999944,1
0.614546133296575,-0.11385689375020569,-0.7196438948405267,-0.07654857521696583,-0.0026396289294775186,4.089134826194196,28.848541,-1.7805411272633436,50.581040043134536,29.90725873396746,21.951031841631792,-0.32604518067861527,0.8088560000000001,35.710000000000015,1
0.6203766459679825,-0.10523471736178289,-0.7173691261387514,0.02940275203011705,-0.0025403514018882576,4.085733593362692,28.850033,-2.032693109497532,45.74837883191706,27.137883129105568,26.553909403268268,-8.861547140994047,0.8062930000000003,35.709999999999994,1
0.6208156120151452,-0.10696814946182592,-0.7163879986609939,0.034537122088655295,-0.0028703485600374474,4.083252746879046,28.851166,-1.978659414712711,52.01171190776066,31.185888897788452,24.41476245330816,14.430933914570343,0.8062930000000004,35.71,1
0.6185516154262733,-0.11413795394313636,-0.713408525551689,-0.05876704579937795,-0.0024543906302518107,4.0784973447132415,28.849062,-1.1537810397054182,52.168742765470526,28.13014179186312,25.398200615211508,25.458696464813052,0.8101370000000003,35.710000000000036,1
0.6172407028680487,-0.11024630361932343,-0.717945842270966,-0.046217708733172755,-0.002772471092546529,4.073443638794388,28.848337,0.4695615173616853,51.053044005741576,26.550846182061324,26.31838286512299,-1.083370229407996,0.8062930000000001,35.71000000000001,1
0.6162183224796117,-0.11061506104090243,-0.7163008577617722,0.07239994336736187,-0.002380650798789387,4.069632245939244,28.852743,1.9389299366918482,51.25672193601199,27.67321357636729,25.403414391471674,11.916669183716225,0.8050119999999997,35.71,1
0.6169178429706604,-0.11188224476783534,-0.7161579394848135,0.025689853815262696,-0.0026576604737838534,4.066463741151606,28.848946,2.744451275758485,51.20684096752281,27.15916418584197,26.14931441360418,-38.0192710620976,0.8024489999999999,35.70999999999999,1
0.6164502329652101,-0.11005458357192406,-0.7185792585972721,-0.04228192007486857,-0.002566876144047246,4.062358601963471,28.849033,2.7527477411950163,51.09824862079757,27.43456522929292,25.16289567635051,-17.629255391145257,0.7998870000000003,35.660000000000004,1
0.6171868844256575,-0.10854498795664562,-0.7190919485053284,-0.0031836348951444107,-0.0026949326361992935,4.058515897292607,28.849184,1.8413411082459414,51.95261495643841,27.466303044194664,26.378132913429443,5.088881823216289,0.7986050000000001,35.65999999999999,1
0.6177523596876235,-0.10765154307223045,-0.7155121763565198,0.07527175044518876,-0.0023236055445591073,4.054264475745938,28.84866,0.5259593406488334,50.34341855565744,27.663463299185622,25.4828091282403,-9.96245052727667,0.7986050000000003,35.660000000000025,1
0.6163761470053578,-0.10147622779566025,-0.7203020585566834,-0.0392811026915736,-0.002897049909473018,4.053683781711601,28.847994,-0.6484036736691984,53.41168574168385,32.10683660696956,33.00296598949611,6.210404778408368,0.7973239999999999,35.660000000000004,1
0.6183742644910519,-0.09849046903414971,-0.7246617005855963,-0.09281918878983562,-0.0024730092334299485,4.051546077684094,28.845993,-1.5745198976241785,38.50015384723442,30.811798982330277,32.222979162289974,0.9705564120007109,0.7960429999999996,35.679999999999964,1
0.6095800372023442,-0.09819886835225859,-0.7253271287674302,0.048608288774534776,-0.002383693232019204,4.048889637961465,28.842768,-2.08575084645249,30.193036718611463,35.53360966932983,42.209690442822634,-11.092010052012869,0.8050119999999996,35.67999999999998,1
0.6114790655700612,-0.0953976815363423,-0.7244614001348549,0.024806004157323785,-0.002782135824231763,4.047562267470173,28.842827,-1.7771488468032772,38.25626955608369,39.974784792461314,30.135707927914915,16.046588001090484,0.8203880000000006,35.679999999999986,1
0.6084048914210488,-0.10139288522004851,-0.7253684592636268,-0.059406444306631036,-0.0028458559713904733,4.045680562480072,28.846434,-0.3534524607144139,46.3343303668693,36.98836576619565,20.956048351074834,37.30937585308389,0.8191070000000004,35.680000000000035,1
0.6066361789729238,-0.09838662713040831,-0.7250478821802139,-0.028669733615174355,-0.00271698316650099,4.039938845307236,28.850365,1.3305095606357389,48.981679048377686,37.190439669479616,17.68721864647488,38.84321024298215,0.8050120000000001,35.67999999999999,1
0.6075633035785541,-0.09998870313437916,-0.726420099816053,0.11084076595500576,-0.0029015671414383956,4.037651935070524,28.849533,2.311656616889245,49.28144005067861,35.727527562078635,14.584498300700467,-54.72919311200324,0.7921989999999998,35.679999999999964,1
0.6113763498082686,-0.09511033768573478,-0.7263221172336866,0.018259569891921828,-0.003002999301792788,4.033084641504018,28.849918,2.0956588177457536,52.91869009347134,37.46145443300452,12.61238690744542,10.966641565365078,0.7755410000000003,35.68000000000002,1
0.6094769134992232,-0.09829394644730201,-0.7254281105132654,-0.0762186036452474,-0.0028230748226655065,4.029594479874683,28.853758,0.8821075295523804,43.359203569413495,37.31035196328553,20.281288071657016,75.39812690126168,0.764009,35.67999999999997,1
0.6140202003321014,-0.09345675532778358,-0.7214500143385755,0.03789485899026549,-0.002514756291213901,4.027090276405049,28.852665,-0.5072928355061299,46.07104799080662,34.354887065026126,27.887541813769914,-16.663715404062895,0.7576029999999996,35.660000000000004,1
0.6163572697025226,-0.09305047457019551,-0.7205656624761575,0.05488761660271054,-0.0025507273695625876,4.023568076674441,28.85436,-1.521090690883606,48.07311148308448,35.011439351588,21.468993015754542,5.931225212468769,0.7691349999999991,35.65999999999994,1
0.6220736614500134,-0.08819933784891114,-0.7167239773881554,-0.03268043372987856,-0.002894722661556859,4.019782233382517,28.853956,-1.8507234901821026,47.36083978213579,34.47160923514972,26.365954462471805,26.63237548116705,0.7665719999999996,35.659999999999975,1
0.6224182598428314,-0.09809181023657493,-0.7154350099596588,-0.08908691993783568,-0.002942619339368167,4.0182571543394445,28.84899,-1.7131146580185341,40.70665390718232,31.8548805716506,35.601535737624495,-69.60508723605666,0.766572,35.660000000000025,1
0.623773830328539,-0.10182511786144884,-0.7114980940640713,0.076401883609168,-0.0026296861609314036,4.011445920883179,28.851755,-1.2657210547427242,40.98626891049239,30.055515241886845,39.96441068703004,-101.35710424686646,0.7716970000000001,35.70999999999999,1
0.62512240508435,-0.09803078240279167,-0.7117009808200024,0.018986963414268438,-0.0027879298311304854,4.010588726697253,28.842676,-0.07422229897613315,38.91477158470816,28.085733249930367,38.66877664878954,89.59919940265236,0.7742599999999995,35.70999999999999,1
0.6173174327089851,-0.10489366442849694,-0.7162386360490399,-0.03827134385407519,-0.0023933726651105933,4.007328734266723,28.844135,1.5656776608741994,41.8725741321041,29.434158391339714,38.57347168365834,-62.45856419460396,0.7857919999999998,35.70999999999997,1
0.6165437936191799,-0.10885163388890998,-0.7155144784086334,-0.05044245362527802,-0.003348985864022017,4.001808855946286,28.84369,3.0068009867996315,41.74921782962288,27.308541331535388,38.632323830410364,-20.570848794535422,0.783229,35.71000000000002,1
0.6205789185852122,-0.10557997451820286,-0.7162937348425293,0.13819304265098117,-0.0028948153336711612,3.995973213169315,28.840773,3.658696805467186,43.23340432725597,27.233135002161077,38.77854932258025,-124.79773943171882,0.7806669999999997,35.71000000000003,1
0.62282385338042,-0.10228696719225269,-0.7133779611388004,-0.03737702752650129,-0.002908354349849286,3.993353153978865,28.837929,2.9721750501329747,41.97715449023041,26.796934742131782,38.562872957219206,39.942150167221875,0.7793850000000004,35.710000000000015,1
0.6242529002430567,-0.10159724936972918,-0.7123662502319342,-0.054342219173261076,-0.0026833569613243877,3.9898587720132106,28.835257,1.5140209035212062,44.15723374637714,27.073547582088043,36.923267066709805,58.547819143012994,0.7768229999999998,35.71000000000002,1
0.6257765837538882,-0.10257688021446197,-0.7100425425885956,0.03727687461150872,-0.0026901397294488497,3.9865942649516404,28.834414,0.03344508216112558,44.50611973614915,26.91089559345491,35.63365437763634,-50.816511535220904,0.7755410000000003,35.71,1
0.6260456114661438,-0.1006003339996195,-0.7097612596345287,0.06660879408102861,-0.0031177690667435897,3.9832238820378154,28.830193,-1.0610275928489077,45.29584171347154,27.05800712549735,35.16597750716462,-31.816815372546767,0.7716970000000005,35.680000000000014,1
0.6248971510323467,-0.10191551592093309,-0.710241128796228,-0.08959170040332565,-0.0026848348757533658,3.98181718200906,28.82914,-1.46636131851263,45.50769355628096,26.949922057472968,34.84342973964116,22.041617822209407,0.7691349999999999,35.67999999999995,1
0.6246546214052885,-0.1006426709280843,-0.7112971623596073,-0.018756855441891224,-0.002990286542013368,3.9754769595244372,28.830019,-1.5613781106345899,46.126497709565015,27.05261973955696,34.89260715545296,39.309108828500975,0.7678530000000005,35.68000000000002,1
0.6266367218372338,-0.10124619401651595,-0.7108834241763254,0.07596352285793509,-0.0024238010645296192,3.975061580795425,28.829325,-1.4410158734837004,46.08410078265316,26.504578430750595,34.095782764823525,49.76567617665231,0.7678530000000005,35.680000000000014,1
0.6264640832088949,-0.10202655033490077,-0.7084035777332038,-0.001064053135965687,-0.002775541870928737,3.9708210707729514,28.824997,-1.1568107471814009,46.55583091055831,26.438174940197623,34.49504347114221,-9.813449956180678,0.767853,35.680000000000014,1
0.6233155645842556,-0.10377685810800145,-0.7130311677936569,-0.09956155378640728,-0.002958600527414477,3.96759004370915,28.824291,-0.3708960459923735,46.243568820965976,26.42552489143234,33.82995621447086,5.01507357772554,0.7665720000000005,35.68000000000002,1
0.620541568595657,-0.10417187536728134,-0.7129291187875997,0.02624699475762088,-0.0028706313826238152,3.9628721582683655,28.825106,0.5934200371245161,46.54095647059525,26.483571350063663,34.16403340049541,-27.981694369539472,0.764009,35.67999999999999,1
0.6217091902608988,-0.10446826988622998,-0.7122463930101177,0.07359945648338323,-0.0025884181631849966,3.960646133635459,28.823881,1.3364980183659418,46.23069937745179,26.463614759881622,33.83923116668967,18.964370745522338,0.762728000000001,35.68000000000001,1
0.6221315186444415,-0.10334202489002778,-0.7137896908434334,-0.05803674159049615,-0.002376758192781248,3.957681641049062,28.822495,1.565331476851313,46.636582051114246,26.648741335610815,34.16413242983702,19.602760172363404,0.760165,35.71,1
0.6233124734918549,-0.10246506728183824,-0.7129146674406945,-0.032929852882769124,-0.00314462610368045,3.957594767928451,28.817202,0.9610676360230861,46.235451564894014,26.408565978118624,33.820074309024115,0.486342403313883,0.7614470000000001,35.710000000000015,1
0.6256081744292898,-0.10113522731435808,-0.7112523909587596,0.08460677303620925,-0.0030535683482690095,3.95696405735058,28.819223,-0.14984105108940232,46.561541642529534,26.262188517696387,34.25317665671327,-28.754722429078623,0.7588839999999999,35.71,1
0.6254507157086904,-0.10169583886926976,-0.7103996354928026,0.008567243230717154,-0.0025160261272522775,3.9587129178736897,28.815607,-0.9846121305023723,46.1588904759807,26.337523302935995,33.77646715637669,25.88351447747966,0.7588840000000004,35.710000000000015,1
0.6248545950539199,-0.10134412350663076,-0.711419506012297,-0.09606838771658954,-0.002481443542487386,3.9577936531575877,28.817745,-1.3949403147287662,47.35263462623878,26.44759145090721,33.118668114667976,7.486980926095585,0.7563209999999998,35.65999999999999,1
0.6252727604925646,-0.10150229218767373,-0.7114397197674984,0.035505003065712776,-0.002544508298184661,3.9557704768735618,28.814182,-1.3811903632304547,48.76903347345719,26.06308553654002,29.956100203256447,-11.801363356411787,0.7550400000000003,35.65999999999999,1
0.6279577035845781,-0.10109473160456654,-0.7093433414772125,0.06437808276241154,-0.0028192550927612697,3.9544941838126606,28.818527,-1.2008025027165434,51.7994578122023,26.00029110525883,26.2896365696528,-3.5650666927042027,0.7537589999999996,35.65999999999998,1
0.626256482952084,-0.1027806602794325,-0.7086700700781728,-0.04887029545982547,-0.002876890437462085,3.9539961569469146,28.814573,-0.7744859330925715,52.2747933832033,25.46061927410366,25.855172667429922,31.353920160944565,0.7511959999999996,35.659999999999975,1
0.6232310495872603,-0.10366438946152175,-0.7122957235579472,-0.06743201271285042,-0.0026645429639530873,3.949176182782646,28.812048,0.032147044338728434,52.087974913799954,25.09220135131345,25.79903901487446,-12.58034199473837,0.7473520000000002,35.71,1
0.6220036762952622,-0.1053105328085267,-0.7132982186310783,0.08830523406993018,-0.0029087783321153932,3.9477233574016255,28.81243,0.8877818525517034,52.1433729250122,25.04839348811986,25.521636846860012,-9.696238193623945,0.7460710000000005,35.71,1
0.6217563171628372,-0.10521682713114537,-0.7111882207478196,0.01974104874637602,-0.0026281632438069275,3.945822334923891,28.810457,1.6583473239293849,52.52484166365509,24.89133784181697,25.993283413397698,14.293331974472917,0.7460710000000004,35.710000000000015,1
0.6196307894148257,-0.1054238857410361,-0.715299354384934,-0.04855414503285219,-0.0029681378583720427,3.942716440600358,28.813906,2.1268179332085277,51.9437008853112,25.13105513193962,25.47347360419925,4.410033862092072,0.7435079999999995,35.710000000000015,1
0.6213479482511487,-0.10318206106962935,-0.7163968250224724,0.025790630535222632,-0.0025883842734296977,3.9392604989222333,28.807762,1.7579728864218178,52.5534222549853,24.98531355200716,25.66278537977705,-23.446549051981236,0.7422270000000004,35.710000000000036,1
0.6243309036777819,-0.10335133383678234,-0.7121340426813084,0.07741795726101461,-0.002474539548014473,3.9375624219425007,28.807287,0.48436316044627226,52.54949579642362,25.006331398617792,25.46452049409369,25.82711907969058,0.7383830000000009,35.71000000000003,1
0.6245334526054064,-0.10259092140943275,-0.7113178704917476,-0.03636405123407227,-0.0030844167693696947,3.9359151622639987,28.806553,-0.7425845810199811,52.54458363060859,24.996016185173076,25.721869286997098,22.19738737125562,0.738383,35.709999999999944,1
0.6241620000567988,-0.10260867571595018,-0.7124779372194278,-0.08291206009284191,-0.0028411862013694718,3.9330376619071674,28.80493,-1.352360958410135,52.08853096122797,25.00360590058957,25.169623491119346,-14.440835115934721,0.7371010000000001,35.71000000000002,1
0.6247997000522483,-0.10177054956446907,-0.7112328428300343,0.06263766300265868,-0.0027057616144637716,3.9305132872167023,28.802952,-1.546164678271212,52.6455758996586,24.995844264475775,25.335270826957405,-25.982336582764137,0.7345390000000002,35.71,1
0.6254624777007393,-0.10199870434098775,-0.7107945532209688,0.03533122139960963,-0.002373033662626151,3.928844999906433,28.801498,-1.5520344337916931,52.33841551848451,25.00525397975749,25.3906367795578,15.497109934204559,0.7332570000000002,35.71000000000001,1
0.6245161493301933,-0.10126669880702699,-0.71144503726097,-0.04517264269751172,-0.003039760958813325,3.9260436474826057,28.802414,-1.2469319053309,52.42378695479019,24.99323331564696,25.44608292039491,13.143723647776214,0.731976,35.71,1
0.6239512147950247,-0.10269095088899834,-0.7127752022674702,-0.06881074962875983,-0.0028015879655956884,3.9217065103582973,28.796127,-0.7825254971345383,52.285514715798904,25.00871183339988,25.326335705885725,-12.918272775862471,0.7294130000000002,35.70999999999999,1
0.6253568133366354,-0.10179701300362004,-0.7119200732884118,0.09681654047989707,-0.0025931000155711885,3.9179489034015944,28.795849,-0.604768143021572,52.66799532547278,24.98868763879509,25.375042720248963,-18.52002731131511,0.7268510000000002,35.70999999999999,1
0.6244732866829311,-0.10405735366010692,-0.710496768417945,0.0033734527871517096,-0.002536447101053029,3.914999704500955,28.7951,-0.29062142628919024,52.2176728998984,25.015367905480982,25.4969278887614,28.134978344576336,0.7255689999999997,35.71,1
0.6211182619060259,-0.10494520646898041,-0.713577128768219,-0.04984679842815859,-0.002637014896319654,3.913319431367867,28.792042,0.6123047900859531,52.40081760295163,24.97531819375925,25.622603615824698,5.686806601084734,0.7242879999999994,35.709999999999994,1
0.6182310542617574,-0.10587805104273978,-0.7146802231745917,-0.04728143570098023,-0.0023116676933651738,3.9085653689151547,28.792856,1.6284319517036632,51.97718717211115,25.11130046112496,25.338097182531236,-17.144132465159483,0.721725,35.709999999999994,1
0.6196574560894794,-0.1056574028661362,-0.7138676800694852,0.1276256341906835,-0.00272790810961013,3.906490006739985,28.788425,2.2984948676145827,52.09190926374252,25.057008014011554,25.051710061336937,-7.0413132721861516,0.723007,35.71000000000001,1
0.6205843309108537,-0.10428542303151453,-0.7157111491339603,-0.030590866845234196,-0.0028698953005505015,3.903596061462501,28.785927,2.342063517426826,52.09443053727326,25.119427884917247,25.293023098019038,26.33351236640409,0.7191629999999994,35.709999999999994,1
0.6213522801805819,-0.10348251573267725,-0.7149690010036466,-0.049343411644885274,-0.0031647789949739336,3.898111978254147,28.788588,1.599294208296136,52.43999141928697,24.953800774237898,25.26758744032246,0.1365330468080528,0.7178810000000001,35.71000000000002,1
0.6236935235952288,-0.10236792127276023,-0.7138893573747753,0.019360931516809086,-0.0028454147709545997,3.8971692303990313,28.787086,0.34871856947428165,52.03569385612446,25.1082845464875,25.497522354006556,-14.070854168157751,0.7178809999999994,35.709999999999965,1
0.6238331410835783,-0.10260238166742637,-0.7114145068776712,0.08160491602003968,-0.002898574315173709,3.8943450020453585,28.78192,-0.8796278545979499,52.28316821664363,25.059523336368773,25.286568868742158,-6.7486232254893155,0.7153189999999997,35.73,1
0.6236223651104688,-0.10228171186128758,-0.7116968816416516,-0.07537721316200584,-0.0031614419651634367,3.892671301329273,28.78401,-1.2988825099025814,51.938481730672486,25.239859838774198,25.17350795704638,27.065394851236924,0.7140369999999998,35.729999999999976,1
0.6231493086368894,-0.10158359792306731,-0.7123809102436643,-0.0468398355666693,-0.002505567918770004,3.8872070043823563,28.78365,-1.2896769764331482,52.20605501824997,24.986765387688347,25.52246682146467,-15.688746274321172,0.7127559999999997,35.72999999999998,1
0.6244764780665439,-0.10230796375809606,-0.7116983834361572,0.05794021967599484,-0.0028331545517304743,3.885861897640983,28.784023,-1.1667514371052572,52.140583501986846,25.12896550542842,25.27521579664004,-7.227852020526712,0.7089119999999997,35.72999999999995,1
0.6249941033839101,-0.1014655546876535,-0.7120122618770526,0.05802212125323641,-0.002343173350497981,3.88416753415584,28.782167,-1.0643948809315797,52.09334185388803,25.078334552457,25.299764846071493,14.61938207656137,0.7076309999999996,35.70999999999999,1
0.6244230858652855,-0.10165076385934696,-0.7126015051680069,-0.07683860570349578,-0.0029641188927769387,3.8826403961252587,28.7831,-0.8372529474047798,52.212129076415565,25.1191279840203,25.39852975805656,14.91598810914854,0.706349,35.709999999999965,1
0.6239577472029902,-0.10185176138171985,-0.7121618465021363,-0.03125053286390403,-0.002490302826572578,3.877935215198317,28.776905,-0.5043327511392767,52.517458431998726,25.07446818820061,25.302421434975162,-28.04933483827533,0.7037869999999992,35.710000000000015,1
0.6246612747018314,-0.10366732470460334,-0.7110857157923851,0.08153702104526162,-0.0026242990316732457,3.8752888861719157,28.779118,0.01578310258200737,52.15952535889163,25.060610568695076,25.338006461743767,-2.6833353427335958,0.7025049999999999,35.70999999999998,1
0.622995259557893,-0.1039170006339051,-0.7126284253236116,0.010860472035079172,-0.002724845251000481,3.872824889556223,28.778091,0.637171062285148,52.42844457693278,25.311656786679332,25.378264167629926,15.389151873927046,0.7037869999999999,35.70999999999996,1
0.620370820296318,-0.10519392897567889,-0.7143060881925698,-0.08027788096047504,-0.0024749237487296173,3.8685104917732795,28.777464,1.3332218600099042,51.785736504781774,25.670142883530772,25.38726601479931,9.736977361809844,0.7012240000000003,35.71,1
0.6189876086409374,-0.1043572955820138,-0.713691027911359,0.010298484155328625,-0.00256612511749457,3.8657086465064965,28.777388,1.9083632984698693,52.3017099588423,25.042349956733613,25.548307247155975,-22.02407065053026,0.6986610000000001,35.710000000000015,1
0.6216807699243647,-0.10380710981381928,-0.7158867426193295,0.09730631572051243,-0.0028032328146932513,3.861125239142416,28.77587,1.959908966084251,52.26059303211228,25.2727730295017,25.2943191267887,3.298328703072168,0.6986609999999996,35.70999999999998,1
0.6216322469803292,-0.10325856525996181,-0.713917447218217,-0.046637277737250904,-0.00271281941682162,3.8598249536814704,28.77737,1.2559332934585663,52.30163449032496,25.144742236121008,25.624100983903944,12.209550359910612,0.6960990000000001,35.71000000000003,1
0.6221454780581356,-0.10202841655000618,-0.7138577714285183,-0.0665350607663761,-0.002587805492342905,3.855715020722866,28.77776,0.1851455673087208,51.74482064178457,25.17208502332489,25.33763388275182,-3.957320289037663,0.6948169999999995,35.70999999999996,1
0.623459342367477,-0.10224978073087325,-0.7128104977973213,0.07602875750307102,-0.0028330987105425727,3.8525402777877344,28.776348,-0.6851051335268182,52.57604328262992,25.17155158964553,25.095797647240484,-25.423272876051964,0.6935359999999993,35.7099999999999,1
0.623714808705646,-0.10207520562394462,-0.7125694345529131,0.03354217120544603,-0.0031541505325284737,3.8518086161274026,28.773613,-1.0756609714751706,52.05131894526042,25.424659460766954,25.02433666683045,13.858010329941742,0.6948169999999998,35.70999999999994,1
0.6224590606736831,-0.1015400346111441,-0.712186639022255,-0.08977358990372691,-0.002918106347326648,3.848359126880438,28.77506,-1.145337039699432,52.36080788297676,25.05384119238603,25.137685581806256,14.099148288532051,0.6909730000000001,35.72999999999998,1
0.6230890655034443,-0.101948564055869,-0.7143255691714188,0.0026198221578922058,-0.0026258088543390148,3.845452698931629,28.770689,-1.0097887757384096,51.89677034906906,25.09625751835331,25.087358316906638,-15.487448091899978,0.6884109999999999,35.72999999999997,1
0.6255301798486947,-0.10179038153932725,-0.7119282776063234,0.09298579652597033,-0.0022896868979906193,3.842062344604264,28.771702,-0.7258555409190444,52.572282159574414,25.02516214873714,25.10255204261737,-15.668640633167799,0.687129,35.730000000000004,1
0.6231014178593169,-0.10380902893458664,-0.7114201124721717,-0.07596474806903154,-0.002622686242111679,3.8425322654724026,28.769947,-0.2963500176309497,51.87613337886265,25.45666934651562,25.189860552113203,24.06892441278179,0.6858479999999998,35.72999999999999,1
0.6200875434800454,-0.10528539595081608,-0.7148131949043588,-0.06239252218731772,-0.0025313139110828536,3.8390045870499425,28.77213,0.44158645366664506,52.69869918920982,25.02911849617593,25.11850578089135,-4.639032049397499,0.6832849999999997,35.73,1
0.6195376746040335,-0.105682094811447,-0.7141492321040982,0.08881286770653239,-0.002751271706665086,3.8363212537144067,28.770334,1.2872080455522985,51.728790189878154,25.433636306206854,25.19662603083632,-17.70486592074576,0.6820039999999992,35.729999999999976,1
0.6182788682652789,-0.10584359634717588,-0.714388019563,-0.010148736020575295,-0.002836883985894818,3.8347861886779295,28.774082,1.9296571566873246,52.6445187669297,24.97770157711607,24.985614167771633,3.0895369250138986,0.6820039999999999,35.730000000000004,1
0.618060265091437,-0.10388224394708412,-0.7184890534477759,-0.06632260333513072,-0.002623451243238519,3.829888729116889,28.769032,2.1340377728519093,51.67327043660164,25.794753064224693,25.445277302190878,19.01912914181287,0.6820039999999999,35.72999999999998,1
0.6196895015769402,-0.10515438976819416,-0.7161332452511919,0.11254062526313006,-0.002326861293304012,3.8268773337595343,28.769787,1.3758351972955927,54.321313791854706,26.501262160206593,25.83384843329825,-24.768773622630846,0.6832850000000001,35.750000000000014,1
0.6201800788194914,-0.09871455325419977,-0.7180029030716845,-0.008822297452070313,-0.002814872609008223,3.8267578656820707,28.769526,0.028119416764009503,46.4999058019316,31.334706826918513,31.485975940090878,-1.6889296464646837,0.6794409999999996,35.74999999999999,1
0.6117935373033487,-0.09520944617771257,-0.7220621603258242,-0.08234973127521292,-0.0028706443480085424,3.8238927706595516,28.768217,-1.2245125583980412,42.29568807557995,34.21217050167108,33.86293560257212,17.933229765223146,0.6807230000000001,35.75000000000001,1
0.616065778482883,-0.10415610177666244,-0.7238727205837531,0.07286389498170963,-0.002751975602615297,3.82312568395798,28.768682,-2.190929330883608,39.05106205687251,32.67448600132552,36.15810619613753,2.851186569241455,0.6845669999999994,35.749999999999986,1
0.614545710500742,-0.09037383739980863,-0.7225082403601738,0.00631667753979577,-0.002589511174770334,3.823348521944735,28.76774,-2.68161427738694,32.41956745516071,32.40487830162064,40.30618982320948,1.3615378269663194,0.7025049999999996,35.729999999999976,1
0.604685486169464,-0.09623547923216315,-0.7308118076159322,-0.1330436207773705,-0.002679018885444287,3.8217165612974218,28.765793,-2.1729572251914715,24.55514912543892,37.712378022913136,43.16972406163907,25.794921622654435,0.7076310000000001,35.729999999999976,1
0.5999218622019636,-0.10530947730996634,-0.7305220530391016,0.07707093596218079,-0.002888351332910864,3.824048988848777,28.764704,-0.4528395757783704,27.158632411910798,39.29129740371057,41.26507216255164,36.14233146273765,0.7153189999999997,35.73,1
0.6038648689748596,-0.09654927765887089,-0.7285543381247418,0.03827000912568224,-0.002901561535752647,3.8227777718868095,28.769787,1.4368379138655776,39.454511738330595,37.7914213354862,32.41609674859337,-10.859422873078472,0.7178810000000005,35.73000000000002,1
0.6044228104466648,-0.09811285754860452,-0.7322469453811237,-0.02359364251647768,-0.002746008879936515,3.8199502936548755,28.772692,2.488020880287165,37.55649459453385,34.63151016779583,36.08078076341108,35.3656461356743,0.7204440000000006,35.73000000000002,1
0.6144493261626078,-0.09431678211017505,-0.7246448106037007,0.03527103122014091,-0.0026679447283928684,3.8157670979606966,28.768675,1.7818554894959,39.81062348714277,33.41402759661528,32.9538944931435,23.16994839691149,0.7114750000000004,35.73000000000003,1
