chest_ACC_1,chest_ACC_2,chest_ACC_3,chest_ECG_1,chest_EMG_1,chest_EDA_1,chest_TEMP_1,chest_RESP_1,wrist_ACC_1,wrist_ACC_2,wrist_ACC_3,wrist_BVP_1,wrist_EDA_1,wrist_TEMP_1,label
0.7720841941441111,-0.031950740629362914,0.5152559728139083,-0.12467134656687902,-0.0025477314386718117,7.226581340875636,33.032875,12.76531108440837,-58.70969978682899,-14.492211251899432,22.215299681874644,-22.676099432140855,6.553086999999997,32.649999999999984,1
0.7714599884712721,-0.05984423906792818,0.5370613007935948,0.17744613362053535,-0.002582206021295587,7.253408174343837,33.034733,10.901876627276463,-67.68183187508222,-17.754447690121356,23.817390504564283,22.700298787045096,6.556931,32.649999999999984,1
0.7645150287703213,-0.02500647611947491,0.5481531585107619,-0.10475802424775478,-0.003231390460974053,7.275760507559313,33.01918,7.0116550634292665,-64.43985040362995,-5.669094271893483,14.23573509074572,3.975191653792242,6.587680999999997,32.649999999999984,1
0.7845115008559873,0.04568464771299414,0.4565872925154942,-0.13385801440235406,-0.003146593835846121,7.252394488610814,33.02395,3.00575618120008,-42.13813754380597,-30.405147812324476,17.305601644133976,0.6348609100310556,6.601775,32.649999999999984,1
0.8701202464479122,0.07600688924623449,0.26414406893471704,0.11986844483914648,-0.00346719513779788,7.222702958390047,33.008175,-1.827294538003109,-32.99632635304324,-48.68242222144803,-3.999447521310119,-25.175873785233424,6.528742999999999,32.64999999999999,1
0.8925485422296158,0.015469384960437364,0.08882777128730379,0.045462118421722035,-0.0030167289770682724,7.195101092216967,33.011364,-7.257115312259694,-43.944502948326964,-43.64333939787145,18.666038228031187,51.79582604135869,6.335273999999999,32.64999999999999,1
0.8998792460958016,0.04348101238480346,-0.05768476644843741,-0.13978628022651834,-0.003595352570482903,7.203164397391741,32.993538,-11.211005937713283,-35.192498044216386,-30.150264266878732,46.66724856404295,-67.54779332318869,6.352516,32.65000000000002,1
0.9083820619262555,0.032593903226093686,-0.12454463760261977,-0.03338955906504101,-0.004130919493067195,7.244910940778032,32.998188,-13.112801328720574,-54.095361832481466,-15.425154808943596,30.629180204118164,-3.968683510200966,6.627985,32.65000000000002,1
0.8940564820897079,0.008860430026522642,-0.19612596104003083,0.1751536568468945,-0.0031637698407367396,7.257495698208026,32.982628,-13.335175703497477,-72.18659741572165,-10.611455165669858,-10.627367874521564,50.077018103411184,6.7714859999999994,32.65000000000002,1
0.8864021834386385,0.03859399701268202,-0.25486880187251937,0.10424167386857494,-0.0037273467903479133,7.263660508918969,32.984695,-11.93615900523611,-59.22738501319821,-7.962600900633923,-6.140514429547381,-23.12696287733509,6.3960789999999985,32.65000000000002,1
0.8609924085484022,0.023140853189575077,-0.28951900581802487,-0.07100088729903282,-0.0036654934710490116,7.233557548843139,32.96806,-5.556865237767337,-70.23734192303806,-9.364866236400918,-8.578129884267675,6.36107904890146,6.133421,32.62999999999999,1
0.881175762049441,0.02918489823998678,-0.2980046839708203,0.009386564329306239,-0.003271223845174679,7.258777542381926,32.97106,0.4516577575865851,-60.04712825276896,-10.045277555950733,1.0880076674717485,39.65708086902539,6.205172,32.62999999999999,1
0.8609541890128789,0.006573461498922329,-0.2901885457668037,0.12585476287149128,-0.002677999020316463,7.282633446119888,32.953205,4.758404867611046,-63.11771209002299,-1.8889508351218296,-6.305282283058343,-46.4559791679865,6.289733999999998,32.63,1
0.876384237949827,-0.031871157703002806,-0.31341537439320377,-0.03243226571561761,-0.003268093587017131,7.252179270684863,32.957844,8.970411786208588,-66.62722923903719,2.7580943869257646,-23.53436684224323,6.2425664658941935,6.205171999999999,32.63,1
0.8669880769510134,0.017531677895799246,-0.2878903004337888,-0.13261499688180947,-0.0035382191303407477,7.192571364780911,32.94176,11.522464304474372,-63.623217197951135,1.852723104997773,-14.976144113768862,-31.70483110153573,6.178265999999998,32.65,1
0.8729601477150444,0.04983228396007186,-0.29341445934432225,0.11770743046789134,-0.003766255376734077,7.173475145667346,32.945312,11.877495441868973,-62.432508893991496,0.3276994508040314,-16.37041685499706,1.1081654784572252,6.319202999999999,32.65,1
0.8534976401064968,0.051810088729604555,-0.31045163033817835,0.006025341976079651,-0.0034172941370695822,7.173160551077327,32.929485,10.799935216381925,-62.10095505668914,2.413824707756612,-19.476730933512417,-0.9555685056706708,6.535734999999999,32.65000000000001,1
0.86255034643539,0.06946119070511031,-0.29724121614693605,-0.13766311510545573,-0.003913152192031009,7.125728974373714,32.934803,11.292565736844853,-66.1816439996812,6.559841114581469,-13.66052816539847,-44.52262070283214,6.3704529999999995,32.65000000000001,1
0.8660332533641901,0.04304671689248425,-0.30139392505514867,0.1424030818218163,-0.0034329325939956613,7.117255498415578,32.920517,12.17343305990223,-60.6316018621414,5.719881916199194,-1.4313251558806332,6.0977287159870235,6.554953999999999,32.64999999999999,1
0.8599330527606802,0.025384011668073896,-0.3294472585383237,-0.011689099295287728,-0.0033594301962598387,7.096042001818166,32.92456,12.732926734092858,-67.08085417745185,5.660939070366735,-5.103091232653521,-60.871863596605564,6.492172999999999,32.64999999999999,1
0.8369177476889166,0.03289388799298399,-0.31634984015560524,-0.17988322980241275,-0.00282078555761509,7.031915768534232,32.905746,11.872165423050317,-64.9306699026907,8.257816949965408,-0.5491111680970647,117.62084169991776,6.221828000000002,32.649999999999984,1
0.8617250988179531,0.07677234374812598,-0.2948856277747568,0.1671683306808594,-0.002794784144323253,7.054535430077409,32.912277,8.989983984305903,-64.58072114481038,8.561896089739045,3.814599433663465,40.67314038586874,6.251297000000001,32.649999999999984,1
0.8875587678964726,0.04630603315399133,-0.2445183589020136,-0.012471258058978347,-0.0031037261309253546,7.14707084650613,32.895927,4.144805303507673,-66.18423575345379,6.0147407318954285,3.5884828386376824,21.423576529559735,6.371734999999999,32.63,1
0.8836598140249223,0.044672319910918266,-0.2431139658077082,-0.10749677554821117,-0.003444225560092595,7.203918304154811,32.902515,-1.8660510368383068,-63.67353044107116,-1.3603737723544227,-3.804815496287869,8.574840603072158,6.406329000000001,32.63,1
0.8804420101413898,0.02088036427491082,-0.254461863339569,0.10269242546791613,-0.0031332486208263234,7.267764780667146,32.887268,-7.993382661204401,-66.32025008986876,1.5952731063642478,3.908759542176311,7.210249622687113,6.374296999999998,32.63,1
0.8724084395903889,0.034701704804191415,-0.2764885413370264,0.01057823316374362,-0.003357029963953936,7.330436060730113,32.889393,-12.749741681750685,-66.56986692295304,2.3111940177777237,-3.2281560076829594,20.71343126239835,6.401203999999997,32.63,1
0.8706636901049742,0.014216734367293492,-0.2944183308407898,-0.13144392687918682,-0.0035571034452518964,7.386293534055298,32.87412,-15.185023288164807,-62.75504005694589,-4.117041574608799,16.23252095371169,3.210381014407483,6.469109999999998,32.610000000000014,1
0.8711398311556952,0.013302124113162372,-0.28896614648138136,0.03702508909926,-0.0029603161051782166,7.423611458603259,32.880226,-16.114125483539624,-43.0294685040043,8.62979893967646,46.11587837496184,29.99500512967901,6.444766000000002,32.610000000000014,1
0.8744513187130739,0.006092473920966586,-0.2865739186116811,0.08865054320354111,-0.003246883435746327,7.462123498156978,32.86295,-16.276745310457073,-47.31410413873072,9.730258429419544,42.36997740531309,-85.43186640277213,6.939329999999998,32.61000000000002,1
0.8627981225644005,0.01861219621536061,-0.3088465942048039,-0.06658087155108496,-0.004073135667440736,7.480137727971401,32.871742,-15.878236107675153,-36.53456803784181,28.926608609130042,44.541660104504956,-32.92491192164961,7.091214000000001,32.61000000000002,1
0.8680763412663204,0.04318325837422819,-0.29417447139334707,-0.0363800177166652,-0.0027153196781030797,7.487642442590487,32.853733,-15.856737015118004,-44.971105018308705,17.090142946619086,41.5373584506635,4.126219663371506,7.169370000000001,32.609999999999985,1
0.863974965928425,0.024194290345157476,-0.31080291283315803,0.04625039937932184,-0.0031571687283170943,7.493634447730977,32.862736,-16.1583152605286,-53.5382377727418,10.12626496424928,36.12054198277052,7.420123601565132,7.125806999999997,32.609999999999985,1
0.862231263231065,0.03860096493976844,-0.31224610184625406,0.1269158938027231,-0.0032318412567448615,7.505423942091432,32.848534,-16.131248790481845,-43.04836999892474,24.246485482394156,40.078027926174,-16.128284671656917,7.109150999999998,32.609999999999985,1
0.8654068803708762,0.04246744386615301,-0.30900448211221543,-0.03304763741124024,-0.003700889539040834,7.519303363165998,32.85288,-14.920050183363609,-58.87217670786922,24.161257399653305,18.32509188088615,23.231378714243462,7.148869999999997,32.609999999999985,1
0.8572491360467616,0.022413382887003622,-0.32205512241929696,-0.10179638843890533,-0.003826043443575452,7.515188559551023,32.842537,-12.244881430336704,-57.864051820802885,11.169404832145576,29.40466735675002,5.666491760956376,7.001526,32.629999999999995,1
0.8562316267198963,0.009572362932797545,-0.32904756265849067,-0.06716431808877732,-0.0037336809516333746,7.499416696384635,32.84666,-8.49800346350689,-44.74570957266327,7.572702178991074,43.28027771511145,6.329843179612735,7.069432000000001,32.629999999999995,1
0.8629403630948509,0.016133220490314838,-0.31762212151726305,0.058860256720915355,-0.0035398011187287373,7.500630323853158,32.83537,-5.116685720928484,-56.63360270066456,25.76632911977169,33.428324146471184,7.099757190478712,7.084806999999998,32.629999999999995,1
0.8608052517155358,0.03033270613271124,-0.31546264504011995,0.04160192138711587,-0.0039006170579689646,7.515328831715454,32.84374,-2.515336542408909,-24.48404707651085,18.57525726096593,53.27794449707736,-36.601982676203356,7.186025999999999,32.629999999999995,1
0.8618633853393991,0.019756448294569493,-0.3113794698937976,-0.13662436529811553,-0.0036052497199430367,7.510214571153755,32.82844,-0.4133675977583831,-34.40409485008639,10.809111669658641,48.735317241058745,18.77273458004698,6.913118999999996,32.62999999999999,1
0.8642121969731675,0.014637233048895065,-0.31782631129651007,-0.06644203447436839,-0.00363176033211959,7.49889735968645,32.83445,1.0239008968282508,-59.70979000001906,-10.165180176774196,31.476248256642158,-16.37419471757805,6.515931,32.62999999999999,1
0.8608004981933652,0.006496854862797354,-0.31972996646472,0.07567445680387451,-0.003111458936699465,7.49625490918925,32.81739,1.9750300571210668,-56.911802232555125,-13.648924768755611,20.409717725582308,18.249975437489116,6.374991999999999,32.62999999999999,1
0.8599555136433784,0.026212853349264997,-0.322757329969208,0.17057178075721063,-0.003082071460991684,7.49995444444008,32.82661,2.802947472588751,-63.208854185514205,-11.789423617546214,17.347535716595413,88.3320134489302,6.115484000000001,32.62999999999999,1
0.8586216996330779,0.012328755188394488,-0.3256785550656633,-0.03124841345360628,-0.0039064491159008325,7.516131454464997,32.81107,3.68796670099597,-61.661093489554105,-12.347462924617812,15.586269237868358,-86.30522257877622,6.097547000000001,32.650000000000006,1
0.8614193666130298,0.011856761944248723,-0.32428321145975625,-0.08435184534944981,-0.0031340532321617693,7.508482551052903,32.816963,4.427818451007825,-63.44824140515069,-13.652349053417487,12.671948688480757,-82.25095060719434,5.97839,32.650000000000006,1
0.8596829643825793,0.011862435641436147,-0.32688013330007504,0.029220916093789594,-0.003417017963174489,7.513375960345701,32.803467,5.045476750959398,-61.40364776131627,-11.049421354094958,15.668351092653026,18.76620357964867,6.502422999999998,32.65,1
0.8565448428764504,0.01832607539879478,-0.3330446721777627,0.13338440268477592,-0.003823385714248078,7.517951104962722,32.812027,5.580707055878481,-61.822038118803206,-12.685560418924917,16.511901484657912,38.86361187847141,6.437077999999999,32.65,1
0.8532421741929818,0.011044485564994804,-0.33942663952356705,0.04988560030986067,-0.003740415450938525,7.534439402701386,32.797527,6.0706562387969925,-60.60463215380278,-11.799281458345792,18.294842376147766,80.09849643860352,6.397359999999998,32.629999999999995,1
0.8523022192794053,0.01704122350558439,-0.34057069562820635,-0.15315082170530483,-0.0035199161456067377,7.534239624210008,32.807827,6.8456193151152265,-61.49220431907116,-13.645214265989246,17.002613383972296,-72.07482366962483,6.387109999999999,32.629999999999995,1
0.8577835393436272,0.013782856724241876,-0.33531122463157936,-0.06027202391830664,-0.0034826423962929735,7.53846477384956,32.790768,7.015589877686018,-60.63285466534785,-12.400664633847713,18.45036153853734,-71.30754073415422,6.378141,32.63,1
0.8573735311417321,0.017075569701949782,-0.33128480987469777,0.11540584271101675,-0.0033180416597712366,7.545939890511433,32.8004,6.2102832685012945,-61.543413296618,-13.65819932540111,16.888158124638203,60.506121099661264,6.3781409999999985,32.63,1
0.8589656693126079,0.012430078194469361,-0.32859651396893114,0.03866874091833276,-0.004082266525594454,7.563885671424248,32.78486,4.818614441868144,-60.35138964920582,-13.458789135896748,18.541653899072262,-23.850799397933844,6.367891,32.629999999999995,1
0.8583710017988468,0.017972752431474802,-0.32905630555932924,-0.0924514243775748,-0.003542520739345126,7.572167916576349,32.791695,3.664440189261117,-59.45774640533729,-14.441773956524267,20.724981918326254,-14.761210773754119,6.3563589999999985,32.629999999999995,1
0.8599777501064785,0.015146095853032908,-0.32588232833296976,-0.0191782449442043,-0.004095344503342226,7.571701997263864,32.779,2.8242019327275223,-59.5626747223311,-13.603587450135617,20.918504432643882,12.937469578842327,6.356359000000001,32.629999999999995,1
0.8584573336694656,0.016813181905103548,-0.327953149539345,0.04550529114311558,-0.003489858323711266,7.5806005851348255,32.787987,2.2420190975181247,-59.91164446616711,-14.356841445049252,20.63776728045346,9.558632047324,6.352515999999996,32.629999999999995,1
0.8589799570296671,0.014335028556368761,-0.3267188293916816,0.1306653804370927,-0.0035210969759957517,7.591509662244801,32.776493,1.9708009246771228,-59.44640180124285,-13.681922479094904,21.401029324968626,-17.005571972019325,6.351234000000002,32.65,1
0.857541312682388,0.01812602362138818,-0.3294561094363826,-0.030253847381320653,-0.0037931877002788206,7.6112513625409814,32.78302,1.9048033693412039,-59.871406618482055,-14.279034576854338,20.166449494703482,-7.5832451888455745,6.347390999999997,32.65,1
0.8594483840076893,0.015346334224731051,-0.328902106163008,-0.11480290370213561,-0.0034841183272873825,7.6101347816117455,32.774567,1.878889763593089,-59.5652339792179,-13.757110351901899,20.43531211517995,16.93814814706369,6.3435469999999965,32.64999999999999,1
0.860304119268218,0.016532462388045743,-0.3266534034862062,-0.002762196997219639,-0.0030684143357666217,7.619382824020737,32.77987,1.726149896440152,-60.062475398805304,-14.24985483378062,19.727906002241582,17.68774072848146,6.338422,32.64999999999999,1
0.8589952235262116,0.014650303594190318,-0.3293163803424332,0.08123025998539211,-0.0036376802064631056,7.621933969255971,32.76795,1.803353864073988,-59.470749124637855,-13.91954510037205,18.737891417103356,4.601222272030305,6.332016,32.629999999999974,1
0.8536854443602743,0.020556669360897437,-0.3342273157971342,0.14800755685726522,-0.0035037797337320368,7.633406074966604,32.775833,2.6349802042516224,-62.51339883598318,-15.204256905038248,20.609923923683006,-16.41637300344313,6.3281719999999995,32.629999999999974,1
0.8519518615815916,0.017161695218694477,-0.3480167307695456,-0.058251666460686025,-0.004165327279833064,7.64397305691183,32.763214,3.993823451572992,-55.144804650595724,-18.259178825427867,32.31138695747804,1.4620924769845058,6.329452999999999,32.629999999999974,1
0.8548035267941071,0.02093291667673959,-0.33450307561127296,-0.08886176356832168,-0.003024085966514911,7.642173077474263,32.770493,4.879662875984717,-32.908341736787506,-3.8552111817138925,47.156767045293066,22.00165727705379,6.374297,32.629999999999974,1
0.8545557250689475,0.039202659772650104,-0.32590885211668436,0.04339917392835522,-0.0041542150002591635,7.650789645824048,32.759148,5.06313904977789,-25.42738602034349,-1.2085099026082418,63.528272072105885,8.41325630250795,6.4806409999999985,32.65,1
0.8538253892675718,0.041806547851236484,-0.33318760593786845,0.1194125874674395,-0.0038131265745054246,7.6660117436004045,32.77038,4.965893444640313,-51.587564088296055,-7.391189656535393,31.87655555053664,2.872479232084126,6.498579,32.65,1
0.8572938627217626,0.03781201917267892,-0.32361175056266195,-0.06861890784648984,-0.003669434716369541,7.688038510440119,32.758587,4.103423399671489,-56.47083793589466,-22.499093946212625,-3.0731205024607195,-24.230846875726797,6.4678289999999965,32.65,1
0.8583373945355598,0.013184389645404254,-0.3280372797539863,-0.1729160111589667,-0.0034997786290053984,7.670907701444189,32.768517,2.327359858656767,-57.67857713508107,-23.916127935936863,-21.06148237968457,-54.037086627911854,6.280765999999999,32.65,1
0.857016587414257,0.00796821284425838,-0.3274263462505651,0.01830111050153879,-0.003447379783543964,7.669684458095788,32.75443,0.06576927054921226,-70.08547613328776,-4.931304499988461,-12.974194090858065,42.48539951445617,6.194921,32.65999999999998,1
0.8569964758158289,0.03967975569264294,-0.3335112329794627,0.07854507009474003,-0.00367287215197789,7.691817735751087,32.76133,-2.1986972315015194,-64.04301449623172,-7.668450263407784,-4.74135339436424,102.63301505031762,6.220547000000001,32.65999999999998,1
0.8572323425976297,0.03096343290522598,-0.33125659693421244,-0.1615995641273757,-0.004177362782787326,7.718806797249541,32.751198,-4.598800022654104,-65.11338243194879,-7.026189514147656,-13.250473085439653,-18.06714305181568,6.206452999999997,32.65999999999998,1
0.855555346272385,0.016433433967653375,-0.336521508895576,-0.24375671323133868,-0.0035246759861097786,7.717093695503177,32.756657,-6.107089050969207,-64.04629929707667,-11.361466311267577,-14.584354310854737,-24.831202761034863,6.248733999999998,32.65999999999998,1
0.8584561947783969,0.013344983753584965,-0.32842196529067635,-0.03226260025170671,-0.003940533689167785,7.717862955975978,32.74667,-5.801650650336936,-61.12074565427676,-15.45021549591064,-12.788161825062305,-25.932135628613583,6.2743590000000005,32.649999999999984,1
0.8559678007459978,0.025087058168739556,-0.3366589676801409,0.07946467405175002,-0.003479302473939336,7.7213442370532865,32.756477,-4.7207246910212115,-60.35017459317295,-20.47366354709318,-11.652294114714412,-18.291816781431645,6.269234,32.649999999999984,1
0.8531180291517967,0.037417804236074936,-0.3330342362573681,-0.030827587318519492,-0.00392895793502868,7.7374315026644895,32.740128,-3.742817544737497,-60.21170828314207,-21.15165461972233,-10.595829933147046,-28.110009537981345,6.269233999999998,32.649999999999984,1
0.8515178463353912,0.0422413091052974,-0.3419869580687468,-0.09409898692896863,-0.003882154727408932,7.731976061257401,32.751785,-3.2213026007493992,-62.01412031137538,-24.2214928758304,-16.833951843267013,30.92903028840578,6.267952999999999,32.649999999999984,1
0.8530575788921172,0.029922260408568987,-0.3365059435106698,0.05146656880730963,-0.004091772138457387,7.732834176236102,32.73809,-2.82554745816949,-63.47255539200567,-26.78421039854511,4.4371710617123,39.479468212752614,6.267952999999999,32.64999999999997,1
0.8527150490666249,0.022583275660914663,-0.3489208629923357,0.09579482013676653,-0.0038643818916524854,7.733686562938936,32.7488,-1.6622061167937257,-41.33918696296391,-54.88553796469406,1.1193440358092526,20.57439848005284,6.398641,32.64999999999997,1
0.8538135273661674,0.01238503004215978,-0.3341467086352121,0.18496967637938908,-0.003486036740563744,7.74035303214966,32.736687,-0.3945133962094419,-30.205789006978023,-42.854241939898685,7.822656415274038,-78.94031771903684,6.339703999999999,32.649999999999984,1
0.8553833200465261,0.030804795731206966,-0.3354507620945023,-0.03037532363753921,-0.00374253564069786,7.745357491609164,32.743065,0.34805459018888973,-35.313686665488,-50.591876060100546,14.495948286947835,13.500378033749755,6.321766000000001,32.64999999999999,1
0.8536524178866413,0.027751614630958602,-0.33960544135438586,-0.05149446648957132,-0.003572441139835761,7.736996787353259,32.728905,0.6144939272578234,-32.6198276585846,-53.4962801713436,6.825243284880632,9.596660033793407,6.338422,32.62999999999998,1
0.8545754753741016,0.03405220853665397,-0.3341137115720543,0.034692302799968606,-0.003714845478125679,7.742190657478075,32.736748,0.6420613498524332,-33.30646364757361,-54.682751165714784,7.993825246525715,18.051718433569214,6.338422000000002,32.62999999999998,1
0.8548213153175799,0.023725181309710755,-0.3376666016866521,0.11449822876947824,-0.004027900171568835,7.746617400249453,32.722412,0.8903471875015053,-30.89166602408086,-54.75650481651349,2.7948180082010303,-18.153554261268063,6.361484999999997,32.62999999999998,1
0.8547090348415379,0.029196524096601537,-0.33617051270402054,0.13860571935472762,-0.0036120096124168484,7.761907081947285,32.729538,1.4262655390300403,-33.26639204505788,-54.35934772050314,7.654713214936155,-15.46101281461305,6.376859999999997,32.62999999999998,1
0.8548411392289891,0.02569900501037642,-0.33633724625311806,-0.06693822750805527,-0.003148511099926547,7.773874862822687,32.715164,1.6557929854790743,-37.611028309032264,-42.76190836333318,4.816657416787711,45.78360555018746,6.4242659999999985,32.65,1
0.8560271290952285,0.04374169036124232,-0.3308394208319154,-0.12469123662055158,-0.003491736799046857,7.772708135539528,32.720406,1.6562721275303978,-51.04550929232464,-40.246280083419336,8.103588355225217,-26.575747196501084,6.406328999999999,32.65,1
0.8602754643439732,0.005813704227141758,-0.3285935106736483,0.0029768987443237506,-0.0034965557350930317,7.779454784514692,32.705513,1.7444552858012203,-52.98009270967086,-34.758260714948975,36.749852003406886,-5.733798291163528,6.212858999999998,32.65,1
0.8571540368496015,0.014512021610447935,-0.33249885400924856,0.021290506315965674,-0.003577651361252255,7.778999689241595,32.707317,2.60628258970064,-42.351865660196054,-27.07797318554864,42.708227634792436,8.002733679063056,6.262828000000002,32.65,1
0.8569073390488166,0.009228792831328075,-0.33456600246444146,0.1727294159541423,-0.0036807682409308283,7.779677315751258,32.69747,3.8358588700067497,-48.13343394794347,-9.470974572141355,33.69701134438827,-25.244687582954544,6.3947970000000005,32.629999999999995,1
0.8531181099819943,-0.0064941372037580864,-0.3405254870853969,-0.03944516148833293,-0.004103978965011331,7.784011851138908,32.699795,4.68894401916865,-54.64623507846769,1.0232882441799895,34.53583121977437,29.69888527676845,6.144953,32.629999999999995,1
0.8571361201889544,-0.0364260396820282,-0.34681151543819955,-0.11649444785647736,-0.0037487038028571123,7.768446483335978,32.68339,5.7115133161287215,-49.06206781583703,0.18622548227400681,40.33087705686784,-17.26786990661571,6.019389999999998,32.63,1
0.8461045694590014,-0.00922128560498648,-0.3620040156557796,0.03791907535975025,-0.0036602163700191477,7.759776502295352,32.689857,6.5713048151993085,-52.342274296702264,-5.436394923124142,38.60710412264106,5.105469938657958,5.987359000000001,32.63,1
0.8480796183032214,-0.011152221184854249,-0.3585279229248109,0.13881477623586622,-0.0033648565995025876,7.759319966100782,32.67291,5.653940845889725,-51.23197308270217,-6.9550196917724145,37.05066560755754,13.745401283035465,6.048858999999998,32.62999999999997,1
0.8613242725698298,-0.030811898912080353,-0.3377535755325727,-0.06603891975131805,-0.003617196253618779,7.760368216193141,32.67762,2.9254373590766853,-46.709809554952784,-8.19973329069054,43.26736490536219,-4.814199350784481,6.053983999999999,32.629999999999974,1
0.8545422785604437,0.010003838316103282,-0.34479918610142646,-0.11750243574161214,-0.0034813582995543587,7.755888011073335,32.662075,0.7539072474986548,-45.533469201688185,-8.25784767931778,43.843771581482144,-3.2460325405394994,6.100108999999999,32.629999999999974,1
0.8534904913194425,-0.00398347313863798,-0.34856533278753243,0.045118769315125686,-0.00356058951376978,7.763534071877291,32.66808,-0.5642675863092868,-45.675282502381,-8.21542506499285,44.4349873997165,-3.8283767753948137,6.123170999999999,32.629999999999974,1
0.8516502970778924,0.0002330404742573434,-0.35132172402326906,0.13283194351836003,-0.003469106217766559,7.77187103878911,32.651634,-1.3190616134154227,-44.96715276316715,-8.43524680238623,43.83701027573659,19.326112534160742,6.128296,32.629999999999995,1
0.8534144828943672,0.005591922990395403,-0.344917274775863,0.008518968932699338,-0.0035429611567830963,7.785164927159665,32.655994,-1.120024530699713,-45.39062804846695,-7.946866349298935,44.79629479024983,-31.188907061862704,6.128296000000002,32.629999999999995,1
0.8572616928738012,0.0073680436323675024,-0.33051809776203517,-0.15493057871928181,-0.0032364425559686222,7.776007157674998,32.639923,0.25396385213668,-45.55911598971997,-8.806180209643633,43.63222530201252,1.5871451536373944,6.124452999999998,32.629999999999995,1
0.8598986851429424,0.012117016375858557,-0.3313323340126438,-0.001986684044384742,-0.003787278627549966,7.77644961063586,32.645294,1.834027364362878,-45.92533359431296,-8.722559901806099,44.461099800720575,6.3399961610303395,6.127014999999998,32.629999999999995,1
0.8470208176330273,0.014248270368794717,-0.3436303294076788,0.13521135225431072,-0.0036832996374472947,7.794492199129662,32.628822,2.6797014492921827,-45.22561691843403,-8.789747523582767,43.96957762300805,10.614468456519354,6.127015000000001,32.63000000000001,1
0.8656827878079268,0.01284484537729191,-0.32182466611905275,0.03830755841640161,-0.003559571959904652,7.806478704959532,32.633076,2.729429305389893,-45.22547775136034,-8.794937818307071,44.3784640195126,-19.763389288844063,6.127015000000001,32.63000000000001,1
0.8633434425551553,0.006019264063373299,-0.3257149054682963,-0.14668769602940743,-0.0036807879733761783,7.804311431460741,32.616547,1.8784318428887514,-45.06938435998527,-8.667273129433141,44.015634870528295,-5.798969132857935,6.121889999999999,32.63000000000001,1
0.8580898333375445,0.011277035131654295,-0.31045301193517433,0.025805813356265767,-0.0035399735657694175,7.783086682512597,32.62372,0.4098398914812807,-45.548097871229,-7.899589668991618,44.84015731092893,12.829360605273841,6.121889999999997,32.63000000000001,1
0.8592276966257637,0.015185341473997808,-0.3210536991356501,0.13030152174842252,-0.0036003268416181966,7.779030446083886,32.605724,-1.2522568994623307,-44.7370863956945,-8.014570062369762,44.85003237719677,18.891308070736045,6.118045999999998,32.60999999999998,1
0.8629165549411001,-0.007354025628817677,-0.336321706414479,-0.06631464161804157,-0.0036922506412939873,7.8062822043975935,32.61205,-3.242568042496099,-45.27051814158165,-8.85703528912126,44.744417708929156,-14.477469683610186,6.119327999999999,32.609999999999985,1
0.8578458551944396,-0.0014183978368267564,-0.3322498355630491,-0.15472692960893716,-0.00300168415000833,7.804305389196447,32.596745,-5.258647381710962,-44.7410027285827,-8.332082021854706,44.525827453569725,0.6136073860661581,6.121889999999999,32.609999999999985,1
0.8594176276641092,0.0030249454145379103,-0.33024977369212,0.06919516642724055,-0.003200936542072449,7.813276845176337,32.601124,-6.516288968745501,-46.21834209271308,-9.018381980339514,43.61882090181698,9.824578846070763,6.116764999999998,32.609999999999985,1
0.8578677517187797,0.0015071586045622544,-0.32974042076318916,0.10644093806539695,-0.003433073985613921,7.831680203796021,32.58535,-6.790238991557883,-47.721154198410375,-9.032584359995111,41.66295597245762,3.256138047864785,6.118045999999996,32.64999999999998,1
0.8592985689078992,0.004550432116104396,-0.333750750273789,-0.09283073537044587,-0.0038733233731099563,7.850494850637464,32.590668,-6.257278487861727,-47.21413452196954,-8.897282591921226,42.591164162299336,-18.58057428715269,6.115483999999998,32.64999999999998,1
0.859064673634839,0.0028120275518140098,-0.3264314319849937,-0.1020407686953082,-0.0036051762963727153,7.8512411344128745,32.576595,-5.349442616423771,-47.330649040468316,-8.619010484982772,42.17448156071783,5.971570953851352,6.110358999999998,32.64999999999997,1
0.8589351753780715,0.004995422366303602,-0.33179381114314216,0.08644233604260515,-0.0035060375531262332,7.8641511423692,32.581264,-4.389180076507118,-46.983951072318916,-8.87097740643953,42.95020920179979,12.484809962687095,6.107795999999998,32.64999999999997,1
0.8584074891177,0.003622966079511729,-0.32769978367325336,0.1292146247180417,-0.003626674377723842,7.8739677885023305,32.565155,-3.316363387639114,-47.06864075108228,-8.232119797965648,42.90081968701261,1.3768582650346863,6.101389999999999,32.63,1
0.8588464555585631,0.005365720651472521,-0.32992823315764686,-0.0037444460528409233,-0.003929231363517088,7.896605971432451,32.57004,-2.3921237270182187,-46.49606972312599,-8.548461287832373,43.10687864206493,-15.089341928564162,6.100108999999999,32.63,1
0.8583816720891542,0.004806707846115256,-0.32872675610135504,-0.14555043209457386,-0.0037193642441775963,7.894088608614889,32.55598,-1.6648051551851704,-46.78892015072406,-8.764882965523167,42.89483912930436,12.654664204317086,6.103951999999999,32.63,1
0.8598024809522461,0.005419474912547322,-0.3286372332614082,0.02223200710711671,-0.0037883451634922326,7.904650678083659,32.560833,-1.1452520542320521,-46.92141746322025,-8.635464979018437,43.101190467906925,5.8246377396654765,6.106515,32.63,1
0.8581032147098352,0.004974709380665096,-0.3299230126896791,0.10657193586449722,-0.003533652359594088,7.913034538145938,32.543587,-0.7419251525103807,-46.35156552307389,-8.446869430575521,42.90336474928674,-0.5070246508629431,6.1065149999999955,32.609999999999985,1
0.8610287221075936,0.00535828338562633,-0.3339040751769282,0.12668608106764417,-0.0038381246039813034,7.939357547422051,32.549267,-0.28531500391143333,-46.82131090167371,-8.630172538320268,43.09203339113236,-21.059462548862523,6.105234,32.609999999999985,1
0.8522621559281899,0.005651179912622153,-0.34638874484828,-0.12999165206387575,-0.003853208543285771,7.948195251289122,32.53166,0.38089378779935423,-46.51051111776705,-8.466862134991503,42.91241229115208,2.9593059353020488,6.106515,32.61,1
0.8501958191339638,0.005353311219322678,-0.3548388101111492,-0.02938270272988123,-0.003246825168667272,7.9557584610119,32.537422,1.4774320373575116,-46.87035432710067,-8.428826096562053,43.083382212070596,13.402872273625386,6.107796000000001,32.61,1
0.8440419578135366,0.006634042395484938,-0.36304019914902286,0.04820721937079291,-0.003232909396725978,7.967133682991028,32.523613,3.147890828023391,-46.8740761354604,-8.096008618629149,42.92054352305308,7.388805463169259,6.107795999999999,32.62999999999999,1
0.8442008605898081,0.0073462651563451055,-0.3623182434353437,0.1334819182578578,-0.0037004446764555355,7.984661174589862,32.529564,4.60191797378309,-46.87678253675723,-8.269159851438733,43.075836676634495,-12.553047619670075,6.105233999999999,32.62999999999999,1
0.8482846796107003,0.0055080549875532025,-0.36238015585620587,-0.1471795992540585,-0.0037810575752261722,7.999525523411224,32.511898,5.117811901747402,-46.46325268014359,-8.223783930142611,42.92744724965438,-12.950665863706401,6.1052339999999985,32.629999999999995,1
0.8470529762151237,0.006177364854633991,-0.3573742366901471,-0.12368518364908744,-0.0038233825210984085,7.9996474937052735,32.519157,4.17603778165028,-46.409000125797135,-8.364181925807484,43.06965384929782,12.352726917723674,6.105234000000003,32.629999999999995,1
0.853333510719776,0.00485634097775278,-0.34713195687679244,0.0678324755006916,-0.003721081286656413,8.007336075465302,32.50138,2.522668972046171,-46.57480546036672,-8.018781111594567,42.93276812467142,9.890818249705486,6.103951999999997,32.64999999999999,1
0.8561127559358674,0.007639309384373321,-0.34108797013481607,0.11215772716150144,-0.00367529692096668,8.023485277688017,32.507046,0.7048778811608454,-46.17377810444007,-8.091960253185661,43.19047169177142,-3.1306047621707025,6.100108999999999,32.64999999999999,1
0.8552975053355786,0.007091309398282139,-0.3385505487823104,-0.14154078003514245,-0.0036608024910704893,8.036217498854688,32.49274,-1.160263782527145,-46.24918591233849,-8.300545943545332,42.935215301945284,-15.672944634479999,6.097546999999998,32.65,1
0.8590486795293459,0.008565906495915265,-0.33154538663934036,-0.08743683708800438,-0.003581402833403051,8.031284073839844,32.49812,-2.313762825334458,-46.2026320518079,-8.18622670040593,43.0662613188186,6.683983872990261,6.097546999999998,32.65,1
0.8585301550560264,0.006435127431867966,-0.3315618990670968,0.04191073795035893,-0.003712516967430293,8.03977581513314,32.4818,-2.7044286888472566,-46.33221278939934,-7.946044000896042,42.926067653153346,9.849622381100984,6.098827999999999,32.629999999999995,1
0.8589754031543352,0.008168129654880221,-0.32909686656810666,0.1312866332945824,-0.0036088050459608923,8.044446528663531,32.48923,-2.5545164537522504,-46.2259410316808,-8.190219403805084,43.12416550668993,-6.761661119068539,6.097547,32.629999999999995,1
0.8585841674797775,0.007283256801579441,-0.3300793155977041,0.05706608906760054,-0.0038271030211924108,8.0683594879591,32.470634,-2.13093712729216,-46.66830225150151,-7.937789699341369,43.03769703759022,-15.828186726474542,6.096264999999998,32.629999999999995,1
0.8594937612387554,0.009368139922387378,-0.3279383158057968,-0.16208924440785188,-0.0032760781606667455,8.07135295816637,32.478653,-1.6295274506645796,-46.21630345450063,-8.20778894118103,43.01274849282555,12.3239165926142,6.092422000000002,32.629999999999995,1
0.85893270974059,0.007728108987089111,-0.32848967959991593,-0.024848114394370024,-0.0035570752646480923,8.07159135189904,32.462353,-1.239702043841938,-46.256082784768815,-7.868809210462067,42.979154807902695,9.79914382497688,6.092421999999997,32.61,1
0.8592600280395144,0.008653468518302945,-0.32750458788840353,0.029213292422042503,-0.00367901742804745,8.080022322299481,32.468307,-0.7758086043983562,-46.437557396797416,-8.115664538865142,43.02296260168756,3.777850785741126,6.088578,32.61,1
0.8587680568973888,0.00766589115939085,-0.3287917944389816,0.13456899493939853,-0.0033586174918942163,8.08775333327728,32.453136,-0.17597379754783576,-46.28865060847131,-7.894388466870216,42.9768658826018,-16.576416288209163,6.086014999999997,32.61000000000001,1
0.8585597126311809,0.009468518577735036,-0.3298780088577291,0.056460638473615696,-0.0034462411377208513,8.110750343995305,32.458096,0.3953546885648407,-46.259458223922955,-8.091535623743205,43.02245336176142,-9.661000869943262,6.082171,32.61000000000001,1
0.858661961309832,0.0078075666343568615,-0.33035981223896166,-0.14595322533995614,-0.004088750339427646,8.114842342601197,32.44156,0.6866355288424563,-46.196703281839085,-7.981189525945501,42.97866481881125,16.675336944574134,6.078328000000002,32.609999999999985,1
0.8593331970423873,0.009404574289961873,-0.3296230967711509,-0.04583850271682598,-0.0036252240779156126,8.112665778526578,32.44756,0.6828542279647967,-46.31143078821932,-8.175247087491092,43.01996751481088,6.422981247550534,6.075764999999999,32.609999999999985,1
0.8590865405573229,0.0075693548125636756,-0.3310592756925955,0.048679251548649244,-0.00370182849404715,8.122391696660141,32.43445,0.7252495764471667,-46.3344703159958,-7.860203658524646,42.981556153457824,3.4861354203963857,6.0719210000000015,32.60999999999999,1
0.8579605378134734,0.008633604723499192,-0.33372618215692884,0.16023466933731634,-0.003410466929374819,8.133108005732709,32.437733,0.9802977038119082,-46.59777198216857,-8.133972770749384,43.016811344314874,-16.680284042812264,6.0680780000000025,32.60999999999999,1
0.8529111335680636,0.007911547934146139,-0.3435706149401824,0.015424164519303743,-0.004014756754366755,8.158839742324211,32.422073,1.5628840516731417,-46.633972095858354,-7.8607785274451265,42.98490953902804,-10.004432308116911,6.065515000000001,32.59000000000001,1
0.8522044148970027,0.008596883479760129,-0.3468105328852172,-0.1572540577501248,-0.0037612644706779353,8.155231849173301,32.431496,2.2642807538242575,-46.864787471334225,-8.226281913585318,43.013282585122205,13.763439372275204,6.062953000000001,32.59000000000002,1
0.8503201496064501,0.006785289509563595,-0.34856618502472486,-0.002461278325845742,-0.003585851646158266,8.160298689649895,32.416733,2.7963184966168773,-46.63617605196272,-7.92588095311826,42.98862908298049,7.139415431213142,6.061670999999999,32.59000000000001,1
0.8534724896061,0.008359396202442401,-0.34607369373261804,0.08351411075349521,-0.0037046992616506236,8.16769635563172,32.42391,2.987848605420243,-46.57080190585974,-8.09393165866086,43.0093148781544,1.778355553909493,6.057827,32.59000000000001,1
0.8555443651743407,0.007570634166193418,-0.3403543995109148,0.0741109856346106,-0.003774312424708642,8.189594959218498,32.404457,2.458796525818219,-46.458527494957934,-7.901541665867574,42.992966354644864,-19.644048404071018,6.052701999999998,32.589999999999996,1
0.8577999583834831,0.0091026357356096,-0.3352419737704119,-0.17371379219338537,-0.003667761298143162,8.192390239771406,32.412384,1.172115632719207,-46.61901676149674,-8.100070390504486,43.00436341322027,-2.1671754124525626,6.048859000000001,32.59,1
0.8570936372941806,0.006392537230364611,-0.33431859832680555,-0.042432535984672684,-0.003595760257719636,8.19100283416337,32.39816,-0.15271105913543093,-46.5243911756792,-7.899323227041516,42.9990665065112,12.445159282301502,6.042451999999998,32.589999999999996,1
0.8574435048124659,0.009286457148730725,-0.3342401346255086,0.06379105401503314,-0.0037029318645764703,8.199506553964639,32.405144,-0.8140541844161666,-46.34846078677796,-8.100838324446704,42.9957100706705,5.083476504335996,6.03989,32.59,1
0.8565051221342144,0.007856568127156712,-0.33447761887651617,0.13530035838669704,-0.003665875141213183,8.212906811485968,32.389217,-1.0019444527668502,-46.59753588430304,-7.899226562485369,43.14065215737825,-9.747342012943689,6.036046,32.58999999999998,1
0.8569338323545425,0.009623260706842838,-0.33546187971337565,-0.09380555913727495,-0.003988995744070151,8.227992371121996,32.3966,-0.8472747266513875,-47.15399628950223,-8.1005823281375,42.89297431170801,-12.535065482292799,6.030920999999999,32.58999999999998,1
0.8571322062913727,0.007817621184654873,-0.33399987567645256,-0.11345782501107651,-0.0038882526426816367,8.22117501919444,32.38097,-0.6999579455977916,-46.93870012946066,-7.899683723966416,42.95829882248766,15.336207715925834,6.02964,32.58999999999998,1
0.8571846730782728,0.00925103722835352,-0.3336381521524324,0.02246210034755339,-0.0035947890094551573,8.227644131853262,32.39114,-0.6069602679464183,-46.93319208455658,-8.10000365454961,43.01895420644585,6.181504972318755,6.025795999999998,32.58999999999998,1
0.8570597041860495,0.008444538386458403,-0.3334800149858879,0.13529253096737962,-0.003767665637297672,8.233976795517853,32.374447,-0.41619180429295055,-46.93861623599921,-7.900338878096166,42.988189180384154,-1.4716280733824834,6.021951999999997,32.61000000000001,1
0.8572458604266587,0.009534484356086151,-0.33526447568712486,6.758169459084745e-05,-0.003810221457849545,8.255811570715917,32.38317,-0.16155445520043107,-47.04376846138758,-8.099298928320573,43.00779761394817,-23.592635681580813,6.018108999999998,32.61000000000001,1
0.8574713108906589,0.007855425293435522,-0.3344422402379351,-0.15441925897368208,-0.003750474187252614,8.252699624220748,32.368393,0.003512342388768863,-46.83984932370794,-7.901076371203066,42.995056319811624,8.486473059758378,6.014264999999999,32.61000000000001,1
0.8575414107355911,0.00947841170099131,-0.333231540911881,0.001261590608390187,-0.003707412861346976,8.256216357137776,32.37547,-0.10350907515873238,-46.726218892323075,-8.098539554510362,43.00264786367242,13.169369967305746,6.012983999999998,32.610000000000014,1
0.857191616454779,0.008611134678244274,-0.3340626912920175,0.07928078306486969,-0.003651927514725535,8.263312575706596,32.361454,-0.09457160283812803,-46.89544952995622,-7.901850349706636,42.99933598207516,6.555180750842147,6.004015,32.60999999999999,1
0.8568552016990567,0.009162481993307875,-0.3339730107294602,0.1339452808533589,-0.003923457448429892,8.282315214317304,32.36923,0.06964102560672683,-46.88180974308759,-8.097755970712393,42.99887186403245,-18.94549182617264,6.0014520000000005,32.60999999999999,1
0.8567220868501255,0.008817914819120807,-0.33455804435093117,-0.10086048079367109,-0.0032447195017520007,8.301508558156337,32.35406,0.2514577625541841,-46.713735053923756,-7.9026400160125725,43.0027950335617,-4.150894105999169,5.996326999999999,32.61000000000001,1
0.8582674996132029,0.009663645519891345,-0.33321509476904226,-0.10139911782152274,-0.003799357493670914,8.297284905011594,32.361633,0.3111209503285905,-47.08647617734057,-8.096962763644568,42.995623020023366,17.416474395395266,5.993764999999999,32.61000000000001,1
0.8571612499757683,0.007755124964192918,-0.33572762198756423,0.029207972733651867,-0.003751762147010845,8.305615744741512,32.348316,0.279405516529439,-46.915696457895656,-7.90343488754512,43.005900408032765,8.216946426748832,5.987359,32.61000000000001,1
0.8558930785595057,0.009340412132889853,-0.3389995492446147,0.1214389677246176,-0.003538264133028204,8.310901649087107,32.35516,0.34574100966465376,-46.91137983572385,-8.096167644396859,42.99261610974554,-4.324052337388081,5.987359000000002,32.61000000000001,1
0.8514551205656617,0.0072058003366201745,-0.3485175362884874,0.10631298717757695,-0.003921275491387066,8.332237255095322,32.340317,0.7952109353302523,-46.73516020830719,-7.904229160028548,43.008841333855706,-21.734764882510632,5.980952000000001,32.61,1
0.8505729295731213,0.009193927107912317,-0.3517669889151978,-0.15418881759802983,-0.003597666379173932,8.338078257603755,32.34906,1.5943048939473783,-46.823334633320826,-8.095375084252055,42.98971621019228,8.866013138847707,5.974546000000001,32.61,1
0.8495597396479481,0.007932696673730949,-0.35055323869000954,-0.07093145553277513,-0.0037549317829529702,8.33417688621479,32.334133,2.2112902985867255,-46.90446414285473,-7.905019306450703,43.011720525431436,14.374089411828738,5.971982999999999,32.57,1
0.8545169025475466,0.00799205099346139,-0.3455715726949384,0.039063231389047874,-0.0036680150620843864,8.337722352176787,32.3415,2.242584333571523,-46.75162917928733,-8.094587934462059,42.98684033028942,6.645245834922204,5.969421,32.57,1
0.8557686618091226,0.007940635448683366,-0.33930524993802186,0.12012295952471372,-0.0036087761057798013,8.348102997974777,32.33092,1.5444917795512183,-46.77515846004345,-7.905802962221223,43.0146085729395,-10.14904972165753,5.960451999999999,32.57,1
0.8569723066977017,0.00961452731158938,-0.3368772433303063,-0.08674214529127994,-0.003891127763599716,8.36417320319853,32.33727,0.29373683879232937,-46.75109391667839,-8.093808208879196,42.98392608049934,-17.999056650069072,5.959171000000001,32.57,1
0.8576649150351717,0.008360718415384482,-0.3345261014580834,-0.11130533077452798,-0.003863499711911933,8.354024919213197,32.324547,-0.9172411316773971,-46.850483888408945,-7.906578364240649,43.01756153729893,13.396956638512473,5.955326999999998,32.59,1
0.8572077935857692,0.009756006929601577,-0.33519258230957955,0.028193963097261247,-0.003831782830386579,8.361738433487904,32.33144,-1.568064900003863,-46.84185883143331,-8.093037495469261,42.980924295191144,9.1376039815811,5.951482999999999,32.59,1
0.8575673801670777,0.008221379011268161,-0.33397192905820666,0.10994908277110105,-0.0035868906889677237,8.36587458297397,32.31668,-1.5260852684599153,-46.64165712141958,-7.907344040466767,43.020617467066224,0.4912709300864128,5.950201999999999,32.59000000000002,1
0.8570966899103121,0.009619916487271039,-0.3348692826006193,0.07560989646224131,-0.00399020829697197,8.387125912572618,32.32678,-1.2814926426546502,-46.82706777235404,-8.092277198786364,42.97781921552929,-20.99538178491963,5.943795999999998,32.59000000000002,1
0.8572879095683753,0.008348113097996763,-0.3357242773318786,-0.15276254022962177,-0.0037086552859770293,8.3896760928689,32.31352,-1.112910807904737,-46.653724384858364,-7.9080986120238705,43.023743515492164,6.9652648523419005,5.939952000000001,32.589999999999996,1
0.8573845639815993,0.009692410214719872,-0.33367516620478965,-0.03550230306384561,-0.0036698318006329264,8.390537092594286,32.321766,-0.9236529270705097,-46.76232469418871,-8.091528710436725,42.97475520867784,12.782510636488214,5.937389999999999,32.58999999999999,1
0.8567795764901297,0.008909659812822853,-0.33465682224430215,0.03503614412937532,-0.0036182788676377437,8.397354521163672,32.305855,-0.6038465347755747,-46.57241204604152,-7.9088406368678115,43.02652137093697,6.580750047951456,5.933545999999997,32.589999999999996,1
0.8578504803301936,0.009302797160621065,-0.33308851758753044,0.14102432663139386,-0.0037998789363109077,8.406378847446948,32.317642,-0.29338898225896837,-46.466681671909704,-8.090793562387109,42.97290692756563,-14.619150835282044,5.935259,32.58999999999999,1
0.8563564177307477,0.008802349709482587,-0.3346573479295463,0.012208520984938787,-0.003977093887510501,8.427617990468269,32.301044,-0.07998953303589272,-46.19579071762076,-7.909568449326858,43.02517507241069,-15.515745660990705,5.930133999999999,32.56999999999997,1
0.8587262769751645,0.010086465503134025,-0.3338096171393525,-0.14777971406435472,-0.0034968695314715123,8.427029775948805,32.310604,0.002788154140720653,-46.752917454291214,-8.0900736049135,43.11640037334286,15.20544747985295,5.925009,32.56999999999997,1
0.8579948457241274,0.008519292023090172,-0.33581327611655837,-0.003516476509233637,-0.003878911222403001,8.427623313432674,32.297653,0.007327046941752961,-46.483840706168394,-7.910279953093175,43.16499139901212,10.042532351429832,5.922445999999998,32.56999999999998,1
0.8543089132067507,0.010100231055370426,-0.3438828108488865,0.05426116467943086,-0.0036569304053750435,8.439034603230896,32.305492,0.11472546231695595,-46.53250316505005,-8.089371256688214,42.91611822854611,3.5745221275839683,5.918601999999999,32.56999999999998,1
0.8496602561971027,0.007856360567531237,-0.3531907679115093,0.15153426658557376,-0.003413859268358597,8.44661541047521,32.29135,0.6662830030761179,-46.64560330346879,-7.910972310038553,43.088071534594334,-18.122888051510525,5.912196,32.57000000000003,1
0.8472985648951075,0.009594781004946406,-0.36088818702620795,0.01469186809829971,-0.003558954678829712,8.469936750481418,32.30092,1.6142354098330385,-46.56068053819353,-8.088689901216263,42.88721180940052,-10.05612225043318,5.909634,32.57000000000003,1
0.8444770181886225,0.008868916923638117,-0.36260005698312386,-0.18684342408670518,-0.003310587852870103,8.46493641316043,32.288216,2.434885770371614,-46.61032681133445,-7.911641425132159,43.22470059793991,17.92588043564988,5.904509,32.57000000000003,1
0.8484645656261268,0.008749035815681155,-0.3580020790445411,-0.026121584645422385,-0.003850068625416513,8.46550544727943,32.29405,2.7467427182549367,-46.151675083849675,-8.088034567870498,43.690632347982806,7.61020042194923,5.900665000000001,32.57000000000003,1
0.8522107809862931,0.006556912360595839,-0.34852470755162157,0.06562173921241408,-0.0036532213271139526,8.467530071804358,32.28355,2.143607840008936,-46.03938873261703,-7.912281030995962,43.687162575510804,3.85115543944895,5.894257999999999,32.56999999999998,1
0.8565584479433267,0.009400431483860598,-0.34080364471785374,0.07857116891042033,-0.0037503667244100035,8.483016444556446,32.291016,0.7381212486782179,-45.99062597155995,-8.087413182828973,43.710852836807085,-19.284150748631134,5.8916960000000005,32.56999999999998,1
0.8566481010073159,0.00893530301552377,-0.33706561103805127,-0.15153615332824413,-0.003556188388091897,8.4841523579417,32.278847,-0.8160634565923236,-46.00349407125645,-7.91288094910675,43.641823119103584,-3.8136323239142054,5.885289999999999,32.56999999999999,1
0.8578472509168515,0.009075779788818515,-0.33454020557243863,-0.04910271799282338,-0.0037093490835227736,8.47613703855184,32.288406,-1.949205755317531,-45.99848308413273,-8.086839030500913,43.67636617975652,14.432652724445997,5.882727999999997,32.56999999999999,1
0.8566279528354296,0.008710889992059366,-0.33575999293072645,0.053609824616834424,-0.0036979624457553063,8.479726902509357,32.275135,-2.40090683394961,-46.0009920553736,-7.9134235352318525,43.70277774698576,5.85679380408826,5.878883999999999,32.56999999999999,1
0.8577896232202791,0.009244708955968716,-0.3334929385008611,0.14146704681401878,-0.0037223669126994867,8.486044229600076,32.282692,-2.268633113836326,-45.99871551100205,-8.086336001799689,43.7392567344858,-10.145041002641873,5.872478000000002,32.56999999999999,1
0.8562935883579249,0.008872118681962311,-0.33535076658467855,-0.008432406408738075,-0.0040580320453718335,8.50627582611412,32.270092,-1.7781201508724134,-46.002232935424196,-7.913875734137202,43.817403389452636,-17.298738649934915,5.869914999999999,32.570000000000014,1
0.8583991033922905,0.009945501872500626,-0.3326701192655231,-0.1417595400967451,-0.0035675099745228474,8.502264607059143,32.27801,-1.3604655893042041,-45.99605538879928,-8.085950971503323,43.62943459314284,13.996535970117774,5.866071,32.570000000000014,1
0.8574101649681346,0.00879479066423944,-0.33286025400197145,-0.0045124327352712304,-0.0035990273979316545,8.504929621424347,32.26523,-1.0596063354977343,-46.00694170672289,-7.914169146927721,43.7636553318921,11.109406225575587,5.862226999999999,32.550000000000004,1
0.8584677570504097,0.00953542834962033,-0.33231889721347246,0.0627911432725705,-0.003285341312302306,8.50866080735061,32.272923,-0.7706289789173347,-45.98685514895656,-8.085787180532352,43.886864340063575,3.563883029289304,5.857101999999999,32.550000000000004,1
0.8585491528263861,0.00820109830477466,-0.333144448608815,0.12956690628612838,-0.003893897054683839,8.52011152775628,32.261414,-0.45747994620374827,-46.03499174117372,-7.91414142435021,43.907314562012,-20.17759800397064,5.855821,32.54999999999999,1
0.8571153705393026,0.010097324263831343,-0.3390762081618022,-0.054195525611154455,-0.0037263673085816394,8.53649168644787,32.27056,-0.15868863546019127,-46.114623682015846,-8.086113294616284,43.851534671716244,-6.072780117127758,5.848134,32.54999999999999,1
0.8522606405868663,0.008778264818825035,-0.3471103445527152,-0.10248439110244789,-0.003713586422299198,8.530770852879856,32.257202,0.15541536810763357,-45.97584631671452,-7.913317687008,43.603797960942664,17.486339479129597,5.84429,32.57000000000001,1
0.8486875308752836,0.009570663906574043,-0.35825714676212134,0.025544310664550166,-0.0037809761634417793,8.540861136921627,32.265297,1.019357144358268,-46.01373868032925,-8.087846900821251,43.520492773717606,6.244849612606771,5.841727,32.57000000000001,1
0.844203493053889,0.008141610969135384,-0.36705325763864916,0.1145479315524649,-0.003686727875748279,8.548690343410899,32.251244,2.254809263762794,-45.99045748555181,-7.909685362724168,43.94305008560974,-0.02345834276240977,5.835320999999998,32.57000000000001,1
0.8415009319013471,0.008646456687329978,-0.3695735165584391,0.10839124424975306,-0.003928336173596587,8.571785499698901,32.260838,3.2461744046393655,-46.00727259079303,-8.096086983099973,43.914311667878025,-25.167682951177667,5.831476999999998,32.57000000000001,1
0.8458845423449897,0.007940193793564667,-0.3635933022085577,-0.20880955082292385,-0.003819768300074586,8.572470000283204,32.24629,3.7241716486803877,-45.99401892513753,-7.570264998985378,43.86316957564266,5.652624811766679,5.826351999999998,32.57,1
0.8513640137330101,0.009060600941745031,-0.3531206006030013,-0.06666879595845218,-0.003599588514426822,8.56365957398592,32.255413,2.993650134969676,-46.00545385226305,-7.837639837786464,43.815481755256556,14.79393981607055,5.8186649999999975,32.57,1
0.8551783975662126,0.009411854671545367,-0.3425668782404946,0.10961395836947126,-0.003627297657429748,8.568898076472701,32.241375,1.18555142562842,-45.9941514470698,-7.4763767137257116,44.06558608596938,11.325410423225042,5.814820999999997,32.57000000000001,1
0.855804334601569,0.009559004585189943,-0.3403352323258737,0.03304932807144611,-0.0038113272719204018,8.581684102920327,32.251793,-0.8324075262679494,-46.00785308336022,-7.271239445404903,43.94657395752968,-13.667861538801214,5.808413999999999,32.57000000000001,1
0.8570382312454269,0.009149128412677829,-0.33704082583297224,-0.15764232194451358,-0.0039411399426925705,8.577714606124573,32.23884,-2.2504926357193074,-45.98627121134744,-7.008352420179817,44.054256066774286,-16.606759905230497,5.798165000000001,32.54999999999997,1
0.8572844028213554,0.010611207770599353,-0.3355458378007998,0.03458614655463061,-0.003978421399170601,8.5702636679399,32.24757,-2.8249487807779774,-46.03372054418488,-7.152132897164875,43.930969737576056,10.046059863074868,5.789196,32.54999999999997,1
0.8564288962064266,0.009190637807368736,-0.33550405207883843,0.13922968401403713,-0.0035784400373152585,8.582306166923715,32.235752,-2.6938358007222742,-45.783333255719484,-6.9000717456015,44.2235219156306,9.923760437795076,5.780227,32.54999999999997,1
0.8573712009364665,0.0101813927942656,-0.33495906380731166,-0.05461972543649095,-0.0035805033209776464,8.59518355345001,32.243378,-2.151821580697851,-44.97835213069676,-7.089956627618481,44.499408998635445,-11.347284424671868,5.768695999999999,32.54999999999997,1
0.8571747770413822,0.00911472636079664,-0.33376610361121783,-0.12296925825306569,-0.0036568512456177345,8.589644862725011,32.231636,-1.764342838801993,-45.11265768641208,-6.914145784319391,44.59047605225289,-14.214882341471487,5.7610079999999995,32.56999999999999,1
0.8580568062804166,0.009601933253732157,-0.33220923870215335,0.07304937345394139,-0.003732742264869067,8.591787349212323,32.239254,-1.4751892659566705,-45.06078907680766,-7.083623357787521,44.64961048349547,13.504360369954384,5.757164000000001,32.56999999999999,1
0.8572840734505341,0.009189392272728799,-0.3317486326627455,0.12361653298955655,-0.003618401659120946,8.603584824277984,32.22405,-1.0800098939359644,-45.1522907619255,-6.917799728688939,44.69808266439791,5.035119569953213,5.748195999999997,32.56999999999999,1
0.8598584010071886,0.009658071534269008,-0.33005776170123063,-0.05027391186270318,-0.003827755759666259,8.61443893080738,32.23278,-0.7548625666986144,-45.150198091627985,-7.081189426024028,44.63675535266168,-17.89944548282846,5.741789,32.56999999999999,1
0.8587899303456858,0.009022210764860612,-0.3339716607178348,-0.11189147237214718,-0.003985488321559203,8.605837858937434,32.22155,-0.5526515710060916,-45.13195618954995,-6.91958669750956,44.533762045772846,1.8209771594968944,5.734102,32.549999999999976,1
0.8540022354780549,0.009954479334229419,-0.34323655247509566,0.039733653774834385,-0.003792728267209004,8.615321241773875,32.22878,-0.16168005393847834,-45.31392095373878,-7.0797817401436225,44.19713284955097,20.481261890151657,5.727695000000001,32.549999999999976,1
0.8500037731620383,0.0087145316044548,-0.35479525886423674,0.05233334794136366,-0.0034440508865569773,8.622801793060521,32.216125,0.9447076658656335,-45.37460251400341,-6.920755296269332,44.37831452193333,2.769532221823633,5.727695,32.549999999999976,1
0.8463430584028535,0.009340785856168814,-0.3645742662331094,0.16288245310534366,-0.003470982198054261,8.639383251065478,32.22299,2.2986623643906343,-45.20175964516067,-7.0787724949743485,44.637455891399036,-19.62388753952251,5.717445999999999,32.549999999999976,1
0.8418226202103046,0.009258533725324331,-0.37227325095001024,-0.07254476681249443,-0.00382972512133189,8.657490230535757,32.208443,3.4495797294967128,-45.45467347886634,-6.9216534754084975,44.46624616174568,1.803268497248272,5.712321000000003,32.54999999999999,1
0.8425664017463237,0.010512737426787393,-0.3681128691095218,-0.15938963602742565,-0.003761004550840612,8.650141623400796,32.218765,4.002088658048327,-45.18852620563031,-7.077954640862748,44.414883961094624,22.641221888172655,5.704633000000001,32.54999999999998,1
0.8486592889817602,0.007384663993431795,-0.35960232434148875,0.013600152805544063,-0.0038018486183770215,8.647093356325968,32.204704,3.6993118902214888,-45.25111814040801,-6.922411394608829,44.57513213437069,6.579419309552679,5.698226999999999,32.54999999999998,1
0.8509388695747686,0.009094655852286741,-0.350412913971574,0.12120876830977731,-0.0037074025728848587,8.653038457324355,32.214207,2.4770724991850526,-45.00221704037525,-7.077242654336806,44.79401690724164,0.9459205699417339,5.691821,32.54999999999999,1
0.8549176259625848,0.008621970392522351,-0.3430715655825247,-0.030168532947489984,-0.003842318906663721,8.666618946967956,32.200752,0.5087908296149198,-45.143260477291314,-6.923087359131095,44.77392600082511,-25.97409314991751,5.685413999999999,32.54999999999999,1
0.8572595194614379,0.010445600770215327,-0.3362684366767822,-0.15246914694066263,-0.003725713337407947,8.653855379698966,32.207542,-1.3881909869850373,-44.96933293348452,-7.076595504120785,44.84631354066003,3.400299681054822,5.681571000000001,32.54999999999999,1
0.8566465945702082,0.009156728268735351,-0.3364379031227218,0.013440153520960178,-0.003750448681736229,8.65209816521095,32.196262,-2.605604114758526,-45.14272588286671,-6.923711070853041,44.80694338749718,12.478277076341437,5.672601999999999,32.55,1
0.8575433564455093,0.01068948563732337,-0.33394787512932755,0.09063818733130966,-0.003695256322362486,8.652087674977974,32.2024,-2.9290508739670176,-44.993444590382616,-7.0759911225342025,44.87795397770377,5.599074234029854,5.668758,32.55,1
0.856433076938491,0.009328280446012097,-0.3346052752798796,0.09965851088423176,-0.0037870887549448532,8.662546067641074,32.190716,-2.7699410332036023,-45.01864535501704,-6.92429933988452,45.00594392533184,-19.778703799856753,5.662352,32.54999999999999,1
0.8580407671123935,0.010867301369460907,-0.3323425383915894,-0.12452675380279518,-0.0036856149209345385,8.662810925650014,32.195705,-2.265949624176915,-44.975685368423505,-7.075416380725824,44.87945063713597,-2.1086618420002,5.655944999999999,32.54999999999999,1
0.8581772052345145,0.009549195298159606,-0.3309042783078142,-0.06590960413202877,-0.004012482205624688,8.652135660519727,32.186256,-1.7531860731084186,-45.02879881892183,-6.924862690104591,44.91496035817615,17.66087967064151,5.649538999999999,32.55,1
0.859232140840752,0.010246622832395394,-0.3280090844154188,0.03295889835682293,-0.00408997873551473,8.649228254615757,32.191975,-1.3777216718690402,-44.96666741310114,-7.0748626032022335,44.743032992249546,7.287752238686057,5.644413999999999,32.55,1
0.8597146392921406,0.009342151120352724,-0.326644762106973,0.11658378963098232,-0.0034575811879552745,8.649533774483539,32.181564,-0.9630625294272932,-45.038904853459236,-6.925408497512893,44.78587936940655,-9.202643802516555,5.638007999999999,32.54999999999999,1
0.86081895284246,0.009681864538381801,-0.32532522207107534,0.05832651278045628,-0.00380048384416791,8.666053591452469,32.190754,-0.5367350453268732,-44.952237904727816,-7.074323300230785,44.852774706494294,-22.386453754118822,5.634164,32.54999999999999,1
0.8616359691344085,0.009121057163564804,-0.32890977329037924,-0.13538462574168533,-0.0038264837472954563,8.66666002690341,32.172695,-0.18781092877233607,-45.072752327611546,-6.925942691370468,44.73557116660729,12.29217015170953,5.626476999999998,32.54999999999998,1
0.8558820500540264,0.01073553884056959,-0.3393922642719133,-0.027591553616135873,-0.003936619349774193,8.676693258888244,32.183453,0.08454444168515708,-45.072293349567644,-7.073792830572879,44.50298577387987,12.646849906470791,5.6200699999999975,32.54999999999998,1
0.8494144001068837,0.009103912667649266,-0.3563037746842744,0.04789674265823426,-0.003725628417577749,8.692221167356594,32.170223,0.8000768823739364,-45.02873868037697,-6.926470870033748,44.85179409531738,4.449475103443873,5.614944999999998,32.54999999999999,1
0.8426470062392367,0.009918585389181691,-0.3675535065073651,0.13570572093478453,-0.0037432106527557863,8.700190213083777,32.17543,2.2191053349841,-45.10687876386421,-7.0732653986993475,44.539290546032014,-14.26789782004751,5.608539000000001,32.54999999999999,1
0.8400621286147643,0.009382081504629436,-0.3749885036136208,0.053933495146878244,-0.003832861972044493,8.725952225686031,32.161682,3.883909495059629,-45.46842351287607,-6.92699928300379,44.48150818745203,-17.790489642266305,5.604694999999998,32.54999999999999,1
0.8427561201588095,0.010819380669322268,-0.36803695361530436,-0.21736108505713514,-0.003801994121357935,8.719194420178818,32.171223,4.827347484665313,-45.22969360141327,-7.0727340027538546,44.63510087002017,16.25626544297297,5.598288999999998,32.54999999999999,1
0.849463668036913,0.008210733434243648,-0.3581113080489785,-0.022735159582813233,-0.003914431160926787,8.71298205605877,32.156647,4.290947506513881,-45.066125091468386,-6.927536056511714,44.87901339593508,10.132603105512668,5.593163999999999,32.54999999999999,1
0.8513173476659818,0.00974628401380707,-0.35081848450644837,0.11848249859811767,-0.0036416394917106183,8.71655011778768,32.164196,2.620070038572487,-44.96469429841246,-7.072188901110564,44.767378484281224,5.647961174928482,5.585476,32.54999999999999,1
0.8561774276027702,0.008360544227248025,-0.3414244678994719,-0.012162657354011274,-0.0038207899764621015,8.728168790178307,32.152817,0.454243623337763,-45.16018164894855,-6.9280932260845445,44.80186044511455,-18.29721004306884,5.580351,32.54999999999999,1
0.8575811525024578,0.010701459469143436,-0.33590217168754766,-0.15892095438841267,-0.003488691191063962,8.720005396936237,32.160473,-1.5413528769906204,-44.96258700654269,-7.071614789912162,44.75897502609968,-9.223308590857483,5.576508,32.54999999999999,1
0.8572160482898049,0.009119554264923845,-0.33565013213491596,0.0316471809785399,-0.003490157513619618,8.715372867078644,32.145832,-2.9473896962493473,-45.040048205865205,-6.9286908129307285,44.96148424156891,12.320959514311626,5.56882,32.52999999999999,1
0.8577766208035486,0.010066148720275508,-0.3338491293283146,0.12248256602110108,-0.0038139557082973604,8.719375687027217,32.155132,-3.3001493971610962,-44.95721075987662,-7.070984701184467,44.85523202835987,6.874477259649467,5.566257000000001,32.52999999999999,1
0.8570142407556359,0.009363582195947476,-0.33356546636981926,0.033433020572631617,-0.0038625531773050933,8.739198027848204,32.140896,-2.915250215919516,-45.04560443668005,-6.929366286356905,44.9043727553145,-17.58420611999793,5.559851999999999,32.52999999999998,1
0.8592310564380077,0.01039931305323982,-0.32993538209722273,-0.14832256451506515,-0.0037578317720775743,8.732232551391908,32.14923,-2.3503000842948483,-44.95146979252724,-7.070244769756695,44.681675518023724,-4.6414027199103645,5.553445000000003,32.52999999999998,1
0.8582286404625732,0.010183206668838032,-0.3299381480231128,0.0037699652452595116,-0.004268312745881366,8.726326891815685,32.134735,-1.8253437336538965,-45.051638351344494,-6.930200133162129,45.1749035177244,16.214841562304606,5.549601999999999,32.54999999999999,1
0.8586676802467907,0.008046440259227084,-0.3300548364852145,0.07762313219809368,-0.003713575024096068,8.729643972954657,32.144203,-1.3186220494794227,-44.94495351932285,-7.069269172258854,44.74808842155181,6.8544265017775885,5.545758,32.54999999999999,1
0.8596858329136221,0.009098794644686102,-0.32938198775316585,0.11783184473323936,-0.0032888546564938228,8.746600821793757,32.12965,-0.8600653289249391,-45.05896435691941,-6.931400091363127,45.109631475750966,-15.85974102988733,5.539351,32.54999999999999,1
0.8590500823724869,0.011323570922455188,-0.33336770024348406,-0.10670882606414364,-0.00365824079615226,8.75489928047777,32.1383,-0.4750297926282026,-44.93617361733882,-7.067690507395948,44.765628693545175,-11.803216698703924,5.534226,32.54999999999999,1
0.8550364989800824,0.008907010822941692,-0.3411678336782313,-0.06593465751146786,-0.0035470489164130957,8.74414706429519,32.123943,-0.16746882835183333,-45.07074390156042,-6.933678221031301,44.89761607197485,20.836594275243844,5.527820000000001,32.52999999999997,1
0.8512771463289704,0.011063644333779711,-0.35292381446463256,0.044822458238630035,-0.0037561993808142217,8.753119721476459,32.131115,0.6490939796477738,-44.91623338490333,-7.063933548577382,44.73809635740292,7.872761528855479,5.520133000000001,32.529999999999966,1
0.8465733499756178,0.008259337440543578,-0.3605834628050856,0.1564675989901375,-0.0039781192252762955,8.75984901108015,32.11762,1.94059548255103,-45.1392792492578,-6.941378925799335,45.066895837411856,-3.1011513837341,5.516289,32.52999999999998,1
0.8432652724358471,0.010737467165918453,-0.36689224051711783,-0.02836316415878716,-0.0036471060556601317,8.779738418327016,32.126976,3.277742183519263,-45.1423609117403,-7.038025772661423,44.53298169880545,-26.06810849765527,5.511163999999999,32.52999999999998,1
0.8442410534526662,0.0094422483426238,-0.36508439577585156,-0.19349646869221795,-0.0036968110892814376,8.771136998326218,32.11015,3.9627230562730515,-45.03826302190364,-6.810556378832308,44.96291546909487,11.311416962278823,5.502195,32.52999999999999,1
0.8511702001283153,0.009487572656376595,-0.3533988798006859,0.045037056881696666,-0.0037749769096949485,8.76826985260784,32.118267,3.692787808598799,-44.94849513290821,-7.101773564278424,44.91897094769363,15.315523496023568,5.499632000000003,32.52999999999999,1
0.852700530644881,0.00824818014690942,-0.3470194961853062,0.1084469508896023,-0.00358907819310796,8.778192926863957,32.105347,2.401579436111134,-45.05874170283791,-6.903622267753609,45.113020554204525,6.382598387877474,5.494506999999999,32.52999999999999,1
0.8558179885285152,0.009963881376483852,-0.34221392308702414,-0.09257936730725425,-0.003555979773562667,8.7823260120196,32.111954,0.5437951834867587,-44.93599025715123,-7.104156049429951,44.80464423018935,-20.179545729034828,5.488100999999999,32.52999999999999,1
0.8566896310754769,0.009079373636041606,-0.3362138451224086,-0.1109261283301332,-0.0036127252794670847,8.763718612650134,32.099133,-1.347608044787886,-45.06839778123941,-6.825262787844972,45.04742044943687,-2.460515058721793,5.480413999999999,32.53000000000001,1
0.8570786405974232,0.009993178152992884,-0.3356413385614838,0.06434232407451769,-0.003780339208323109,8.762992604600848,32.107952,-2.6021637709590455,-44.92769756680113,-7.021815946939083,44.90673395230986,14.97466383296212,5.474008,32.53000000000001,1
0.8573122310967264,0.008979416559603833,-0.33362736640644736,0.13187926351663,-0.003700635472336768,8.765233162551318,32.095238,-2.822397934436607,-45.07586797368287,-6.836085117713958,45.11697392780303,2.1491837834647964,5.470163999999998,32.530000000000015,1
0.8573443567438362,0.010167785355369148,-0.3350963698435655,-0.014189463643374025,-0.004028512390474735,8.780664653419386,32.100662,-2.35074965952751,-44.9209087581141,-7.030657210721566,44.82195707424369,-20.313854241197365,5.465038999999998,32.530000000000015,1
0.8584699977180746,0.008652399109384985,-0.3325015759304744,-0.13509465440987442,-0.003601040803478289,8.767049070087634,32.087425,-1.8941154431442837,-45.081797777382974,-6.959638399515326,45.02506672895778,6.963975143246739,5.4624760000000006,32.56999999999998,1
0.8586280267663438,0.009641040556956136,-0.33038594141547706,0.006727661239112189,-0.003676618309786533,8.76411815918795,32.097065,-1.5735255472346434,-44.91656803218537,-7.04012812333182,44.91655765205865,15.597880993556458,5.453506999999998,32.56999999999998,1
0.8585848572956073,0.008565113119468974,-0.32920096866666465,0.049600756284426645,-0.003529710957529791,8.762544989304715,32.083977,-1.073159224775329,-45.08204885223454,-6.967466904091918,45.0989357823868,3.580901189677973,5.4483820000000005,32.56999999999999,1
0.8593629168883213,0.009622375752945797,-0.3288150865205846,0.13042007726022814,-0.003875054651782574,8.771379915197253,32.092358,-0.5400565592949734,-44.93482079175284,-6.995473653631954,44.89186090640682,-20.801702220031245,5.441976000000002,32.56999999999999,1
0.8587366818692802,0.008607717652585091,-0.33470784173664975,-0.041477026290763296,-0.0039866464920279765,8.783485763732624,32.07942,-0.17269005965676706,-45.21986904519518,-6.851775886675207,45.11522796327251,-6.068168633767639,5.438131999999999,32.54999999999998,1
0.8554179702469875,0.01050350805002231,-0.33993837328096077,-0.11518584657176137,-0.0037563812059131286,8.775363577951829,32.087036,-0.03811727397613159,-44.865563016393935,-7.057810829325715,44.87858471506468,21.800691325615553,5.433007000000003,32.54999999999998,1
0.8524504061512982,0.0093575059588292,-0.3489510265108846,0.0010362340280972667,-0.0038127881909610817,8.779482439256197,32.071922,0.49520285080295245,-45.12869098769197,-6.798936307848276,45.12726733628891,8.158229118562929,5.434801999999999,32.54999999999999,1
0.8499431708277203,0.009923998885890569,-0.3561192563256579,0.08122351433952807,-0.0035925631193711935,8.781317105164115,32.081,1.594723233020546,-44.87219402641996,-7.120270938179172,44.866713247138165,2.1036320656811793,5.4283959999999984,32.54999999999999,1
0.8451920510035619,0.008287105486696712,-0.36449194041051236,0.15197362887951155,-0.00405252527724397,8.795080622917158,32.067333,2.7189223557269444,-45.12319240169072,-6.5669898044091655,45.015651665116295,-26.01579734615929,5.421988999999997,32.52999999999999,1
0.843711593344857,0.010655973356581005,-0.3654793982104502,-0.12450591231083245,-0.0035899624732668757,8.806208358486613,32.07617,3.494039691154001,-44.95992704772444,-6.5173684205156,44.84211997345394,-3.164880906460371,5.416864000000001,32.52999999999999,1
0.8505609083569914,0.007859785412682454,-0.35626053079210585,-0.1412466280119174,-0.00406446883382635,8.787145317226102,32.062252,3.5407622969198083,-45.198357688439586,-6.679811089146354,44.92505937990788,17.5107346407749,5.411739,32.529999999999994,1
0.8530600905753761,0.009642418991589921,-0.3477324684295684,0.0724821379194176,-0.003803353148127285,8.783913995983157,32.0702,2.5440175063510058,-44.8134638874084,-7.0994591492182115,44.82179630434191,8.463221196182598,5.4066139999999985,32.529999999999994,1
0.854481185663292,0.006879726581625856,-0.3442679311369815,0.09771903659853277,-0.003670285209203865,8.785671285608487,32.05621,0.7759474933430698,-45.19191812888239,-6.884285611751946,45.238566662404125,-4.289048896243567,5.402771000000001,32.54999999999999,1
0.8568587983027114,0.009533590680548511,-0.338583923173947,-0.08550985422866746,-0.0035603952750657714,8.791252887529456,32.067387,-1.0524188010267417,-44.797578307305216,-6.969577834818236,44.92182577430473,-22.019977016654526,5.397645,32.54999999999999,1
0.8569684937580554,0.008670844374266497,-0.3355009250630074,-0.11048776490685858,-0.0035803663139818186,8.771148497047234,32.05205,-2.378546959520996,-45.21658997494541,-6.875974474860632,45.10856960674687,5.495942629958116,5.392519999999999,32.54999999999999,1
0.8567140972571327,0.009414742606134672,-0.335346577400511,0.054957439212973115,-0.0038179325419341196,8.77132114694148,32.061592,-2.9140025346236635,-44.766224140414664,-6.969447038291058,44.89652857740625,17.948270700395046,5.386114000000001,32.54999999999999,1
0.8569755210575623,0.00833875711929243,-0.33396077916043554,0.11341998497146609,-0.0038857796382588843,8.76538293791114,32.04766,-2.7226203247252334,-45.2397814777132,-7.000394117930163,45.265635504740615,-3.855375993894968,5.380990000000001,32.52999999999998,1
0.8574593541131401,0.00914719825269916,-0.3341880490204372,0.047665542817043924,-0.0036831062747909966,8.781802696125666,32.057373,-2.1946193965586156,-44.48368769285178,-6.9961434125737005,45.25214840162434,-25.053060321500244,5.377146000000002,32.52999999999998,1
0.8590040356992258,0.008218066173436641,-0.33085527060622677,-0.15367741116774042,-0.0035827389090197503,8.773959884880288,32.044582,-1.6050530061699668,-45.11200556350207,-7.021985464621653,45.39331965837123,4.734066885754936,5.374583,32.52999999999999,1
0.8600208136410236,0.009406958145510357,-0.32576586919513767,-0.010091832463505476,-0.0034788696738236114,8.765211541599518,32.053288,-1.2514698839951572,-44.35114314192616,-6.931207733855801,45.2508742633452,12.958024085974174,5.368176999999999,32.52999999999999,1
0.8604250925119065,0.007736482619520148,-0.3249169050274305,0.05102620479495627,-0.003943256726597866,8.762183426990806,32.040737,-0.9471200831807388,-46.04101441621392,-7.335217139051304,44.18895810548301,3.7771280103014213,5.368176999999998,32.54999999999998,1
0.8610104925711493,0.010082567753393928,-0.3228506519869406,0.15162685185108588,-0.003534922416363663,8.766472261225585,32.050613,-0.6234964549040414,-48.682639903994314,-7.418478901550221,40.49457468264434,-10.700664146794349,5.364333000000001,32.54999999999998,1
0.8620503984972914,0.008496730990605312,-0.327019951271753,-0.033533848659982025,-0.003689974640116846,8.774669979331527,32.03513,-0.1733146552369336,-46.64423071501106,-6.855752573789012,43.84314274981585,-17.00971810683584,5.356645999999997,32.549999999999976,1
0.8584871947362137,0.009488431784132334,-0.3339401305182786,-0.1027195578010225,-0.003755833212084837,8.766723404151714,32.044674,0.2058471129777983,-42.43349674967957,-6.517214368020179,46.8995441496752,20.90024647493613,5.364332999999999,32.54999999999998,1
0.8508554004134173,0.010219899787884394,-0.3518460067000992,0.012172500690405102,-0.003949027373267735,8.770707761929884,32.03224,0.7443441315764314,-43.189472728523306,-7.784131304910162,47.04764675135226,13.404314888874397,5.3707389999999995,32.54999999999998,1
0.8482728870724244,0.01210054971473636,-0.3570411856853204,0.11392555519793482,-0.0037174375362199292,8.780339008947776,32.03999,1.8076160299748456,-43.32772454966961,-8.510541542813138,45.86267650319439,11.181101122042152,5.341269999999999,32.54999999999998,1
0.8449546028056336,0.010341667284240007,-0.3648312098796209,0.09929352916356814,-0.003836832722640839,8.801439386153573,32.02731,3.2220482858313035,-43.490147235026,-8.53313705619931,46.51808935139866,-40.6385771533495,5.357927,32.549999999999976,1
0.8423415581457293,0.01909409796426715,-0.36337195181879184,-0.18751049046473603,-0.003782979120046246,8.804004766646365,32.036312,4.30897945129255,-43.48787725242892,-10.417828453959858,44.94659616603629,8.473005485656502,5.418146,32.549999999999976,1
0.846582997436289,0.017663189737388636,-0.360931435951949,-0.04991462860295627,-0.0037466845376234958,8.790204255876487,32.02369,4.6081656286625154,-43.68372209346877,-9.36624950777499,46.17014252732167,18.888549630661895,5.415582999999998,32.56999999999998,1
0.850428048153175,0.014969095471338798,-0.3526300591967067,0.13479243084239806,-0.0037961215742167305,8.800938999242215,32.031048,3.542814939905809,-43.68354859369381,-9.040241438986872,44.85045317852259,-21.60687788045538,5.428396,32.56999999999998,1
0.8550839694199627,0.01548551121429695,-0.34325628973029654,-0.057040609961214475,-0.003841430131826369,8.80677436449021,32.01964,1.3147178642944752,-44.28834773401344,-8.782696333631014,46.208372682263224,2.592946057970781,5.465552,32.56999999999999,1
0.8555741249061649,0.016662459642132664,-0.3412107677237346,-0.13685166390645226,-0.003744921658108999,8.799153876579535,32.02962,-1.1024090204215342,-43.18448534029714,-9.385036727697015,44.78803292389106,-64.38423841519577,5.415583,32.56999999999999,1
0.8573532061047033,0.011667048896856134,-0.3351862605941178,0.07647970584116638,-0.003860206028117588,8.791117458984216,32.014275,-2.7790361028126593,-44.730018421027474,-10.734073060862814,45.09853987596129,72.01385497489575,5.348957999999998,32.56999999999997,1
0.8575346732372796,0.013830627864479252,-0.33232317413955653,0.11026799684655986,-0.003737037653178749,8.803111129973734,32.02669,-3.1414920060766884,-44.417351007107115,-11.630993151889632,42.959099318000995,84.28883585797671,5.306676,32.56999999999997,1
0.858162600198247,0.01130432084780705,-0.3316464344660525,-0.11300646638004967,-0.003636259749318584,8.800316147874058,32.012264,-2.7888164876544073,-45.62005435027387,-10.716127538195542,45.552153633495124,-13.386093381515291,5.319488999999998,32.56999999999998,1
0.8591961075784067,0.012704314474810616,-0.32850941336445627,-0.07851376998302824,-0.0035768930934667402,8.787382972105629,32.02155,-2.405331322893015,-43.72147292587341,-11.83769393223892,42.53959561023126,-120.25164672749142,5.293864000000001,32.56999999999998,1
0.859621738027659,0.0112233099838886,-0.32588495125372924,0.07066444908965766,-0.003927536408622885,8.77962364147286,32.00954,-2.0806718234604955,-46.34276391372051,-11.183598997584594,46.512615675170416,18.474009194811483,5.191363999999998,32.56999999999998,1
0.8617893977220882,0.013613942455798837,-0.3242236525917291,0.14221144158871496,-0.0038912001821055074,8.787510068334944,32.019676,-1.5928965520860074,-42.75527189372099,-12.19026618835257,40.90208938053233,3.036916047024033,5.352801999999999,32.56999999999998,1
0.8624833422223483,0.012424709503940954,-0.3311402505651469,-0.05841962831666001,-0.0036859736840408157,8.798771302089264,32.006847,-0.9870572597549209,-50.890896504761784,-8.833490285068885,51.96482782994849,1.0037039840258306,5.365613999999998,32.569999999999986,1
0.8596531691155929,-0.0077716804642479105,-0.32313211763256067,-0.11651770700341695,-0.003695507942850214,8.788017051489405,32.013184,-0.37109247906633097,-45.94258163636317,-13.778551934201484,29.31467175480668,96.27496590937731,5.39252,32.569999999999986,1
0.8488001108156665,0.006365290491249003,-0.3541737567669536,0.03216989283637374,-0.003925977059361683,8.792424700270242,32.000835,1.3870369386404753,-17.43860999716755,-16.445760145684467,53.79100483599355,-63.10292691457843,5.404051999999997,32.59,1
0.844075472670792,0.04527334767740328,-0.35097030215650393,0.13133654599296016,-0.003781494179653537,8.81283055307924,32.011208,3.4577866576677785,-25.916136279279808,0.7761950433650184,73.35710376535003,-54.62935815544244,5.366895999999998,32.59,1
0.8466415826239639,0.03484116662542234,-0.35956808185475636,0.06907612660769455,-0.003782324917765994,8.84075710089279,31.996542,4.221419511563924,-22.68995720392842,-12.706664031363248,53.67677117430467,19.334780261929513,5.420708,32.59,1
0.8486745531120617,0.01906865531342848,-0.35587678562405384,-0.20751947894633202,-0.003840752073453997,8.839225950103943,32.008232,3.934386571640585,-20.963136851430825,-9.483613048186939,62.00343591194797,86.35465690950284,5.4450520000000004,32.59,1
0.8540210551521089,0.009339147149471825,-0.3434992080176653,0.025486958559493997,-0.003913860096837569,8.82933276442075,31.996506,2.435009634432256,-20.44399036557759,-11.977783783364197,56.14668460739648,-33.703368441911934,5.475801999999997,32.569999999999986,1
0.8563317200059969,0.0076803320151018865,-0.3394047885816072,0.11573005968670497,-0.003966580195799079,8.84013706716717,32.004196,0.5207419482563862,-28.496410377271182,-10.764060424581425,58.671069780382126,-43.84776456546006,5.492458,32.56999999999998,1
0.8563622069584008,0.009959217883302321,-0.3380282898294316,-0.08820230028194662,-0.0036160054446648447,8.847001021894041,31.991562,-1.393928846877122,-50.41654543703732,-16.384850640184638,32.247642251748864,2.4563053736018925,5.3925199999999975,32.569999999999986,1
0.85656575492166,0.011012299909176146,-0.33557914893580865,-0.10704694345612416,-0.003885721462970433,8.836555341438048,32.000984,-2.8845571555194636,-51.69812726342369,-16.185853576723385,35.90096429317059,48.399074689744744,5.373301999999999,32.569999999999986,1
0.8582301555388675,0.010190872357757057,-0.33225969396129906,0.1214752276930801,-0.004149734360119218,8.833192205589773,31.987232,-3.553343714431125,-41.43907750375398,-10.400744635562335,47.04431538211783,84.57903094584675,5.314363999999999,32.56999999999999,1
0.8565657025193578,0.01473666669001271,-0.3325200540687192,0.03168637059428588,-0.003917989115377523,8.844863396187922,31.997753,-3.405226371334876,-31.021832960145115,-8.493405644553176,54.84929689742432,-57.11416785557468,5.345113999999999,32.56999999999999,1
0.8585321873529562,0.015582855475458615,-0.32935207240847547,-0.1319688030222574,-0.004099160384715489,8.83337640371193,31.983677,-2.8395554592815966,-31.74701251761894,-9.057270131628368,53.61847872309669,-16.255380726854973,5.364333000000002,32.57000000000001,1
0.8592353282030762,0.01569768876699346,-0.3275330385961602,-0.024038746843723924,-0.0036373644658743397,8.827184202641446,31.99341,-2.3793591843550184,-32.74171819401683,-10.348259971581406,53.990624144855545,-22.660754296076266,5.355364000000003,32.57000000000001,1
0.8585900289481238,0.013870185539327569,-0.3279890207781966,0.13430707608761755,-0.0038418041232186908,8.827235846209014,31.980421,-1.923959293820666,-32.47317096797133,-9.354708907746955,53.6221365246003,-37.91188404279838,5.339988999999999,32.57,1
0.8578741738300579,0.01567911401032645,-0.32909132604349745,0.06057419927596548,-0.003799196778865672,8.839942676774207,31.991869,-1.4149411604127917,-32.60648017754551,-10.28379851522948,53.42605292308415,-35.11867891942011,5.329739000000004,32.57000000000001,1
0.8590176548337126,0.01219840255406224,-0.3293694572236468,-0.13236382034027286,-0.0033705413546945375,8.835754029035167,31.97589,-0.7847297231127046,-31.732348941577524,-10.04456333540715,54.46596832289873,51.84608580014329,5.322051999999998,32.57,1
0.858809256058565,0.015504229735596346,-0.3281051002017963,-0.039950952847432684,-0.0037806374405073783,8.827412702283727,31.986582,-0.25285278098434416,-25.898973250564982,-9.067082421652124,56.88858321475427,27.50038199256789,5.332302000000001,32.57,1
0.8586072632526487,0.011048863826091859,-0.330109149567806,0.138964237138519,-0.0038770165880375623,8.827718028886506,31.973898,0.11074691758840013,-19.032725615481354,-3.2775101349229847,61.7165687780609,16.778017978795628,5.388676999999999,32.52999999999998,1
0.8606016381788089,0.019169255531679398,-0.324045272642009,0.045991107160148516,-0.003906548662158811,8.841450191871797,31.981941,0.4458942967467243,-24.261362383456387,-3.62626613928823,61.98568790804931,-36.42560840818175,5.424552,32.52999999999998,1
0.8675879066770583,0.014483990071239704,-0.30844570159319085,-0.1388437753758183,-0.0034383995659750615,8.832098535271973,31.968786,0.7087505763835079,-51.70712069021556,-27.514274166373184,25.60623790372192,-18.44790535644744,5.3463949999999985,32.52999999999999,1
0.8656949809274816,0.00023586535240447903,-0.3015591589895376,-0.0016770720462233252,-0.003710869789058794,8.816514005852387,31.980904,0.8198768406708352,-50.452348454159576,-37.55190255062471,7.02833473985311,-42.22735500190306,5.261832999999999,32.52999999999999,1
0.8680211965525302,0.016608117595207174,-0.2986164484344661,0.15019064687659145,-0.004082944877338884,8.817409974124912,31.967491,1.2451387762683177,-56.20639136285967,-28.10919893848057,8.178915890872371,16.296443175833552,5.150362999999999,32.58999999999999,1
0.8662185069238818,0.02247188761481836,-0.3154423678412152,-0.012646425311270837,-0.003852896142942735,8.82374095722797,31.975142,1.6105612508831566,-68.20982798912009,-24.782694153234033,10.814587203599457,-13.969826981406042,5.225957000000001,32.58999999999999,1
0.85627164363222,-0.0006487628507985389,-0.33420838712526546,-0.1342421110306294,-0.003695958335453153,8.814389947336736,31.964659,1.8480918575024297,-37.621002825824675,-20.525802129138818,30.598893505991995,9.352693177414157,5.18752,32.58999999999999,1
0.8530013111612388,0.02605901634391288,-0.3416040993243449,0.004554379959923172,-0.003539324890772999,8.81347133441111,31.974314,3.1024458030874076,-16.248232410153626,-7.364037233696709,68.83216904179649,40.32776026440381,5.323333000000001,32.58999999999999,1
0.8493205371712107,0.009559097928355725,-0.3440228340105342,0.13099694741203446,-0.0039035129649791266,8.819420009583967,31.9595,4.453751655028989,-51.702914789954086,-11.401095199587607,35.1791534637627,-37.37706159752399,5.2823329999999995,32.589999999999996,1
0.8531926946976791,0.0100321230988417,-0.3396027504834544,0.010614583951566146,-0.00435848256426656,8.836369936542111,31.972263,5.38104698996866,-70.74240041806056,-5.358073305414796,11.57866145537119,53.62502960901572,5.201614,32.589999999999996,1
0.8589181890455546,0.014316989021000285,-0.3350036584916141,-0.19682757992033673,-0.004138000786125755,8.821417110853245,31.957298,5.08742360344355,-50.356004056868755,-18.475189046094425,27.418436184077617,41.95678837554871,5.196489000000001,32.59,1
0.8630999738961853,0.0042211983800698565,-0.3217277604852752,0.03937913553343564,-0.0035330182342403027,8.809456840458706,31.968903,3.2227834971308007,-42.1137544980153,-20.180386992937486,41.465582697162915,-92.43056228490215,5.137551,32.59,1
0.8632653171186406,-0.00030177725812322097,-0.3188295029259013,0.1342178313810477,-0.0037101625260189497,8.815197313761946,31.957645,0.8482550150055403,-34.425719616160556,-22.507591542579007,47.552243929318834,45.204968749912254,5.192644999999999,32.589999999999996,1
0.8640665060145768,-0.003177669747259414,-0.3173294823958637,-0.042145369226194544,-0.0041196536197558265,8.825818118782298,31.969074,-0.9586976554335023,-35.2738951548922,-21.931453637462045,48.13739438597586,-5.051409224733838,5.2298009999999975,32.589999999999996,1
0.864214041174686,-0.0018593218572103155,-0.3162746039075659,-0.12136087246075349,-0.003950014276159091,8.810933157567487,31.956154,-1.927919140844493,-36.76152941614342,-22.44212433730309,45.910499949397675,-7.449434385367781,5.2208320000000015,32.59,1
0.8650332381191829,-0.003224525109581568,-0.31474111373267283,0.04120268832614596,-0.003675250189041848,8.805874245277941,31.966633,-2.381147597862213,-40.71143934236037,-22.030668059797403,45.003302237989956,71.94481551431137,5.206739,32.59,1
0.8653481041525262,-0.003030455113266503,-0.31295623170083886,0.11276839459110298,-0.0034709611071392743,8.802961539836502,31.954483,-2.324196950701359,-40.37516848316664,-22.245946565790174,42.72653847981191,9.086912289694377,5.193926000000001,32.550000000000004,1
0.8653275894166044,-0.004615199718344493,-0.31256530731466164,0.04451545672660337,-0.0037276179327562203,8.814283073108834,31.963743,-1.9231964861108803,-42.99101101548782,-21.417504320897716,42.716987637224875,-54.376763333107114,5.149082000000001,32.550000000000004,1
0.8671774032618272,-0.0025769712773266056,-0.3130385462182045,-0.15291728864028523,-0.003691958784408066,8.805412679747041,31.953245,-1.5689903424047706,-50.42023906512337,-21.658571434498715,32.8760912129288,-15.608912468703698,5.088862999999999,32.550000000000004,1
0.8645836302946996,-0.005468330387148383,-0.318327374512095,-0.01869077129334208,-0.0041357160109417,8.796190875782253,31.962507,-1.3429198613591138,-59.040067520472036,-22.33083083792152,18.00188618311262,44.69675894663131,5.036331999999999,32.550000000000004,1
0.8597519479466154,-0.0034120064612848163,-0.32959955019227993,0.05410400078690057,-0.0042834682829876085,8.795552873997707,31.949015,-0.8422555422395541,-57.395205044123614,-22.616012332953932,19.199637321922747,-10.38920639629556,4.954332000000001,32.59,1
0.8573227386661194,-0.0034166431445692767,-0.33719842095191643,0.15898859957988476,-0.003718750367650293,8.799906684642576,31.958431,0.2702519839541486,-57.8541821803855,-22.17053923600389,20.291198936183893,-49.69428626355431,4.9799570000000015,32.59,1
0.8500964020217265,-0.0004740950961507561,-0.3474244992208286,-0.0537406837939948,-0.003389936156423283,8.813950459046477,31.9459,1.564478161963375,-55.733401344577004,-22.144951807994047,23.210582525338268,-21.25522076405916,5.020957000000001,32.59,1
0.8528365836857438,-0.000827790480143482,-0.34432724789354957,-0.15997894134551968,-0.002995576710830049,8.798559098298492,31.956327,2.407491420230679,-56.21222453121286,-21.77163916065488,23.44328946406299,3.91179653754016,5.023520000000001,32.59,1
0.8590709024744844,-0.0025607534822221487,-0.3339989978854968,0.048951892217527264,-0.0042593767721527745,8.79058121659647,31.943304,2.4117270136450664,-56.054373633600626,-22.190223901214576,22.18175073320773,-51.86354842423303,5.006862999999998,32.59000000000001,1
0.8598449663074978,-0.00041662306679987723,-0.32969389320005094,0.12546759773247612,-0.0030253317102666086,8.791809716438252,31.954067,1.430453392395507,-57.2377543980055,-22.0733109959055,21.84675972414878,53.23207291330645,4.988925,32.59000000000001,1
0.8618462723513055,0.0009438789415478445,-0.3249155653494583,-0.07223253283128465,-0.003494380385432107,8.79619776404317,31.942177,-0.016540314392684524,-56.092895489970395,-22.33989708719331,21.947036803582336,8.699130126664603,4.969707,32.59000000000002,1
0.8614967125710368,0.0011536726717057914,-0.324147419750127,-0.12275307835508283,-0.003790019470836783,8.780053891531463,31.948914,-1.5402510051883602,-56.530217362676034,-21.984687987561752,23.18478877587603,0.5492922488722418,4.965862999999999,32.59000000000002,1
0.8616370822264405,0.0008327381985908043,-0.3233254985767805,0.05564810049825003,-0.0029264100349785283,8.77403265241011,31.937038,-2.6193042799604394,-54.34426721453373,-22.17242192726382,26.461630870273883,1.572094299425742,4.987644000000001,32.629999999999995,1
0.8614845289276445,-0.0019153744845582005,-0.32356800639960315,0.13260538971669475,-0.0037199994525743733,8.774840507080206,31.944601,-2.9117325019943383,-51.47847069483607,-22.923698850643063,33.91251647580028,11.290631436453864,5.046582,32.629999999999995,1
0.8635976114013902,-0.008979118864553581,-0.31983604877783056,-0.007008218668379803,-0.003748408178719307,8.787154581400774,31.93264,-2.7191139555009314,-37.11325220545656,-28.869055655160135,43.80211509732159,-28.388507521170432,5.119613999999998,32.629999999999995,1
0.8627967782445125,-0.008886666524551097,-0.3249905026058836,-0.14172359326608786,-0.003439341695340153,8.77034773719051,31.943613,-2.419208066490414,-35.88684847218524,-38.61000693128497,37.44282209545035,9.144797744316259,5.147801,32.629999999999995,1
0.8603309829540047,-0.0027466516772483773,-0.32458834980797996,0.02399098631267604,-0.004366548812271552,8.767817706917613,31.931038,-2.2013736566140967,-35.45201545720486,-43.77182570599767,16.430663710522087,44.401730541592414,5.020956999999999,32.60999999999999,1
0.8620757777007799,-0.004501581555199095,-0.32422214286643586,0.12306230869143188,-0.0034075723940404008,8.767305019722386,31.938694,-2.1028834986413987,-42.265788948177715,-51.132229389291126,4.962550485449971,-13.812313180977293,4.903081,32.60999999999999,1
0.8611907066135513,-0.002074972313026233,-0.3229877504721278,0.023711921019270825,-0.0038032405287852355,8.778729340513205,31.92697,-1.9518947908789102,-37.19011230918028,-48.96080787020291,4.793718321596,-22.011617534778797,4.8995690000000005,32.61000000000001,1
0.8645856017580138,-0.0056783013522996185,-0.3195462001253657,-0.1413117158779336,-0.003434978143660184,8.769606433585368,31.938084,-1.6838619961666443,-37.27726445145765,-51.93076025439525,6.31181425661449,-8.30760145536603,4.918787000000001,32.61000000000001,1
0.8620290689569494,-0.00327432462305993,-0.32777966419006904,-0.018217258607151125,-0.004167333283554296,8.757848081103546,31.923878,-1.3103279432624213,-37.84027255410318,-51.94215428093027,5.831646051260767,-16.79903353079183,4.870100000000001,32.63000000000003,1
0.8551622925981838,-0.001367281685414408,-0.34035810466714056,0.10798421150119704,-0.0033077276209003033,8.755694163176258,31.934587,-0.6449150065087945,-39.22083543841759,-50.581513189993906,4.567165750347482,40.267376689719974,4.839349999999999,32.63000000000003,1
0.8509095605080497,-0.002208814320585619,-0.3487237698163726,0.07119725026045222,-0.003689785215771548,8.767953490577309,31.919119,0.6412058530139301,-37.32444871089474,-50.59567048375334,5.891132702716273,-24.16108827424162,4.812443,32.63000000000003,1
0.8525364963978396,-0.003374429432494965,-0.34932032510583466,-0.164345132185541,-0.004052642152359752,8.761852530581837,31.931688,2.0833298189482385,-36.88009166210192,-51.61695612283266,7.297617578674588,9.201107817400901,4.789380999999997,32.63000000000003,1
0.853929818396017,-0.0004747025775841333,-0.3450327702889078,-0.04289105970127819,-0.003609014044508135,8.747710594688053,31.9183,2.621066573306642,-38.790105961009274,-50.09388490695488,6.726071459802772,21.16707567702142,4.774004999999998,32.58999999999999,1
0.8567114911475414,-0.003561025168530734,-0.34053866355338924,0.10810221814939891,-0.0036883123151197727,8.744897928497409,31.928007,2.1154006656386697,-38.07854292649393,-50.77771029242287,10.635848892356316,42.540029473850986,4.772723999999999,32.58999999999999,1
0.8574879968452639,-0.003957841011561495,-0.33656776703636876,0.07876312054367676,-0.005399734772554342,8.753814898334893,31.913633,1.3085515629408617,-35.92070838229436,-50.2029949288961,11.095271789562341,-83.45025696954413,4.716349000000001,32.59,1
0.8587332820310044,-0.00492647547200562,-0.3352214601721625,-0.12607685835683527,-0.0035786331147792394,8.754786151628203,31.925499,0.5952317623469994,-39.04742674664834,-52.66444802072698,9.634206954517339,-10.382549163310866,4.643317999999999,32.59,1
0.8591865779899923,-0.001848857420765184,-0.32952684922736086,-0.049688880384562546,-0.003739043915109895,8.744307070497923,31.910969,-0.1488593037836683,-36.43457986107994,-49.18497022512431,9.72935421074984,57.33552684135827,4.630504999999999,32.60999999999999,1
0.8604167920358793,-0.005481436338358889,-0.3306658581373719,0.08760213688373215,-0.003680696373555232,8.745430325713064,31.922377,-0.44660542433667894,-39.23209793239751,-51.35112626323983,10.13587600875915,91.70290220366056,4.62538,32.60999999999999,1
0.8599578232540999,-0.004831259293423629,-0.32688711200802983,0.12137566704096005,-0.002977438160606576,8.747728925960917,31.909832,-0.4071497129435931,-37.05708540271872,-49.31280436058292,9.769000615014837,-80.1266016835629,4.599754999999999,32.610000000000014,1
0.86156840403721,-0.008234655739286733,-0.3289115415560209,-0.0852324065414786,-0.0037969608611579356,8.7552623616805,31.920246,-0.24771084168918833,-44.078875480318324,-50.47701449959155,16.879251749623677,-126.62644072818667,4.602316999999999,32.610000000000014,1
0.8616441817283904,-0.004107416771173619,-0.321457105577327,-0.11578550680737194,-0.003570795703645333,8.73701785577157,31.907234,-0.24594599435784448,-29.94982394728957,-44.72458454115786,26.422973193311634,133.16712540858381,4.611285999999999,32.60999999999999,1
0.8656188986067803,-0.0005832293215425942,-0.31541525637766965,0.034018425755231625,-0.0032477077539292097,8.73869842871237,31.918255,-0.24062576862909002,-20.048106837950805,-51.541911748338826,28.211727856740698,-17.821314996775357,4.69713,32.60999999999999,1
0.8621093306141453,-0.007196010480574496,-0.31971876984895603,0.1140739612620549,-0.0035593112400207363,8.733045290773367,31.905031,-0.10400411760753239,-25.656443691346443,-50.66219370273873,32.87433207974409,-117.1782246636229,4.703537000000001,32.609999999999985,1
0.865893119514981,0.0008091779265755619,-0.3134760839326691,0.03936811861648252,-0.00415274805393747,8.745887861851298,31.916012,0.08758770758861681,-23.11517613223939,-47.489316277031975,29.180625885830374,76.72398699371362,4.727879999999999,32.609999999999985,1
0.8625044353056017,-0.004974451485210669,-0.3274475921225704,-0.14407661047645354,-0.0033479734312978167,8.734667790133242,31.903616,0.24779692716361768,-22.193255527970148,-54.6389971580325,30.1328734880351,35.781075751914386,4.720193,32.61000000000001,1
0.8562764330626906,0.000618898892891868,-0.33412675611359677,-0.017617957239816507,-0.0032404924504066982,8.72706904543756,31.914165,0.363778456712713,-17.272137928884312,-50.17217177273553,30.272119111565523,105.41430833517742,4.7073800000000015,32.61000000000001,1
0.8556089743881593,-0.0044700027320143275,-0.34617946439554304,0.0857487893520939,-0.0038087424944301582,8.72186869915854,31.902224,0.9051672286051816,-17.703819916692904,-50.047318276759306,32.269259604632644,-39.79615458747568,4.734286999999999,32.61000000000001,1
0.8494247500096396,-0.00547848566811507,-0.35520575887345107,0.13993420457093525,-0.00316176302720992,8.735354937635433,31.911749,1.8473231034872128,-22.627455264395202,-49.09978006459822,34.20057635225972,-80.40564733681794,4.740692999999999,32.61000000000001,1
0.8480707443111751,0.00032773249593070087,-0.36243853397727493,-0.11766604251725056,-0.004243286573192002,8.739049755551363,31.899567,2.7626939363548924,-15.414293060590431,-49.034638027481755,30.105905413649587,-14.520351113081487,4.7624739999999965,32.60999999999999,1
0.8459013343660604,-0.0034960055678478893,-0.36003479503988634,-0.10723757005319681,-0.0035937721901777016,8.726933554035151,31.914087,3.168652505528653,-25.297122666386883,-41.916756705498365,26.67315166865287,-27.170114125222927,4.720193000000001,32.60999999999999,1
0.8527159837928104,-0.009542625865911283,-0.3541490642811275,0.11018246920541534,-0.004792575096839517,8.72145648715299,31.901646,2.9745022648179824,-61.44372891618356,-22.428547387261908,34.770722814216434,51.032684600397516,4.721473999999998,32.61,1
0.8563094238774808,-0.007758658325486226,-0.34413163882491815,0.2382025645630374,-0.0036777334947385126,8.730603333308993,31.91152,2.169887168518968,-54.120579698420904,-23.66824342415746,26.628643543842063,-0.29972375039445687,4.749661999999999,32.61,1
0.8577731301494835,-0.0052772809048033265,-0.3355237892148321,-0.09078793886839412,-0.003910172601093294,8.735949579184865,31.901241,0.5775964611787608,-56.085829253052545,-21.46078373464591,26.02508316803713,4.704615435124523,4.781692999999999,32.58999999999997,1
0.8593987196071555,-0.0032961959803506835,-0.33231534882276575,-0.1201134170973074,-0.0033616848408442807,8.722370373536036,31.912172,-1.225796478348795,-54.70310894064177,-21.761756275922387,26.343827491082255,-13.482710396879042,4.793223999999999,32.58999999999997,1
0.858936980534538,-0.0057842550215835686,-0.3320733605245342,0.00995623793004014,-0.0037663154138663293,8.719060435664055,31.898928,-2.1553140854346506,-54.97839520185108,-23.776697418477685,25.379292556107337,-3.0312128471428186,4.808598999999999,32.58999999999997,1
0.8602982692714025,-0.005995171102700379,-0.33017744582409886,0.01903696415112763,-0.004216333881226095,8.723907689274878,31.90997,-2.1648299791955106,-53.058447171007984,-25.121986039924163,26.813820369009917,9.320291246330164,4.799631,32.58999999999997,1
0.8611779857213804,-0.013285510782942522,-0.33494029741599896,-0.11767655518725295,-0.003793597298844568,8.731730819913638,31.898401,-1.7124962069254555,-42.65984993016863,-21.78008725936065,40.181037113514584,-13.662403551150542,4.8009119999999985,32.609999999999985,1
0.8538356207923571,0.0025443629304427837,-0.3450351429175873,-0.12518599832493094,-0.003653512225312519,8.721150883159682,31.909283,-1.1793698191103101,-34.658626708313854,-12.134263981622516,53.04059369370391,46.84838003663313,4.812443000000001,32.609999999999985,1
0.8521788055392128,-0.002723371951508999,-0.3605509627256575,0.04893741015546926,-0.0036088258149060332,8.71935818681682,31.899305,0.07540223984408284,-33.490770297822955,-13.012772750186642,51.53865186597846,5.646179348673921,4.838067999999999,32.609999999999985,1
0.8427354793244919,0.0020555892799616208,-0.36687104764267564,0.17112246439658046,-0.0034229800839676396,8.725606912379178,31.910719,2.0299902189261423,-28.99187201432499,-12.457804775173448,55.83505242336414,-37.44552472166955,4.844474000000002,32.609999999999985,1
0.8402524868918486,0.0015247994548749323,-0.36871919980063395,-0.04428194364058498,-0.003517175191664076,8.736466650320223,31.899958,4.0694115499963335,-27.505837740279834,-12.111459941194488,55.207085479001236,-51.033009082714976,4.8572869999999995,32.609999999999985,1
0.8517494055584269,-0.0013785498357971365,-0.3557669384639296,-0.1355895347275831,-0.004087750557167235,8.719196757249774,31.912756,5.662207435538974,-30.23598941495066,-13.65665308812166,54.409956150118376,-5.114262664270906,4.9034119999999985,32.609999999999985,1
0.8541380152629233,-0.003062248131148448,-0.34644778959554323,0.17491057632981155,-0.003819965681518295,8.718790741616754,31.90036,5.5943293870110375,-28.603171301016683,-12.096578385560193,55.339074645258854,60.234917059552316,4.900850000000002,32.609999999999985,1
0.8532603191478314,-0.008170800506790041,-0.3500056762047243,0.03377521492795656,-0.0032967570344785355,8.734270250428576,31.910011,3.9184384571889828,-25.527475596347145,-12.619594648234875,57.016569491323814,18.27623647706595,4.893162,32.609999999999985,1
0.855827232633654,-0.007154353774711698,-0.3427192855848598,-0.14762066902597634,-0.004065603936760101,8.726035159327692,31.899204,1.2595644655379645,-27.03444971708663,-13.187801465356948,55.2886063415353,8.315093508732017,4.903412,32.60999999999999,1
0.8591247113646975,-0.010304362712700212,-0.3367013995336243,-0.00042694802373175356,-0.003662707132360082,8.717413514596915,31.911568,-1.6145775266138773,-27.795480404700964,-13.757284631726979,55.55918437748156,10.924201961775712,4.913662000000002,32.60999999999999,1
0.8580128450236987,-0.005631826549445241,-0.33556900982834253,0.13585959834386346,-0.0036760388115697016,8.72342556225338,31.902285,-3.764387359542988,-27.820151039009144,-12.956852553051048,54.79495531629672,-26.49193691533881,4.922631,32.60999999999999,1
0.8576257806794039,-0.003966364685272799,-0.33720159664351435,-0.03929642619672374,-0.003287680374819432,8.73936458285527,31.911419,-4.9212246200401735,-33.409455789677985,-14.069351602252771,52.89797742729607,-15.819480979272273,4.9290369999999974,32.60999999999999,1
0.8583828272689676,-0.004861007753342271,-0.3356897665701262,-0.11313395177627679,-0.003911289989480109,8.733284691283965,31.900396,-5.2915090312153925,-35.44950748818434,-14.470699520563628,50.01603086193349,9.125046432623423,4.909818999999999,32.609999999999985,1
0.8585431215050111,-0.005757308464100243,-0.3356656377295125,0.013655290067600322,-0.0038502437934555436,8.734667095873105,31.91036,-5.122885503101478,-35.52572675626375,-13.771030322317232,51.10762589944257,7.0089112086773095,4.885475,32.609999999999985,1
0.858253529958357,-0.004798041724901254,-0.3360706415996087,0.024557949820975002,-0.004149788300488518,8.735232386842076,31.89981,-4.466919018713123,-35.816545927717776,-14.166028018279922,49.95525527155145,-25.321269969116493,4.877786999999998,32.60999999999999,1
0.8590156190359262,-0.004633438228827021,-0.33459156961008135,0.1071024817335109,-0.0033098518268041065,8.738534506087976,31.911163,-3.504026547272241,-35.67529617212226,-13.865730289630456,51.24496208225042,-20.038725625053424,4.870099999999999,32.60999999999999,1
0.8578470167685194,-0.005747611008757108,-0.333726256424034,0.04586990953987343,-0.0038440684703823264,8.753181016644405,31.898415,-2.6807451772057935,-35.749680565918446,-14.113804667724306,50.371606689805766,-44.723304657023746,4.868818000000001,32.609999999999985,1
0.8601743319219307,-0.005248196102803084,-0.33302105201752485,-0.1344828865548889,-0.004139701519958365,8.748280400671646,31.909185,-1.9300280992760752,-35.699773975005286,-13.90194269993588,51.090599386104834,32.06179180513405,4.863693000000001,32.609999999999985,1
0.8589328296360593,-0.00545407358878447,-0.3363575860614182,-0.05199558185252067,-0.004105070448817056,8.735483372562067,31.897974,-1.3626197523259176,-35.897847566491926,-14.083325526939037,50.63075697173659,25.009712072004703,4.862412,32.609999999999985,1
0.8551750735048987,-0.005800263030852367,-0.344614976982754,0.023799401908890627,-0.0037790156523604024,8.735268679639184,31.907612,-0.6718140156926409,-35.83587865574987,-13.93553005041654,51.07103603039274,20.306619817865197,4.858568000000001,32.609999999999985,1
0.8513759904769114,-0.005142180032565365,-0.35445005178825895,0.09028861315057435,-0.0035380775886187247,8.729229463000156,31.894455,0.44545426580684655,-35.83149890085122,-13.881526977713033,50.34752143781624,-14.626824446240237,4.856005999999999,32.60999999999999,1
0.8467960646480178,-0.004755583545788606,-0.3647391297459662,0.11565234998922713,-0.0041000485139500685,8.738668289803105,31.907385,1.8092935934603878,-35.6852059885996,-13.770861685498131,51.19824811823178,-26.814595404505308,4.853443000000001,32.60999999999999,1
0.8430621745340225,-0.0041119677093100675,-0.36916357275958844,-0.12374939129214661,-0.0036780582428085806,8.740807138968963,31.894304,3.063646337285565,-35.496812324865985,-13.898126289142313,50.762296869628855,16.86891318105121,4.8534429999999995,32.609999999999985,1
0.8467829283293429,-0.005782788510513953,-0.3652286031485872,-0.10814735141177591,-0.0037657553740899604,8.723317286080123,31.9076,3.6694507926350926,-35.37966018035136,-13.777838936475975,51.22353268301829,32.16951637275606,4.850880999999999,32.609999999999985,1
0.8504067273915783,-0.005054670033951704,-0.35773910437679146,0.04719442769121367,-0.0033158672082824374,8.720381506575201,31.89522,3.280555840279393,-35.94687242949097,-13.968674845691744,50.41167581376477,11.153598176682728,4.848317999999999,32.629999999999995,1
0.8544424546934619,-0.006779762051762922,-0.34721230035026657,0.13280584175857116,-0.002905074080971479,8.722536613521148,31.903343,1.9562530901537003,-36.49245979340579,-13.400665422158124,51.318722986182536,2.633314841935997,4.847037,32.629999999999995,1
0.8575755589440538,-0.005095349026225538,-0.3409590642293765,-0.01505562996012054,-0.0026621970550280293,8.733870292144903,31.893452,0.42707894214418485,-40.71948234714017,-14.139535491644084,47.944827553429505,-34.291757585429124,4.845755999999999,32.629999999999995,1
0.8603225963386761,-0.0101949972426372,-0.33395625694118364,-0.15809193125588947,-0.004037012893165751,8.716850483784619,31.905998,-0.9054523728849307,-43.37038557109822,-20.50456672626063,42.4271130827984,7.508675863313923,4.844474,32.629999999999995,1
0.8596755770448298,-0.0019018249712742866,-0.3295120774998832,0.011612158363195384,-0.00476385268652534,8.71046614680078,31.892656,-1.7106867118420745,-55.22439824534575,-21.596388202376502,28.087049022490604,17.819339639025976,4.838067999999999,32.60999999999999,1
0.8625199061350125,-0.019659631559749688,-0.32316705214306113,0.0805023803101776,-0.0037867844378726917,8.704170959096118,31.90527,-1.8898747282161097,-55.340696566876225,-30.00616246136487,-7.231468054477327,22.131197664959693,4.7996310000000015,32.60999999999999,1
0.8619593229583308,-0.019839570105964936,-0.32477364401947834,0.11319726578986485,-0.004227661406390498,8.6863934164738,31.892145,-1.5078583667174192,-59.86321699003949,-30.080561686291887,-1.6718528413467262,-8.913551418015967,4.7970679999999986,32.60999999999999,1
0.861851716962289,0.000764799841182545,-0.32626195070184344,-0.12667415489488365,-0.0035688783823221246,8.673525014636455,31.901482,-0.8759218276892681,-60.59263492394193,-25.73435531955987,7.811009489375634,-8.457442119762796,4.9136619999999995,32.60999999999999,1
0.8620785415866273,-0.005927717028064618,-0.3240676972982667,-0.07103604867110178,-0.0033392979687166735,8.657592471499832,31.888117,-0.8189527039180221,-50.97210796436732,-29.53639372437275,14.217998437474305,-22.29435011154096,4.871380999999999,32.609999999999985,1
0.8629140395084457,-0.008949348263557675,-0.3179328641768613,0.06387390434311316,-0.0035650882879114114,8.646953084223147,31.90089,-0.8015434680526422,-54.62848067047383,-26.484964538444544,25.550128156827583,8.532282893712638,4.905975,32.609999999999985,1
0.865292873202322,-0.012251168153856065,-0.32188993449089887,0.12655572909985038,-0.0039021030497545612,8.649785832134274,31.887583,-0.2575809789300517,-53.271902772355304,-29.649190768789197,19.92137725505511,-6.997203344234997,4.914943999999998,32.60999999999998,1
0.861846270841688,-0.006586834391123663,-0.32892091904752174,-0.0927954902000053,-0.003941394428319841,8.653113047087608,31.896866,0.23623153616078518,-53.97056331329153,-29.164589867541487,21.021165849275132,3.620753416040041,4.911100000000001,32.60999999999998,1
0.8544211517397051,-0.010456460053657664,-0.3449962578906087,-0.10829730644421523,-0.003762206927975576,8.637117466223371,31.884874,0.8106897793431418,-47.85467822095711,-30.537094153782498,28.47941342964985,7.167311598852695,4.893162,32.609999999999985,1
0.8510142062003865,-0.00162016763968556,-0.3536778073648612,0.04902865742563034,-0.003918067051049844,8.631627436984665,31.894367,2.0590346083494837,-39.487103749564895,-26.12025664046567,45.861217417314506,30.114661564078432,4.894444,32.609999999999985,1
0.8457818441710341,-0.007995757016653508,-0.36090652933732975,0.15253499883895277,-0.0037427809903069933,8.631260260564407,31.883102,3.4059251477664474,-32.184503317436885,-35.912797671924366,36.370879979341275,-3.207857017745187,4.927755999999997,32.609999999999985,1
0.8438437707913691,-0.008464965596622194,-0.36595230368077736,-0.04851923868398169,-0.003063107523514199,8.640084647576582,31.892153,4.303486705744143,-30.875845920476436,-21.557392629849684,49.559448263772666,-24.264725708966616,4.946974999999999,32.609999999999985,1
0.8488181467811557,0.023822886968854432,-0.3600948740182435,-0.15653260660711724,-0.004237038181801313,8.63333003105379,31.879818,4.112101414004662,-34.07034732695796,-10.861436543232482,58.28707225042727,-38.70046519557438,4.830380999999999,32.609999999999985,1
0.8504054096823869,0.010986483907281921,-0.35636794095711644,0.10322248366994337,-0.0032216622257429284,8.63031638116806,31.891682,2.431984428903455,-29.00878233206099,-19.09029246245251,50.5234570142329,-4.6020262026948915,4.879068000000001,32.609999999999985,1
0.8535428752651198,0.01312025724094754,-0.34507953959652155,0.0854829927928558,-0.003932344559111506,8.639378283851785,31.876446,-0.037761029857983824,-27.229641160669807,-13.874890561473583,58.08915852405608,-101.53612605827065,4.877787,32.60999999999999,1
0.8550409409971272,0.010634475614584867,-0.3438344543593762,-0.12191818214233724,-0.003899411317048144,8.641103752902827,31.888964,-2.1356704675010407,-31.541964098453754,-16.97911825516729,50.81330209452767,-35.06630095389486,4.894444000000001,32.60999999999999,1
0.8548227168022176,0.013465180929557218,-0.3398295631457844,-0.06283310382798506,-0.0036221415085933933,8.62590042607277,31.87646,-3.33246948869303,-27.72597759943197,-16.00649362033754,55.38603799960434,95.77347347638215,4.894444,32.60999999999997,1
0.8561084414844546,0.012038146102315902,-0.339618799688912,0.06771752991546226,-0.003103838057409439,8.6241304126808,31.887552,-3.5724697163899046,-33.40620009918497,-13.317349461283401,52.89935219531468,92.45621473076652,4.8854750000000005,32.60999999999997,1
0.8564560523139786,0.0218651096215138,-0.334551362279059,0.10808871407296627,-0.0035676027961889486,8.622927107129893,31.874872,-3.1883403594574053,-60.036046173140015,-17.628561169485668,26.637552091159957,21.067403104903956,4.881630999999999,32.60999999999998,1
0.8585420070413909,0.006236019602073432,-0.3322684582180302,-0.026481439122269565,-0.004009001242103745,8.632902721718358,31.884434,-2.512972501157111,-49.7231592270299,-28.419849218160646,1.7386453798932597,-5.382563653897802,4.806036999999998,32.60999999999998,1
0.8602776424538825,-0.005781067135468904,-0.32488947864505807,-0.14620615506773044,-0.00364186114433716,8.6103563972773,31.873596,-1.7134600072775643,-58.97880509034453,-32.224408795448895,-24.073996619638233,-21.652080145962564,4.856005999999998,32.649999999999984,1
0.8641900035086987,-0.005590005157002522,-0.3166583651470896,0.017734173950558693,-0.0034667400102488923,8.603203260363252,31.882933,-0.7804655461576735,-55.31393381030632,-30.416090256467665,-10.311337529360843,40.77576519026964,4.9521,32.649999999999984,1
0.8627988138207312,0.006173925358014516,-0.32845578739949516,0.0799224008092266,-0.0038359781166627627,8.592812599326592,31.871632,0.03417997357717302,-45.00203871405235,-22.156723715060867,44.06762431450349,-40.461081516558636,4.763754999999999,32.64999999999999,1
0.855586286112268,0.016323427975912366,-0.33813691760261416,0.11392559564255617,-0.003265224118461539,8.606955542609073,31.883032,0.15300094269758313,-36.48506166416078,-10.598247341033728,47.00125605609853,-3.724576714675287,4.743256000000001,32.64999999999999,1
0.8495285748460504,0.017638734852542363,-0.35451297101214313,-0.14345102390931314,-0.0037054099168082905,8.603817216714368,31.869406,0.5668803724256497,-20.388031173091246,-11.903664775309927,59.69978043964281,58.25932283273045,4.77913,32.62999999999999,1
0.8469885418020999,0.008595772085572351,-0.36217723099834453,-0.06160256582145539,-0.003873260096960694,8.590068701344723,31.879442,1.6566628238647325,-17.674308284873398,-16.537312271006886,59.363871029935005,-198.381228830258,4.841911999999999,32.62999999999999,1
0.8448646717605323,0.009805642208792917,-0.36203496825342174,0.07749252990365234,-0.003940067711148024,8.58585265276236,31.866941,2.9878525951138433,-17.794342468881613,-11.904004768519838,59.57809660358274,13.031560324692663,4.857287,32.629999999999995,1
0.8424851772838313,0.01313069619235081,-0.3683919938045777,0.15361219177243554,-0.003885971957037183,8.59397418691424,31.87702,3.9672259791564364,-22.01382601334754,-14.371944024950249,59.12549822433004,99.74108053748522,4.903412,32.629999999999995,1
0.8541441845111734,0.009400627165827943,-0.3493468161022696,-0.12175212168404688,-0.003746826688573735,8.596001620151727,31.864674,3.911108931253459,-36.36352287732331,-10.497084263104348,51.92599203316709,32.87356489835646,4.890599999999999,32.62999999999998,1
0.8556800977234081,0.0238747972263982,-0.34300876872306063,-0.09325238050209943,-0.003550327493584924,8.58487314864001,31.873861,2.4615515963198322,-58.3982471914543,-30.237209496454415,7.045226730436602,86.74759554689774,4.795787,32.62999999999998,1
0.8616007592124367,-0.015768243744985914,-0.32674459942638495,0.05152015040854754,-0.0031466585052777416,8.583178416571538,31.8616,0.25798811513246167,-54.447354872054014,-23.512713349086567,22.004332891436434,27.674442524667178,4.722754999999999,32.62999999999998,1
0.861960938327612,-0.016109231087247204,-0.31742070754026913,0.11230254051844679,-0.003610714551268168,8.590030837575005,31.872868,-1.3068449281072039,-58.998464845848076,-24.864583450356484,-3.5057930851228787,-35.70683158611879,4.479316999999999,32.62999999999998,1
0.8650660162914866,-0.009487748674750579,-0.3184140017012445,-0.07549770646095827,-0.0035468560985782325,8.59727623035216,31.85996,-1.4152793814564033,-66.64571886549359,-20.16185981848479,0.7190753077388707,-108.39648133873614,4.711223999999999,32.64999999999999,1
0.8653757527400873,0.001505532506962697,-0.3223644636049637,-0.0958857475021873,-0.0036656611205746425,8.576944498175083,31.870134,-1.0860707660978,-58.09290288951451,-21.854195943087348,19.274359815023978,22.62751808372412,4.745818,32.64999999999999,1
0.8582594391676841,-0.010609490023439399,-0.33836611342411355,0.04718766854771263,-0.004367176142653518,8.572099739960738,31.855036,-1.0500879047302902,-53.75190703160918,-28.81648583764339,14.515656541112492,-1.3332182218795625,4.615129999999999,32.65,1
0.8513133678261878,-0.008584376453629358,-0.35167143826075337,0.1429607812993284,-0.003946927456861649,8.569057628169839,31.865229,-0.1494741772767515,-55.7887707991393,-28.736261036829447,16.001762671959167,27.32797915376663,4.631786,32.65,1
0.8481287715948248,-0.0029664684133639397,-0.3612629123517808,0.027861580338310314,-0.0041045797576880665,8.585096411960183,31.852737,1.764319820078835,-55.324922211792945,-30.67686307676435,14.585042199440283,-125.54241581822187,4.662537000000001,32.61,1
0.8496078234430411,0.0068073121433359675,-0.3596920288688799,-0.18532388888971094,-0.0037885759112253176,8.571910256947863,31.8608,3.677843749587359,-50.627036600303775,-27.800278994722383,29.521818472545384,123.770928386997,4.661254999999999,32.61,1
0.8485764320732624,-0.0027767529276569846,-0.35849227779071735,0.024692919721642132,-0.0035027526291991308,8.56095740242023,31.848328,5.275198674327505,-50.95866091374335,-30.064451948889715,24.930840649894208,11.886914796163122,4.670224,32.61,1
0.8489190621553766,0.010168927137532589,-0.35619717114915916,0.14901434988208884,-0.004027953446562892,8.564620791127657,31.857706,6.416978263506214,-52.0198746867965,-30.052927231563412,25.236706932698258,32.466982244789754,4.666379999999999,32.61,1
0.8487109929630338,0.004311779651946839,-0.3598558686102225,-0.07256542857573117,-0.003957186317505742,8.57308398998484,31.843172,6.837208195656996,-51.06031242677585,-30.767482676704493,23.94278965791686,-17.834649944158123,4.638192999999999,32.62999999999999,1
0.8489200851490417,0.005102363593910831,-0.3529514518918574,-0.14688654706551232,-0.0038915027269340965,8.549236937133632,31.854168,6.520816589124653,-49.417515451238785,-30.33495167896543,28.260840529582456,-78.98704114751487,4.640755,32.62999999999999,1
0.8519527664555863,0.0034039928102238127,-0.3479953407091114,0.17004999109453153,-0.0038943863622699585,8.546084173379779,31.840666,5.563688221586408,-47.30538540041016,-31.494908532684487,28.388640177441133,48.97522744707348,4.648442999999999,32.629999999999995,1
0.8588048470395628,0.0039642891234952645,-0.32977847951414446,0.016451552735004617,-0.004142328132271894,8.55956424295086,31.84982,3.864317826362073,-46.01957403430718,-30.801985985257392,33.01203122797504,2.834998217212072,4.6381929999999985,32.629999999999995,1
0.8634470462707647,-0.001303214154763401,-0.3227959033851349,-0.14286526004883635,-0.00402620140774061,8.54991392895568,31.838951,1.405960188340915,-43.64275696102738,-31.788933645526708,32.168619779106514,-41.932399336867746,4.635629999999996,32.64999999999997,1
0.8636172878534327,2.8591320900448474e-05,-0.318467300605952,0.0605193996879223,-0.003466647487207272,8.538915975271722,31.850683,-1.20188227897387,-44.615537470890416,-30.89903521811378,34.37209246671504,-4.484990318591846,4.635629999999999,32.64999999999997,1
0.8612524846143297,-0.00463543427074564,-0.32854827556150157,0.13521534297599022,-0.0034747015067322913,8.550743177032079,31.83635,-3.453217588169537,-46.96711424033541,-30.303827374352583,31.060106739472833,18.460966713556378,4.652286999999998,32.64999999999997,1
0.8533531806429455,-0.002284808918654929,-0.34511853329123365,-0.08891508725821404,-0.003859196049559143,8.554810822092826,31.845234,-5.38702666186229,-47.68666192142468,-29.14743065524849,32.85946216501531,-19.17261745312694,4.6510050000000005,32.64999999999997,1
0.8565427071519905,0.0016550397231450344,-0.34132192680466905,-0.10149785459409078,-0.0035761873951863548,8.53945329174699,31.833315,-7.54991498725233,-46.917592988968764,-29.002841715768373,31.644894906319568,9.756326330665798,4.642036,32.649999999999984,1
0.8573983909407383,0.0023600246314208215,-0.336148356902145,0.02834964928876031,-0.003793484238813623,8.535567476716308,31.844349,-9.334868078799582,-47.62983704563973,-28.497122197074557,32.88177183939823,-23.268427592181705,4.630505,32.649999999999984,1
0.8576646966295823,0.00018557745246492087,-0.33696470623456165,0.01986287196971683,-0.0034532182161774692,8.533930765791146,31.82905,-9.798738426884658,-46.84582458309153,-28.763285919069318,31.722430806849854,-22.81160702406952,4.622818,32.649999999999984,1
0.8574698454252343,0.003629355526359592,-0.3358556912445853,0.08826314716636027,-0.003956640646143092,8.529560565500297,31.839512,-9.054565090768163,-47.41972425146185,-28.2209562733476,32.94236122979462,-44.068651007421565,4.61513,32.649999999999984,1
0.8569242749848354,0.001699258865160266,-0.3376207766615188,0.07951528285258469,-0.0034037498138188445,8.5329210320741,31.830126,-7.783483687846883,-46.89454246347398,-28.45143689743478,31.53754061936765,25.30391316725257,4.608723999999997,32.64999999999998,1
0.8573741587164243,0.0032641500906657344,-0.33655547696726634,-0.08288942815970848,-0.004036133146682329,8.535670043799993,31.835976,-6.320624348372093,-47.54343824381118,-27.86855174378374,33.540862141001156,32.110015770529166,4.608723999999999,32.649999999999984,1
0.8588796061784018,0.0022343721442892018,-0.33826647305043217,-0.11538560461412907,-0.003914555878974375,8.518289631147903,31.824417,-4.7576116030867155,-46.88352290332938,-28.369550754618977,31.51870812602788,28.54141010159527,4.606161,32.65,1
