chest_ACC_1,chest_ACC_2,chest_ACC_3,chest_ECG_1,chest_EMG_1,chest_EDA_1,chest_TEMP_1,chest_RESP_1,wrist_ACC_1,wrist_ACC_2,wrist_ACC_3,wrist_BVP_1,wrist_EDA_1,wrist_TEMP_1,label
0.7033573761690035,-0.19425714878356945,-0.6119685713910382,0.024653852446296764,-0.0018202659765965991,1.2873156009128874,32.685806,-0.17468110340078374,-34.693589771387344,-17.782115687126847,32.23128128781957,-34.45270411821186,0.22284299999999896,32.64999999999997,1
0.7067447131607836,-0.16579634507223995,-0.6200350792604433,0.022040069505218928,-0.001633384137420757,1.2864122390805648,32.685104,-0.08668071704037726,-8.565453195418018,21.094010782834413,60.844144100708704,12.252398125249897,0.2228430000000007,32.650000000000006,1
0.6743619238839135,-0.18672191674279154,-0.6513096386003246,-0.06857549347949077,-0.0015297102424618244,1.285199160858003,32.682453,-1.0982221950037119,2.3694918296495224,12.989327344457486,64.13536420344671,8.980091800953149,0.2241219999999993,32.650000000000034,1
0.6756175456216665,-0.19963410881254667,-0.64267425046671,0.011932034794398744,-0.0023019111933416784,1.284964785951211,32.682545,-1.3831905591014773,14.385104188031923,1.4421142611718705,60.447164200770914,-55.9497489443914,0.2254009999999998,32.650000000000055,1
0.6775540799998492,-0.24635741070659492,-0.6380352030210349,0.04030065915206674,-0.002204764467875332,1.282814717859064,32.681656,-1.0571985438445717,-7.303998952143699,-24.069570857505592,56.29275276732535,-76.56413694012079,0.22412200000000007,32.610000000000014,1
0.6799417795554696,-0.30344293825545837,-0.6070597211876729,-0.026621506935662315,-0.0013283021540114882,1.2816877588611018,32.678955,-0.11188188844571285,-29.6360106942627,-20.854591331176334,45.37016515148905,160.48312402868746,0.22540099999999963,32.610000000000014,1
0.6893323478002816,-0.33278122940696814,-0.590313573890986,0.018826048616394395,-0.0011915279753440056,1.2796627329457588,32.678627,0.9668854891923678,-47.88465018879059,-16.40528125469872,53.003050623440295,58.72358910446878,0.22028400000000106,32.60999999999999,1
0.6921723445747267,-0.32904578217438657,-0.5833489282404088,0.041802087826529694,-0.0020794303973268057,1.276891664815915,32.67606,1.374935068274935,-49.1163623582673,-9.875404244586159,35.55002600464159,-101.40069412382404,0.22028399999999898,32.60999999999998,1
0.6932011873253913,-0.2956380521302118,-0.5924748754871809,-0.06837670321417874,-0.002118995740142325,1.2781503224701865,32.676754,1.202336744703977,-62.22774403276774,-0.6119172016932423,29.008975345294814,93.76729455490407,0.21644700000000056,32.65,1
0.7031979088110176,-0.2697055992629293,-0.5960501472458095,-0.017650044513143413,-0.0019875850701380395,1.277761119691126,32.67455,0.9152918483927688,-53.21936804574693,10.378796743070204,33.97149643628328,14.376961692094353,0.21772599999999934,32.650000000000006,1
0.6918520705481997,-0.2731853274944937,-0.6053401498450183,0.048464229420745374,-0.002611717047040508,1.276519596930786,32.67268,1.5115809253851795,-50.98657018343809,8.176808249158052,40.31493540197786,-161.05505668409387,0.21644700000000022,32.65000000000003,1
0.6883715299187291,-0.26971431397803475,-0.6128294735292801,-0.014382768045819618,-0.0020800967252615696,1.2779333374000064,32.67377,3.3069986045506927,-49.81747307615218,9.15154440011896,38.55520696628817,-16.21931317557949,0.21516799999999928,32.650000000000006,1
0.679272824542978,-0.2988075968994424,-0.6137319837293019,-0.0038558278578165466,-0.001685254888374612,1.2784267509497682,32.67267,4.938743636536061,-48.10053002048273,7.234172703626534,43.88947628070365,-17.75998670358783,0.2138890000000003,32.65999999999999,1
0.6529798055918329,-0.3165172837736674,-0.6232658836810033,0.027719941596094817,-0.002234720832044005,1.2767474821630564,32.670403,5.3039475485262715,-47.96456400291596,2.6744045740776246,40.2043536680031,9.34947688855183,0.213888999999999,32.66000000000001,1
0.6751367263251015,-0.3208555964674028,-0.6066166530904554,-0.0794067203794253,-0.001588657181515541,1.2789136362771205,32.668888,4.779873862629404,-52.73798324955019,3.826791689832232,38.56299959631571,31.71807266195309,0.21260899999999966,32.66000000000001,1
0.6919668858998483,-0.3064932018888234,-0.6068006041523998,0.0323013345384164,-0.0019335725775136172,1.2761517308578365,32.66995,4.100129868309507,-52.678135468747435,1.1495543355948816,35.256349533174735,-46.31578370094493,0.21260900000000194,32.66,1
0.6971729061497653,-0.294191609519216,-0.592745767653612,0.06709163156203864,-0.0020666409830083538,1.2761704377041452,32.667408,3.266628642973338,-50.50331426359445,6.6416753551662815,40.66618477570226,-103.73072160930055,0.21388899999999778,32.649999999999956,1
0.640514533894226,-0.26284197233106094,-0.6655536162031355,-0.053822039754678426,-0.0019246018042094921,1.2784429735918363,32.665657,2.397321732825256,-46.99570501646834,10.943487564786643,42.64712622274882,-27.594542475031705,0.20749300000000148,32.650000000000034,1
0.6344548045245552,-0.25522346094703374,-0.6898170579632049,-0.0015927861167781834,-0.0013138662155781943,1.2782183128758777,32.66707,2.4979133873189463,-44.690653422810755,7.126235624042333,45.06243615974237,24.6825539870958,0.21388899999999905,32.65000000000001,1
0.6479447059587813,-0.2615884096248014,-0.6601500031397335,0.08693232048968243,-0.002052590747971884,1.2815497382971688,32.664337,3.694575287174367,-45.55351962416369,8.315528216910264,43.477760055184056,-36.65503183433064,0.2138890000000006,32.65000000000002,1
0.6943833633190495,-0.27081046122011726,-0.5954407954457883,0.001990929177143723,-0.0013851615113183095,1.2818569735272307,32.665436,3.9866308461568667,-45.892469077361746,10.312860046085255,44.55051921728393,99.25655857672895,0.21388899999999983,32.65999999999998,1
0.697207255061722,-0.2752362458414511,-0.6059229034880534,-0.04481819452083189,-0.0017070614336447602,1.2860295937763848,32.663536,2.7100844270296904,-45.35372441208458,12.428998779032037,43.97896997206057,-60.051754919530545,0.21516799999999953,32.65999999999994,1
0.6879813707080208,-0.28615487893996916,-0.6063953529968502,0.05360963284171854,-0.0017306375704729555,1.2811307231310065,32.662663,1.762648984639542,-46.39299361937015,8.01150493086524,43.86734568702989,-65.25397330089497,0.2138890000000013,32.660000000000025,1
0.6852105414880969,-0.2811286089838688,-0.6060686176093696,-0.03304024557293188,-0.002091891061010125,1.283239440077831,32.66279,1.79360059064852,-46.2151812404964,8.637717984052733,43.387094435918385,78.78733430954567,0.21388899999999814,32.65999999999998,1
0.6889630975730312,-0.281352359043618,-0.6110494930310298,-0.05515276469053551,-0.002092634223620654,1.2840779321508247,32.66088,2.041683167600249,-46.150043298571,7.852013804651688,44.14900674077616,1.509305322049491,0.2113300000000009,32.680000000000035,1
0.6876584308083713,-0.29111786805698425,-0.6026868093196361,0.05716126553011933,-0.001950523710239461,1.282695001275771,32.660656,1.9627060687062274,-45.845545538773344,9.25437613632729,43.17256929957342,-107.86337255393747,0.21260899999999913,32.68,1
0.6904574703772477,-0.28162231705545704,-0.6056804742191625,-0.02225420739216667,-0.0014590193577844793,1.2810197836880686,32.661743,1.1211448334769871,-46.13058270959041,9.128163656785452,44.333918524060124,61.39665140943523,0.21005100000000052,32.68000000000003,1
0.6915532318354464,-0.29081019371619876,-0.60127551961641,-0.082535014916256,-0.002082634650460632,1.2824780819308617,32.66033,-0.06456801429591823,-45.928312829367165,9.721997136593437,43.63371520440168,73.13790530344644,0.21132999999999877,32.679999999999936,1
0.6918858021380853,-0.2864381191198257,-0.6018270043759908,0.048512559551922206,-0.0021173000659763523,1.2798887155626777,32.65869,-1.1178053707603623,-45.69118917087481,8.033954761640269,44.88593932168369,-42.467220968075935,0.21133000000000043,32.65999999999999,1
0.689053783862733,-0.3018314605570942,-0.5956015548859325,0.026887820561938638,-0.0020195604666422215,1.2796112949738023,32.65958,-1.674434808647755,-45.4237267699107,7.893554219170419,44.12896681064875,8.167865686737864,0.2113299999999992,32.660000000000004,1
0.6915751669135997,-0.30873195133400577,-0.595385787348681,-0.06421213183385396,-0.0019292109928840883,1.2797204625553569,32.656315,-1.6804806782221082,-46.24991175724128,6.710257246363407,44.1591153206861,57.52024401614348,0.2113300000000008,32.65999999999997,1
0.6910308420820713,-0.31893545528036366,-0.5871844943923217,0.04460238556751689,-0.0018063134513199401,1.277756354896115,32.658386,-1.54342773057297,-45.89713624462441,6.551590104502547,43.736789203150174,-54.18109671212994,0.21260900000000008,32.66000000000001,1
0.695025646267123,-0.32149603438962965,-0.5847646531567192,0.03177077866320391,-0.002373771201565756,1.279710179238066,32.65877,-1.706950148869901,-46.791196506525374,5.736459247969432,44.13201414784202,13.998107821925284,0.2126089999999998,32.65999999999997,1
0.6963241844629198,-0.31714529275730685,-0.5840095158557862,-0.04681131822342282,-0.0015561726618835729,1.274553763451311,32.65726,-2.0674992855482395,-46.000778595751655,6.651359997974747,43.77904072562598,69.987566018486,0.21260899999999974,32.66000000000002,1
0.7001209034262186,-0.3050983568219978,-0.5825072814412969,0.00111354573936462,-0.0018636763936209705,1.2755492394580659,32.657364,-2.568827667455808,-45.81523084872331,7.851989230125567,44.46184749119493,-43.49522389760066,0.21133000000000016,32.65999999999999,1
0.6933752604626182,-0.3006489651366317,-0.5912564691684302,0.07195108372355719,-0.00209368120546508,1.2747598820118047,32.65913,-2.87448119428923,-44.85516628011241,9.277402372002467,44.959813838390694,-30.1096553711184,0.2113300000000009,32.65999999999999,1
0.6918869579364492,-0.31254211428292056,-0.5945550133293123,-0.006607114809877779,-0.001957770402236629,1.2760850701465265,32.65776,-2.9675879724122614,-45.63238923437525,7.788990171522698,44.59758392995172,70.08405626543194,0.2113299999999995,32.660000000000004,1
0.6978623225609041,-0.3074523147260672,-0.5831970295564156,-0.0606298620502049,-0.001893238004139645,1.2759669712042623,32.660244,-3.0235440187060045,-46.15899756958544,7.619873407389255,43.711792401189555,-55.55108953826416,0.20877200000000143,32.66,1
0.6915763352967281,-0.3163006533657373,-0.5937697639993236,0.037050828027279006,-0.001184932354463811,1.2742961687047354,32.659603,-2.7071096544905147,-46.91828034709346,6.3675025940947885,43.579373177548064,-30.346036274213958,0.21005099999999835,32.65999999999998,1
0.6894200041544185,-0.32329440083815586,-0.5872948755133183,0.05936795962552366,-0.001755041634741931,1.2723136069676402,32.657623,-1.4717553211952596,-47.67765959165696,5.401095903841793,42.8219500093757,56.87509636237277,0.21133000000000063,32.65999999999998,1
0.6848127478721434,-0.31958456798136664,-0.5975676728762606,-0.07094743793962621,-0.00170832469725973,1.2744452001203155,32.657955,0.16816220754073266,-46.81780424603452,6.387149955540369,43.383038634205406,26.60729227471396,0.2113299999999996,32.65999999999999,1
0.6810011935813607,-0.329100099074175,-0.5975891375222089,0.004446839382765003,-0.0019402644651055649,1.2716037700882203,32.6595,1.3799703795605491,-47.33074804212287,4.933621803545921,43.27868990262712,-60.54598777539947,0.2113299999999992,32.65999999999998,1
0.685831258096133,-0.33336759388156734,-0.5884945680113891,0.060690640071538085,-0.001507509296727297,1.2714141108132413,32.657753,1.7031473372617254,-46.930452577119745,5.437150343640024,43.430184033442714,40.42416222948194,0.21005100000000035,32.659999999999975,1
0.7000092513288562,-0.32907052378563634,-0.5699754781124862,-0.0178044316575775,-0.0016369771762255916,1.2733844239194911,32.660892,1.2594443084529183,-57.1090820069953,2.7013244987817875,43.202025456784824,59.489134355791016,0.2113299999999994,32.66,1
0.6749716789792175,-0.35611120709067634,-0.6003401864298326,-0.07748409432802027,-0.0003923562897078667,1.2721844008041625,32.662598,0.6891450201693106,-55.29462507699856,-18.95289560800621,30.104846714953077,-31.555014387100695,0.21132999999999963,32.68,1
0.685641898281666,-0.35986557338509745,-0.57140247301285,0.042462000549555096,-0.001348050121191452,1.2722912668478539,32.662933,0.10301388200699131,-43.19313490716376,-35.7333434829147,1.2062945560596678,-69.66231336159149,0.21005099999999907,32.67999999999997,1
0.6871076134306247,-0.3597929059429655,-0.5777750598858473,-0.01248542901171427,-0.001983302515588204,1.2750880537584077,32.663025,-0.8789168814858231,-33.81004582669152,-48.08761254398006,3.509338224871545,71.68706410877658,0.2074930000000005,32.67999999999999,1
0.6939547787735113,-0.3558632152802947,-0.5679849545429785,-0.05390944326681082,-0.0019377784723299649,1.2770835228086992,32.662663,-1.6738245686068733,-44.12705177573788,-28.271860365112182,40.0589142189255,-59.99687251794416,0.21005099999999888,32.67999999999998,1
0.6746305645384821,-0.369795652963166,-0.5884942751422984,0.0921233105606287,-0.0022619670615788828,1.277975943266621,32.66447,-1.5015973251275943,-44.76243361385721,-26.964729757891767,42.16101896804097,-237.76631906907363,0.2087720000000002,32.65999999999999,1
0.6850375423496725,-0.3511473828722601,-0.582362815094363,0.0377874904835748,-0.0016227687490251055,1.2781401964600116,32.66614,-0.5497214463888164,-53.21954341430295,-26.868960829968643,17.982705825033737,-98.37171684902843,0.21005100000000015,32.65999999999997,1
0.6905169873743869,-0.3655590990885244,-0.5749513976983139,-0.08640800584991391,-0.0019645022529687587,1.2784836421266421,32.66788,1.1958754554115403,-58.593969134932685,-28.1571004638248,3.595568203512907,126.97411579244385,0.20749299999999934,32.65999999999999,1
0.6799355648892985,-0.3942370277050643,-0.5590875398223125,-0.007202483239678401,-0.0013360743956062683,1.2764363813987907,32.665257,3.464862479777926,-57.22729054632593,-26.10150451726263,5.909853429168613,250.20001859986093,0.20877200000000062,32.65999999999997,1
0.679780536599893,-0.3744728822937739,-0.5681291483342842,0.05212551585031059,-0.0015829426327113485,1.2778586433353554,32.66684,5.2691878747900915,-57.21645790833997,-28.98172713748813,2.443184867666864,-59.93463956048408,0.20109699999999928,32.68,1
0.6871251004671897,-0.352903114544421,-0.5819026566411817,-0.03538701078010336,-0.002191954242176424,1.2764998823233347,32.664307,5.5888618513542525,-58.68480335852811,-29.82416575406607,-6.9761771761144775,8.999701835411592,0.20621399999999973,32.68000000000001,1
0.688727585609761,-0.39230821298669427,-0.5597393289761596,0.04125985765313841,-0.002794420041422508,1.2756191249037085,32.666702,4.21048437803589,-59.04393301357412,-29.70164603460038,-2.631141909432314,-34.9840090649681,0.20749299999999896,32.68000000000001,1
0.6786917874434971,-0.37719665244805556,-0.5733876120739132,0.08555077741891189,-0.002084791453651655,1.2716455973697793,32.66552,2.5196385317649974,-57.14915645009224,-28.22829908759143,7.772751068872407,50.17026215755006,0.2087719999999997,32.679999999999986,1
0.6936294704536647,-0.37425216927268745,-0.5630140212577087,-0.054696864991847574,-0.002063603795800045,1.2736689810780195,32.665276,0.7353658323026508,-57.41030697422407,-28.631783190423775,0.3046239275506025,32.42453086874402,0.20749300000000076,32.67999999999999,1
0.6980230279772065,-0.3653512808747434,-0.5543378572379974,-0.013554183987175157,-0.0017709966790118853,1.274454598716731,32.665543,-0.886595462519452,-57.896200376891194,-29.560516737421107,-11.31406145116083,-112.01682296943116,0.20877199999999924,32.67999999999999,1
0.703475605587121,-0.364880872822151,-0.551965890563588,0.04482312229069177,-0.0020451077367233737,1.2731471672258137,32.6654,-2.3384174846227004,-56.38271142386818,-28.65941921153999,-12.811751431693894,-100.16284457939541,0.20749299999999982,32.680000000000014,1
0.6965539997819443,-0.35707595988472457,-0.5608996595546837,-0.03528922456127716,-0.002626704911509164,1.2723111433844232,32.66648,-3.2178997637297755,-58.6722743525112,-29.10986443003779,-18.30108819987385,215.03861237446804,0.21132999999999968,32.68000000000001,1
0.7053344644956709,-0.35614561337613243,-0.5513770913321976,-0.05674890888264696,-0.0022582565505131227,1.2674057583688145,32.668434,-3.5737716342898005,-59.9352821153951,-31.849075184030237,-4.32180855285245,10.459191871551374,0.20749299999999984,32.72999999999998,1
0.689779007794766,-0.3554450921549094,-0.5790949141345882,0.03311994432179101,-0.0010445573151504797,1.2693371748965223,32.667683,-4.045782305026282,-37.577618033127166,-39.30117636197916,15.828866504023269,-276.5970792688749,0.20877200000000024,32.72999999999997,1
0.695600540734193,-0.3518156130023714,-0.5646732616242752,0.02903458221692618,-0.0019096420874600867,1.2669695608629599,32.666706,-4.007113675149282,-48.99068742383856,-34.27955263379917,20.800340917587242,30.762000855582137,0.20877199999999946,32.73000000000001,1
0.6924686413747931,-0.3501353357443288,-0.5763225051346756,-0.03993063837083111,-0.002716253269599194,1.2654247183088825,32.667038,-3.15693296968524,-58.62677834513779,-26.170257063853544,17.306700390279055,97.71905159634628,0.20877199999999974,32.73000000000003,1
0.6906275989542673,-0.35724051678136703,-0.5697439939076653,0.006211355223678249,-0.001968780470073986,1.2614451802281965,32.667614,-1.900225558820403,-56.59376658725753,-28.65079759788268,11.587151600802988,44.00137679963039,0.20877200000000046,32.730000000000025,1
0.6926683274934474,-0.35522357020262674,-0.5697329678463924,0.05543703285516702,-0.0020000262637797986,1.2648730680715234,32.669224,-0.4637454868777572,-57.511022550645556,-27.265281682598324,12.52733975453823,170.6667764477515,0.2100509999999995,32.73,1
0.6992739274582255,-0.3473744052589735,-0.560843327400654,0.0030309487212214167,-0.0019934969227017145,1.2622679668464531,32.668373,0.6033157880287456,-62.4752822721434,-29.140482325800615,1.442677192494256,56.7646040613139,0.2087719999999992,32.72999999999997,1
0.6975223788949172,-0.33651955303794046,-0.5733781449313898,-0.06489597023919975,-0.0016248156070714182,1.2661542169544204,32.668434,1.0979167811866337,-44.16810388008502,-38.45006784814052,-8.858932809415403,-10.99361378842725,0.2087720000000002,32.73000000000001,1
0.7024921560403092,-0.33701686430740285,-0.5651678110349154,0.040284597105522554,-0.0025324503350379014,1.2663344261029612,32.66872,0.7428684160626364,-60.96306087661736,-35.998861397493776,-11.213832390102969,-52.81905009491092,0.20749299999999946,32.729999999999976,1
0.7003181243363188,-0.34189258581922904,-0.5680084401488018,0.04220628288626532,-0.002162086095556954,1.2636149978438806,32.66931,0.04019364712719489,-31.890335145635564,-45.40889898899873,-26.383995989650938,29.361665840577015,0.20749300000000032,32.729999999999976,1
0.695781770150051,-0.35244731871127355,-0.5687621257706231,-0.06445307423547707,-0.001692220396297033,1.2641552623403614,32.671124,-1.1680588054380814,-28.978529287417725,-53.72950843312686,-16.10049525503017,-67.35150370791126,0.20365500000000028,32.72999999999996,1
0.6954409317135101,-0.35727860913201964,-0.5647880504692245,-0.02715880791786802,-0.001998725620898389,1.2639833409878958,32.67116,-2.281246314531605,-33.103252338016446,-51.823452112386455,-18.421689982232884,-91.42573403806625,0.20365499999999984,32.72999999999998,1
0.6872322940012006,-0.3546838537198964,-0.5755880139815304,0.03133688381002542,-0.0019500433025699977,1.2659187932049671,32.671356,-1.9931819889391587,-32.33541181788123,-52.80436371436457,-18.068462139504643,8.973247244122696,0.20237599999999994,32.730000000000004,1
0.6923528527860047,-0.35193826502339953,-0.5790911022604742,0.04565660922101997,-0.0017843186130587104,1.2676128134003766,32.67059,-0.623380111186399,-38.449070943564735,-49.34916108696286,-17.46212622766461,55.693585953738065,0.20237600000000008,32.729999999999976,1
0.6770335963679324,-0.3586189881045359,-0.5839737593158891,-0.05754027184331547,-0.0020739040436289656,1.2682755989248846,32.67247,0.8306563171632945,-35.67411423681441,-51.093884452445,-16.698475546934663,3.2888447733181656,0.20237599999999953,32.72999999999997,1
0.6822204548333753,-0.3524743309658614,-0.5888152985819334,-0.0037892882262510665,-0.00252450174222042,1.2618986811479522,32.67182,1.8766897758698955,-37.51831618835433,-49.53543540872658,-16.89808119106591,-49.52579100902935,0.20237599999999983,32.73000000000001,1
0.6720409935987145,-0.35812109390540203,-0.5943114864179689,0.0704375242480285,-0.0019482076453000037,1.2683127671099754,32.672413,2.3070690142684374,-35.11962731575036,-51.55726252047359,-16.45321312062711,47.303918715661865,0.20365500000000072,32.770000000000046,1
0.6804377042475637,-0.3675941920953581,-0.5750387240524334,-0.009241440471652445,-0.0019274517927163996,1.2666045344370855,32.67441,2.043417659167677,-34.95212165727628,-51.125454964830965,-17.4286773291075,25.095633206371073,0.20237599999999917,32.76999999999997,1
0.6659271674431999,-0.36350581713032126,-0.6004511910942063,-0.08088883209989305,-0.002134739156071428,1.2712841396668613,32.675804,1.6397103273589937,-34.6382458261543,-51.88911712176588,-17.190032752815714,-22.3286540525384,0.2010970000000003,32.76999999999998,1
0.6826872264727768,-0.3510820304298468,-0.5880641436078361,0.028850087372089602,-0.001713006812620405,1.2760477753382502,32.67751,1.1928384229055626,-34.196282420571244,-51.16955011773643,-17.351154840560415,-28.92138974044142,0.20109699999999986,32.76999999999999,1
0.6997163680850202,-0.3808113500535559,-0.5482307392172467,0.045954711904720946,-0.0022364445172483086,1.2666344220605537,32.679165,0.4795033538911232,-35.31749140086954,-50.69909986733109,-17.502167548216086,36.451010946812,0.203654999999999,32.789999999999985,1
0.7035177577163594,-0.3879926956301611,-0.5432152869260188,-0.032772342076214135,-0.0014515204063203085,1.2627908483395065,32.679432,-0.11792771113842282,-36.09765869054555,-50.429990097298436,-18.86814107631657,19.817971680879424,0.2010970000000004,32.789999999999985,1
0.70234102650889,-0.3768138395884189,-0.5439593327494593,-0.03297840554425518,-0.001752979324829901,1.2683627403446325,32.680004,-0.8977557944640807,-31.549204469287943,-52.28929205303408,-19.33937474153408,-54.11307346471971,0.20237599999999958,32.78999999999996,1
0.7032231937041262,-0.3772100717499518,-0.5434787644039782,0.04053144368367718,-0.0023294214677992186,1.2664118626390397,32.680656,-1.440943541895318,-32.56410809242739,-51.65853468097543,-19.475753735544572,0.1964875081948483,0.20237600000000044,32.790000000000006,1
0.6992660433444614,-0.37502701841882996,-0.5506786412734908,0.041975430480536514,-0.0022992575718797574,1.2662447036413393,32.68198,-1.208989142704659,-32.52962344660372,-52.349120776030034,-17.93596086505325,47.346313489767184,0.20237599999999994,32.79,1
0.7003209698053082,-0.37017726502500076,-0.554333147686595,-0.060089761833659085,-0.0019412681022186878,1.2703620169752627,32.681,-0.5446973191373885,-33.45871782297506,-51.641052158230224,-17.586195752448134,-11.156350895751766,0.20109699999999991,32.79,1
0.7016215176053927,-0.3703038610762723,-0.5476498248690869,-0.021377718619432013,-0.00201892508815777,1.2654193370465716,32.681965,0.11869618550778806,-32.37031649468905,-52.4119537822653,-17.103070091601698,-43.441681391363716,0.20109699999999903,32.790000000000006,1
0.7054139932763249,-0.3691779414912559,-0.543113910116987,0.07537525532143577,-0.0020860146193107092,1.2671377174529845,32.681747,1.0504196316147563,-33.4008811080879,-51.894234455048014,-17.529100225790497,33.37837867201857,0.20237599999999942,32.79,1
0.7027714414609514,-0.3696489706089522,-0.5468019722961691,-0.007720479385536854,-0.0019363010084740122,1.267240732670121,32.683586,2.063191189236714,-32.998686975727686,-52.32494430656421,-16.623800372395394,35.43918040652777,0.20237599999999917,32.79000000000003,1
0.7023765229781745,-0.3703337220215542,-0.5469133706748792,-0.05670115223329501,-0.001625643122171559,1.2670086161139775,32.68371,2.817064930692879,-33.37455999817811,-51.854850114345545,-17.260921768409613,-22.209859581101977,0.2036550000000001,32.790000000000006,1
0.7011585720823991,-0.3758582180347343,-0.5488028160795555,0.05649429234743803,-0.0027697803310061863,1.2652654642578043,32.683758,2.9397962711112715,-33.32604473682648,-52.4405567614818,-16.088730195664883,-47.48888296032243,0.2010969999999981,32.789999999999935,1
0.6986670560945826,-0.36538469511386185,-0.5494438803599462,0.023092414958633272,-0.002235397460332235,1.269755037873992,32.684902,2.96026758005559,-33.29360559025265,-52.35894487501847,-16.49795550753013,38.18318958862453,0.19725900000000085,32.79000000000001,1
0.6978729723773922,-0.3750252269614126,-0.5552297140117537,-0.03992040778073392,-0.001987742601530231,1.2675774711739156,32.685062,2.35928410113968,-33.27224136238571,-52.48535998042962,-15.542497520281092,23.210584241686053,0.2023759999999988,32.80999999999999,1
0.6964571463844657,-0.36826718706826794,-0.5536774785706132,-0.019737378408637925,-0.002036762176599182,1.2631636786372138,32.687523,1.259560128943704,-33.16236115659093,-52.25029941851051,-16.578581308600068,-28.49500839559506,0.20365500000000067,32.81000000000004,1
0.6940763440622754,-0.380859832696018,-0.5604036244039793,0.0579565297869802,-0.0017118087595514551,1.2644534511080936,32.69,-0.04948625270763344,-34.16799803196432,-52.199289807240945,-16.344183562848308,-7.262751254642294,0.20237599999999983,32.809999999999995,1
0.694763785052796,-0.38271163990667234,-0.5504276666622533,0.013110945774683625,-0.0019211106944067272,1.266577521013388,32.691814,-1.2837828196614716,-32.08041181775659,-52.74253485832926,-15.75635536275602,43.11632438493695,0.2049339999999991,32.81,1
0.6990588828332835,-0.390986222247157,-0.5445769164200545,-0.06540882434361503,-0.0019611058138997266,1.2662247562382418,32.690956,-2.1434652532015486,-23.02815853091658,-50.53602758492595,-26.46132508372145,-21.763316073233263,0.20237600000000008,32.80999999999999,1
0.7013001361833302,-0.3742168698571222,-0.543357569758577,0.0005355821523091638,-0.0018775156995412441,1.2650246003731285,32.69167,-2.694827885961325,-44.797109744749626,-40.82056804406908,-32.92886869786899,-22.025678621060226,0.20109699999999966,32.80999999999998,1
0.7046365827821803,-0.3419511347992485,-0.5625470993647336,0.07044404231925255,-0.0018139669816890072,1.2673634448051043,32.693893,-2.747490798714288,-52.22418870333525,-35.9429578876303,-14.299325617843497,31.3846108936006,0.20109699999999966,32.80999999999995,1
0.6909674716572808,-0.3609129430326058,-0.5668612999531482,-0.009235882056723746,-0.0015558617915030412,1.266769004623642,32.694008,-2.3751360073931433,-55.36375983638285,-31.923046031435668,-5.8298817564367456,41.93101291472925,0.20237599999999942,32.809999999999974,1
0.6982326398350654,-0.36828128072373245,-0.562963802354102,-0.042654431780066206,-0.0016100913787142402,1.2661077144037822,32.695744,-2.0218168979874998,-55.921650098228326,-33.575820729347726,-8.905030119149421,-2.229703757737382,0.1998180000000009,32.78999999999997,1
0.6953922633204979,-0.3584321160536996,-0.5631672330305052,-0.016325574273224668,-0.0014800331899576817,1.2653681427898202,32.69434,-1.9539224726311766,-56.722680685918206,-32.927820292457746,-9.623348677892956,-36.0195072898232,0.1985379999999985,32.78999999999998,1
0.6961872721765959,-0.3523880832164583,-0.5629654021514839,0.07418603513406292,-0.0020518776919139074,1.2666304053616484,32.695736,-1.7291350494142028,-57.816689584513774,-31.48133641367393,0.8729440308035943,16.577254746634484,0.1985380000000008,32.79000000000002,1
0.7066190650128276,-0.358028803772178,-0.5521169222816615,0.011084320214224735,-0.001844505473078938,1.2672736480526343,32.69691,-0.7569919056239829,-53.84562948568322,-31.508446687712393,4.292907051584868,12.061326622683184,0.1972589999999984,32.79,1
0.7050608371658794,-0.41079169971406665,-0.5191554097040642,-0.059186733688409446,-0.002014297637090487,1.2676359192799924,32.696667,0.7693167371967221,-44.43551650634944,-36.129564165815516,28.2843833286767,-77.52170623048819,0.2036550000000007,32.81000000000001,1
0.7127022696005085,-0.3814621094234171,-0.5255856745119901,0.014754624933633753,-0.0020732926967938522,1.2646541251851782,32.699333,2.467584858017104,-48.80272233439577,-29.681755387098107,32.52448290219984,1.4747997289920054,0.2062139999999998,32.809999999999995,1
0.7131805466025568,-0.36465478884603936,-0.5339019129129012,0.05845383618055988,-0.0021008971363808892,1.2665622775651593,32.69963,3.5725651133634067,-46.85585197550723,-31.45538582234418,33.219855960121045,84.91083923037552,0.20493399999999956,32.809999999999995,1
0.7117771011321963,-0.3616511677263828,-0.537986405503247,-0.04789526311733706,-0.00210423420766137,1.2649398999217516,32.69978,3.5003972509912438,-54.35017308933261,-22.096099993438113,21.507773205721048,132.82690233292712,0.20493399999999923,32.81000000000005,1
0.7167999452691867,-0.35922006829537284,-0.5352280177471543,-0.052937289077610056,-0.0014617001921437096,1.2623102360968326,32.69908,2.531314635670566,-52.44401649930283,-26.23348785253884,26.976560807751657,49.62956913569169,0.2036550000000001,32.81000000000001,1
0.7203115585715747,-0.3656243911360833,-0.524864987379562,0.050226982380237976,-0.001998523767955921,1.2612773535464776,32.69782,1.031472132431694,-33.59821266657918,-30.919340596248247,42.08810574233287,-98.4399583724068,0.20621399999999918,32.81000000000003,1
0.7173432221833791,-0.3655576008800211,-0.5266059155176889,0.0014915329373245492,-0.0021430100911594713,1.267809232898058,32.698452,-0.27130797106296944,-22.114366854658606,-30.045649620928238,49.89174291313495,14.537486608366404,0.20493400000000023,32.81000000000001,1
0.7192244016063462,-0.3678224478393558,-0.528143308769899,-0.054702891491816084,-0.0018979122098613911,1.2632783261029306,32.697998,-0.8129912160925631,-46.958694516604304,-28.314164520800276,20.19924836795792,10.240458915444835,0.206213999999999,32.80999999999996,1
0.717306946535448,-0.362463917585439,-0.5291718821878048,0.0054825491492922,-0.0030779600689260665,1.26572366665836,32.69769,-0.4800079789005289,-71.14142995539333,-28.92364409648315,-6.1843653919165265,-28.40586484368418,0.2023760000000004,32.82999999999999,1
0.7248976787921326,-0.3514075721269009,-0.525835721549309,0.06548959496266649,-0.0016923126145738873,1.2603929191058487,32.699757,0.16041039326420278,-52.474570748294056,-25.16002076738379,14.432774776620063,-158.65846275148664,0.20365500000000042,32.83,1
0.7200763816285588,-0.3477956497613746,-0.5281518625588957,-0.046695790702631315,-0.0021479311844506688,1.2646147080883416,32.69566,0.5945026183615504,-57.61848495297035,-31.567418343137692,13.731222279561731,-19.025853586570832,0.19853799999999922,32.82999999999998,1
0.7204509160481944,-0.3747940467878245,-0.5292529811966863,-0.016837267221307663,-0.0014372339935779085,1.264970948784066,32.69677,1.0696890639164984,-39.879602455815665,-44.59189229216992,-13.661942391629047,29.729234751514394,0.1985380000000008,32.83,1
0.7063247058364783,-0.3687755173028689,-0.5365946696199717,0.0691778645490989,-0.0016977742256796475,1.2639449148434043,32.697132,1.2076062316745506,-43.09590535065508,-45.57364591229429,-24.06174626350504,-57.39873140292368,0.19214299999999906,32.81,1
0.6943593251660164,-0.3721499148790422,-0.5621940473686183,-0.015522393219087365,-0.002219691515046072,1.264626447780548,32.6946,0.7244778415083546,-54.32601299781937,-40.37806915570824,-1.274147247578295,98.95045058377357,0.19470100000000032,32.809999999999974,1
0.7083640097551739,-0.3607772589558582,-0.5418659179442241,-0.05781042251800968,-0.0022081447901667285,1.262181637211305,32.694344,0.306747722087735,-47.077590943952124,-38.463490982018136,-15.489208784992032,82.45355236963681,0.19342199999999868,32.809999999999974,1
0.712329794437554,-0.3221018941456831,-0.5518482775065333,0.06905048220238404,-0.0018328738104340732,1.2643058499774027,32.69474,-0.05372626556111579,-53.055798798056315,-34.61343552355399,-16.395046502326853,-316.40882041635297,0.19981800000000052,32.81000000000001,1
0.706570887486282,-0.3503525787059892,-0.5548393753871638,0.005800498639576346,-0.0023855753341732833,1.2670640668321362,32.694614,-0.6726298797850555,-50.546398746012414,-35.432382055812575,-21.140236049647967,-244.8041994455817,0.19214299999999954,32.829999999999984,1
0.7255935124196546,-0.38735342375737025,-0.5198679690740574,-0.03234211610002616,-0.0016477573097991242,1.2643229799416673,32.696888,-1.1032669958350108,-50.5346596567387,-32.009360362724564,-19.893579905514546,84.94464417728798,0.1959800000000002,32.83,1
0.7219438851410622,-0.3595281283854778,-0.509413895761216,0.021213565344455204,-0.0017763777623463698,1.262599334503915,32.695286,-1.4591297098716025,-40.89570624746213,-32.94608293273404,-41.03703807405865,-132.5719293664362,0.19981799999999947,32.82999999999999,1
0.7280740451266569,-0.3749796802145414,-0.4998630056531505,0.008453746052003394,-0.0016834293065601845,1.26394671901385,32.69601,-2.246672192368474,-35.50229848899731,-30.76853159590791,-41.01427933626299,-28.86251989744139,0.1972589999999995,32.82999999999999,1
0.7009428775846982,-0.37364174747225554,-0.5589199210814122,-0.04434041594413433,-0.0017570441574740426,1.2609224014287204,32.695328,-2.9506100867941703,-30.345114445618034,-32.200689505925986,-50.43452591884205,150.29580727348085,0.19981799999999975,32.83000000000001,1
0.6823993949483039,-0.3466471830503355,-0.586200198170293,0.023178099195942048,-0.0037291448548800337,1.2614635644047396,32.69549,-3.231786098723063,-33.50986969432937,-28.095908340284243,-44.21944700772265,75.45511815790005,0.19853799999999974,32.830000000000005,1
0.6861506522424113,-0.3685761044308837,-0.5765513165608965,0.0378477913339706,-0.0020737443565361025,1.2612440615096017,32.69438,-3.2661919817528333,-29.074673831952925,-28.260331979346265,-52.312907428512865,7.363627663430296,0.1985380000000002,32.83,1
0.7243127592976185,-0.3493568989487045,-0.5262686834587407,-0.006308247870878293,-0.0021441635711628272,1.260540443216329,32.69557,-2.750865452115584,-22.17234217175178,-25.43248189878463,-54.61761230149182,165.16985359932093,0.19853799999999897,32.82999999999996,1
0.7058681262435793,-0.38351421209022346,-0.5434912845737675,-0.039497317718939065,-0.0016662792775034795,1.2645362318245055,32.695557,-2.2951543305194044,-24.68739352075807,-24.668076696750656,-56.044291756536545,20.888817286013655,0.19981800000000094,32.81000000000001,1
0.7029398300112754,-0.4067098010309286,-0.5168855314157632,0.0004902901168834117,-0.0017540534892141642,1.2615660418555348,32.69445,-1.4019024738562305,-28.206377019628057,-25.71562212217261,-49.98042518730557,74.92916745752322,0.1985379999999985,32.81000000000001,1
0.7205079743618226,-0.3951416898096981,-0.5089650051504988,0.07422042884860763,-0.002267714759211896,1.2626264616009157,32.693592,0.12737963235616442,-24.76466280373512,-25.823150704831665,-53.80161440127151,63.479542052633974,0.1972590000000003,32.810000000000024,1
0.7137175142704067,-0.3852039376942513,-0.519707748979847,-0.050981014867480814,-0.002515598080258893,1.261318028326943,32.69405,1.311625078388172,-22.744605996365188,-25.370868935466497,-53.7546713617567,33.03262426903224,0.19853799999999883,32.809999999999974,1
0.7125975902314692,-0.39043967500038124,-0.5168589658021921,-0.026170122685817206,-0.001530015986292703,1.2620580070715088,32.69375,2.393314802241453,-22.60663097612463,-25.665599085655902,-55.41988496431391,86.82669582078886,0.198538,32.80999999999999,1
0.7203257006902704,-0.3767828392855018,-0.5162166206207396,0.0867224467336777,-0.0021783854551855556,1.2662508818688396,32.694286,3.224534597822425,-24.71534320985811,-24.031375673286743,-53.87027753459923,-58.9623392220494,0.19725899999999924,32.80999999999994,1
0.7132903096508275,-0.3803698951738115,-0.527105445427398,-0.027798218590934114,-0.002233822516506746,1.2610560265282849,32.692196,3.3014917826356815,-28.548084052041457,-24.04386505613135,-53.67084818749451,-43.28619260997437,0.19598000000000007,32.809999999999974,1
0.7095676419706846,-0.369009415313726,-0.5296573227717177,-0.03830815479631854,-0.0023403272582474457,1.2627422136161222,32.692516,2.845202700408257,-32.932945120963325,-23.79684825180936,-52.55897539289827,-45.8506071243171,0.19597999999999946,32.809999999999995,1
0.7147576743530623,-0.40139925701550233,-0.5149259634234878,0.06713136442410267,-0.002399466005672219,1.2623197909984178,32.69167,1.90128908017158,-30.021767949003014,-28.59153130341352,-50.053485644652234,-17.165446406255377,0.1934219999999991,32.81000000000001,1
0.7115768110054912,-0.40698677145473516,-0.5131960034100556,-0.005372996518140519,-0.002032279082281154,1.261648098209991,32.693268,0.6666568248368104,-19.774760812881166,-37.03168407065178,-47.69548059377331,43.86623447756622,0.19342200000000043,32.809999999999974,1
0.7139363581509013,-0.4247438693324362,-0.4988089738338893,-0.05722273030828864,-0.0015274573611169856,1.2585206274525786,32.692802,-0.6317723604850577,-14.5197108065827,-42.8752186510419,-45.00964620612455,4.990665480597185,0.19342200000000057,32.810000000000024,1
0.7129266784411958,-0.3883544834235319,-0.520487666908298,0.03793866841817028,-0.0017815877684411296,1.261872276316213,32.693344,-1.7007651443133285,-16.053720107115165,-43.334470974558975,-44.14392965913659,-42.523443501379674,0.19214299999999956,32.81000000000001,1
0.7082488336250714,-0.38550135782983497,-0.5332202885907118,0.054398958277051705,-0.002107476926823572,1.260160626700076,32.69165,-1.7763807735825252,-21.309510445853444,-42.635577586975664,-41.35733407315624,31.236430237904656,0.19214299999999992,32.83999999999999,1
0.7124912420913035,-0.3986651559566814,-0.5170894271690849,-0.01722661004031123,-0.00204584820029652,1.2614659031617805,32.693462,-1.2077867147316323,-22.323293138247127,-41.24231601236495,-43.496355705967424,45.30436946686543,0.1921429999999995,32.84,1
0.7258315725372437,-0.3480940938400931,-0.5194172639943099,-0.045788360820100765,-0.0022533224905390377,1.2620012550034871,32.693726,-1.1908576157137274,-40.436181387729604,-34.30737658733376,-38.56219966262469,-63.35788933143635,0.19086299999999995,32.83999999999998,1
0.7081936355110364,-0.3794391995795951,-0.539121476535031,-0.032543695164007846,-0.0015800348464938049,1.2610644973743508,32.696075,-1.4920361405490106,-52.50919574178187,-31.23994981471285,-25.508698567233232,-57.63655620316944,0.19597999999999977,32.84000000000001,1
0.7326386243302819,-0.33454329722155357,-0.5399851690252135,0.07316668511446324,-0.0018320813421224443,1.2630630554857132,32.69542,-1.5266388912510997,-51.667547197164005,-29.17004635905486,-24.16816231317771,-17.347516382069873,0.19598000000000027,32.810000000000024,1
0.690345670057005,-0.3652057744229997,-0.5534410036520306,-0.021776138992696245,-0.0017893419636295313,1.2664419737822252,32.69693,-0.7047864242032414,-50.863879957061016,-25.402865546490048,-31.924772493641658,78.21856092744557,0.1972590000000005,32.81000000000003,1
0.692007689359536,-0.4005473716554242,-0.546325321380059,-0.07450480171232544,-0.0018361655325170485,1.263070986785393,32.696705,-0.03545141251548553,-48.05436795946265,-30.017394850830286,-37.491221575618994,-36.91977328095204,0.19725899999999963,32.81,1
0.7044998133863204,-0.3715720275614321,-0.5495529083797371,0.06432635490014058,-0.0017879324408701877,1.2671024457328401,32.698776,0.4220207157974031,-45.33042327709042,-29.011154641971142,-36.53643187476229,-28.534362862484542,0.19598000000000035,32.809999999999995,1
0.7093883853826485,-0.3878447966172087,-0.5426574391421316,-0.02205090298693191,-0.002178270485322694,1.2631395327813146,32.699223,1.4033960937071455,-45.24183170945104,-33.9884321833082,-34.741007151026,111.80503384893079,0.1959800000000004,32.83000000000002,1
0.6681332115909572,-0.36495596612190756,-0.5762957720435524,-0.020331438101852478,-0.002388775932366684,1.2596797758052407,32.700275,3.430858934545057,-44.899386313684296,-36.01691938530399,-27.351037254933313,-47.857258733138146,0.19725899999999946,32.82999999999998,1
0.672728534385418,-0.3819219825083476,-0.5788368409864075,0.07280980501671816,-0.00228568021957237,1.2596700102268321,32.700157,5.664758069962005,-39.91268527829177,-37.923564923148355,-24.241995329027656,-18.466583662180128,0.19725899999999982,32.83,1
0.7111498132543327,-0.3364216554273867,-0.5589972006334138,0.026625500254718812,-0.0021214746321515953,1.261658863996116,32.701115,6.83534063079611,-44.46408540769965,-31.891517657090173,-32.016872927115124,1.5859911606976873,0.19597999999999946,32.83,1
0.6999664909610142,-0.38630660300005615,-0.5453671270269278,-0.06077810549937111,-0.0017012620145718713,1.26209280598844,32.701206,6.183442849220657,-46.80564485514237,-19.735168983809,-46.10832562962773,12.129948044713078,0.19597999999999974,32.810000000000024,1
0.694214038049114,-0.37459965809404977,-0.559001134208488,0.025888893561343208,-0.001717739398437307,1.2625539918456823,32.699936,3.8834993484372786,-45.635311038881575,-19.322756442057294,-45.86542248912427,-25.363429850833608,0.19853799999999966,32.80999999999998,1
0.6989074405939378,-0.3605899251190415,-0.5533916300324879,0.0013063375061112097,-0.001775256356768048,1.2616994801209727,32.701492,1.6312621954602005,-43.57697130247114,-20.16348005610316,-41.17370149106493,-10.81129815671011,0.1959800000000004,32.809999999999974,1
0.7008434686140914,-0.3650312199118803,-0.5628437105765579,-0.05844606453093147,-0.0019094756378203698,1.2626372868399685,32.70296,0.19474007557250617,-45.6350481163206,-17.455373403523048,-47.602776627206495,29.597668951230002,0.1959800000000002,32.810000000000024,1
0.697394576221026,-0.33063327018766125,-0.5741140409728449,0.0790171554174112,-0.0018817350458018758,1.2619258550296057,32.704697,-0.6395322553013006,-53.70112471058779,-13.875323992202876,-31.775443719969665,-121.34204974274749,0.1947009999999992,32.80999999999997,1
0.6904364451984732,-0.3312291107323412,-0.5903306565044119,0.02328178711115035,-0.00163869975783829,1.2630385619846558,32.707672,-1.520730781576312,-53.96591549162145,-16.108902849924537,-38.22327992303811,-20.837536957953123,0.19725900000000102,32.81000000000004,1
0.6871841185952706,-0.3190790592205944,-0.5854209755612564,-0.05555474797419235,-0.0025019747778507913,1.2588612464265687,32.70313,-1.548768717172908,-46.44823380214182,-19.698874857817437,-35.43937083757679,150.52892063845962,0.19342199999999876,32.81,1
0.6962990067654016,-0.3342586502876526,-0.5950710788638385,0.009304884259516893,-0.0012081315777421162,1.261906348775474,32.70786,-1.6492095380502227,-57.761072449721794,-15.04783454878054,-24.015975646722655,-46.27564355267704,0.19598000000000046,32.81000000000006,1
0.6822679756256678,-0.39367118560697095,-0.5560759452163416,-0.017994393576074807,-0.002014546279344071,1.2609963220706006,32.70666,-2.0753832525746496,-61.3559309043108,-7.785695195189482,-29.902892463481415,-50.52119238541693,0.1947009999999993,32.83000000000001,1
0.6820361625565426,-0.37250572357592665,-0.5692603505843328,-0.06553037674427811,-0.0020350901826378088,1.2625529422202937,32.705788,-2.7357757599709376,-59.60808627187186,-6.763368351255224,-24.884909871247423,84.79878273194954,0.19598000000000085,32.830000000000055,1
0.6991672442330794,-0.37296980084034714,-0.5489373315008266,0.04089810644226892,-0.002364054968727573,1.2715698506099493,32.709736,-3.2811526883687683,-61.03217192312109,-6.612364122415251,-24.20178388627907,-4.858316200829047,0.19470100000000032,32.83000000000001,1
0.7070971554623051,-0.3890442679996091,-0.5224159324562657,0.052599428738863106,-0.001607722872649361,1.2674024965686908,32.708324,-2.5957114398428627,-60.5579439187469,-7.0893852776563335,-22.19285182219196,-49.55256314863241,0.19470099999999924,32.82999999999996,1
0.70123626990236,-0.3904255462858907,-0.5455463952801293,-0.044590845320882484,-0.0019948469961231317,1.2729632337936152,32.711147,-1.0933156093046916,-61.02069449822239,-7.221439554779662,-24.561823507821504,31.63619834875051,0.19598000000000007,32.830000000000005,1
0.7022122615384413,-0.3783467031737335,-0.5319913573878631,0.07687008818864839,-0.0016289474425316627,1.2685782088585555,32.708168,0.2926904855350197,-60.74543608948572,-6.625757090201213,-21.396058247328945,-36.21406493584701,0.19597999999999932,32.82999999999999,1
0.7042530677584524,-0.38139956682950615,-0.5500167159170589,-0.009188168730632156,-0.0027907493909971374,1.2656823899029048,32.708027,0.5233395991130262,-61.89458637238367,-4.18456861921408,-26.31571401722839,-8.544378217512422,0.1947010000000013,32.830000000000005,1
0.699398397902425,-0.3896004831420824,-0.5412923695008104,-0.12432749047715705,-0.0020637727968452917,1.263542728224555,32.707897,0.9454808538280286,-60.856223238480304,-8.598582601304717,-20.16865343987639,57.766769233325306,0.19470099999999843,32.82999999999998,1
0.7062013947755456,-0.403063955713218,-0.5228654910630967,0.10150288089524744,-0.002155050866204357,1.2638551919577645,32.70846,1.1445934769304646,-60.47218043039004,-7.788984452251758,-22.230012565072737,-15.79855368532631,0.1959800000000007,32.84000000000001,1
0.6834568353506261,-0.3735059490805268,-0.5641764897191216,0.00719820948508755,-0.0021477149718927783,1.2636221454142496,32.70888,-0.06982208084185813,-61.1838654488307,-7.708035396498443,-22.3615663181937,-10.277952067093736,0.19342199999999973,32.83999999999998,1
0.7111328319706715,-0.38246060151984085,-0.536400933304284,-0.0824037304744538,-0.002275342995185124,1.260799439289326,32.707626,-1.6467606287959176,-62.48584577951435,-7.295220302439439,-17.765089524917,50.21095289615689,0.19470099999999987,32.840000000000025,1
0.7151517700939954,-0.3851086391921169,-0.5202566506957625,0.03843857297290569,-0.0021049904370230876,1.262360215971044,32.709797,-2.120663789672735,-62.463013457932846,-5.542657938672308,-17.233216400741856,40.64581673529715,0.19470099999999896,32.83999999999996,1
0.72330239721872,-0.36921091751016005,-0.5167746198866441,0.08691275639465738,-0.0015399562093272737,1.2641611343376253,32.707264,-1.70789367229297,-63.195106495290425,-6.354837940791097,-16.52039884901679,-36.13415400494866,0.1947010000000002,32.83000000000002,1
0.7190651370869968,-0.3726221774955336,-0.5184093534874006,-0.02654839545151529,-0.0021367224848235287,1.263916900056495,32.70655,-1.3796949269755694,-62.834848735654994,-7.11334713354584,-16.54014675080698,-18.829665164841863,0.19598,32.83000000000001,1
0.7189725574849011,-0.3753450020042799,-0.5198168914831708,-0.03983563937882649,-0.0007467113114349726,1.265067102851055,32.707912,-1.3953636071009254,-63.1494672357519,-7.798054995688162,-16.74794520969976,-28.42071992909076,0.19470099999999996,32.83000000000001,1
0.7157685895380632,-0.37680373423742036,-0.5249020675016038,-2.1636744090367556e-05,-0.002115556623628707,1.2628233254330667,32.703747,-1.5464330280817495,-62.58693771161396,-8.000638490332552,-16.66866640536387,-16.39289335821525,0.19470100000000085,32.82999999999999,1
0.7197538850921993,-0.37748331410256314,-0.5189711448374932,0.05911917418890681,-0.0018575054807068727,1.262738308291041,32.70398,-1.4787305318175719,-63.223494520534025,-6.580414608612085,-16.36914185158069,68.89817024148319,0.19470099999999962,32.82999999999999,1
0.7154402843775666,-0.381818323574453,-0.5206404681377873,-0.004649854978384947,-0.0019041435235468375,1.263930081595018,32.705677,-1.0094620968894426,-63.161408523926745,-6.145821803610858,-16.279373488682367,6.371132358377119,0.19470099999999993,32.83,1
0.7126965022574296,-0.3744024632045544,-0.5289914501663564,-0.049613051389019114,-0.002258615947991279,1.2641758372227159,32.704987,-0.051885270207590956,-63.35831753949693,-5.791159342930347,-16.22673956154999,-48.14535404322439,0.19214299999999976,32.82999999999999,1
0.7057610044139239,-0.3755356093495774,-0.537243511564352,0.0219292965090426,-0.00242494122400936,1.2641756256252696,32.70633,1.158429028437966,-62.73974782726306,-6.429701957015548,-17.293208220271772,5.244922045001902,0.19342199999999968,32.83000000000001,1
0.7083422379432419,-0.38185653293890637,-0.5359901031536561,0.04962969394853544,-0.0017837279607295388,1.262440401824,32.706238,2.0420884556672947,-63.216335539517,-7.695520238080302,-16.32956876305217,43.461675961454155,0.1934220000000005,32.83000000000001,1
0.7081725797839314,-0.37436512672273686,-0.5371046004382581,-0.06692699754550657,-0.002199928781408337,1.2630378974602443,32.702843,2.0386728662457436,-62.76776808573693,-7.693658830941271,-16.605155068810728,-11.00742034245375,0.19342200000000004,32.82999999999998,1
0.7089555019619457,-0.3692413974566171,-0.5371462213438924,-0.038436660990077254,-0.0017370390102883467,1.259208223542153,32.705803,1.2097690586010936,-63.120897434782265,-8.050677488637321,-16.082924945445917,-63.65274281449579,0.192142999999999,32.82999999999998,1
0.710571754627628,-0.38188591713773923,-0.5295146170688335,0.05449493499326809,-0.002123125273294198,1.2622933238380056,32.705116,0.22681650129637185,-62.822533256826745,-8.077012985010022,-16.74701199448051,-12.592450372143958,0.19214300000000117,32.83000000000002,1
0.7157112338171301,-0.3627519272336973,-0.5309741361437499,0.06510919402549951,-0.002561004543134772,1.2641204152200949,32.704914,-0.2703107796357555,-63.218054738745955,-6.322320702366389,-15.859286220138834,49.36297567815682,0.19342199999999998,32.81000000000003,1
0.7114022351553396,-0.36734762870736704,-0.5385453462941154,-0.04949308822747238,-0.0017906490969599148,1.2620912412985008,32.70653,-0.34149729665976386,-63.150636914294424,-5.932044253508773,-16.20068915957528,-13.563715321898082,0.1934219999999992,32.81,1
0.7149572225752496,-0.3711020760552976,-0.5330547511226764,-0.025423213320207562,-0.00197304570144571,1.2619226611410275,32.707283,-0.4441266654637673,-63.57061350379415,-5.856550193882855,-15.741678921258437,-32.905735970611985,0.19214300000000045,32.80999999999999,1
0.7086708101075968,-0.37341141415624707,-0.5369348952979587,0.06465819407222914,-0.0018907533895010018,1.2615028567283506,32.70551,-0.5845302477779133,-63.59384618531771,-5.974141433994974,-14.498080802965342,12.682932511986046,0.19214299999999862,32.809999999999995,1
0.7070211832964693,-0.37581111390373645,-0.5371800180730751,0.027602988721043123,-0.0024133430895229755,1.2629311615451275,32.706154,-0.4236770579594408,-63.440204446326995,-6.925043893207545,-14.816120489295503,41.63581535460645,0.19342200000000032,32.81000000000001,1
0.7063336493970324,-0.3786922013857718,-0.5381907337758075,-0.07954133431560909,-0.002253892996744704,1.2626258443543477,32.704395,0.2167682259298521,-63.43785138076304,-6.968991652678707,-14.381709679672959,-27.189429132255306,0.18702599999999864,32.80999999999999,1
0.7038311586730641,-0.38414995886780234,-0.5349770268832437,0.006218438212244649,-0.0019343419765884356,1.2614815101745964,32.70511,0.9988275299025506,-63.76868082727648,-7.039992572028282,-13.601124409133005,-36.678410341269206,0.19214300000000045,32.810000000000024,1
0.7066835368452435,-0.3792410301869737,-0.5342277120275849,0.07018108279508391,-0.0017812063778095224,1.265326977453438,32.70698,1.768688193387853,-63.68031640258763,-6.966747384059734,-13.185774975067678,28.90475217105377,0.19086299999999903,32.80999999999998,1
0.708885883745106,-0.3768880284519826,-0.5346092517101397,-0.035365739101902736,-0.0019205153874447465,1.2650248871914196,32.70663,2.1125960045103582,-64.0753557202012,-6.849172185298116,-12.86367373141709,26.30524582997643,0.19214299999999956,32.829999999999956,1
0.7094074782211487,-0.378695153149276,-0.5339468730880806,-0.056120374978823155,-0.002502548668094021,1.2602202784762429,32.70739,1.7574218380145605,-63.84497479683897,-6.819752207478078,-12.920941121821143,-37.80141030102928,0.1921430000000006,32.830000000000005,1
0.712502013333959,-0.3792311608954177,-0.5290712904300279,0.061818210438292796,-0.0018681413137798285,1.2645822407469278,32.707336,0.7978727836439884,-63.92088833264581,-7.091256394069338,-12.535431984850547,-30.171142562752753,0.19214299999999943,32.82999999999996,1
0.7090713688151521,-0.38367917380251065,-0.5298573478110014,0.012991127892209011,-0.0020339080371415547,1.2641821935467683,32.705727,-0.16704350206816507,-63.612950175463176,-7.891645720688057,-12.718071644790333,41.50442809769416,0.19086300000000023,32.829999999999984,1
0.710886430984349,-0.38229817425740936,-0.5269095695339989,-0.07627892303535565,-0.002049361621819352,1.2609987966905833,32.708477,-0.7670001268779284,-63.83505054265014,-8.337060781241954,-13.18017576614714,13.118333212288444,0.19086299999999945,32.829999999999956,1
0.7166229735269816,-0.38099936293081205,-0.5284151789883541,0.010291501679079532,-0.001701354133817106,1.2618692696206733,32.70769,-1.3751867183489308,-63.571528125000896,-7.871301649485491,-12.892787848574935,-51.7836035243289,0.19214300000000062,32.82999999999999,1
0.7094959764550146,-0.38199922367272776,-0.528458837082134,0.08751125702706115,-0.0019316353295139718,1.2598220886950326,32.708153,-1.8234577463332324,-63.833800938335536,-8.041580963263891,-13.46422099420443,8.795621238018951,0.19214299999999898,32.82999999999996,1
0.707344512692559,-0.3818196398229375,-0.5347331943361344,-0.02966745114296237,-0.002201195409180613,1.2638012824089475,32.711597,-1.5970369815285523,-63.898772231485644,-6.9427537856502,-13.032551627188065,43.55949201775819,0.19086299999999992,32.82999999999997,1
0.7114250609078867,-0.3794531830691721,-0.527993973652385,-0.062135195427070584,-0.0018065212822267857,1.2630739446855248,32.70782,-0.5973198139859888,-64.08200947538677,-5.710608108727911,-12.787443374304393,-45.972713745308354,0.19086299999999892,32.84000000000002,1
0.7090606586469059,-0.3854402681172607,-0.5235912056030776,0.05645676414218218,-0.002651568169960708,1.2658101267096173,32.710613,0.5659182327766217,-63.91717815269858,-5.6926018179210285,-12.511115879510447,-41.74495856810623,0.19214300000000112,32.840000000000025,1
0.7090753183559869,-0.3784033074567886,-0.5336288477214519,0.029126180718761767,-0.0019041550492808826,1.2625572383737826,32.712315,1.4663538109273817,-63.87775667608865,-7.022110026085117,-12.96802542573726,54.15751444783848,0.18830499999999908,32.839999999999975,1
0.7138385377412659,-0.37797292982970176,-0.5257650232196681,-0.05709731796336386,-0.002171227565517663,1.2627313197575003,32.711006,1.6243041449959226,-64.00326762467236,-6.803261341427197,-12.38051255490782,19.139204217389143,0.1921430000000006,32.84000000000001,1
0.7116639817683651,-0.37830289457324445,-0.5315734694687885,-0.0039222478724347835,-0.002014970820231726,1.2614983557930437,32.71216,0.9788110646064158,-64.07772357265515,-6.264596774944245,-12.389326146369273,-52.0599605492225,0.19086299999999945,32.83000000000002,1
0.7045393883244947,-0.3733321966518262,-0.5400794043810562,0.06310531032998132,-0.001967122869088807,1.2631203853438628,32.713467,0.10996047593095863,-63.9134280740829,-6.523048222795791,-11.783596827328713,0.3729737190428108,0.19086299999999912,32.82999999999998,1
0.7034476493486697,-0.3781880797451862,-0.5494449006083402,-0.021539423398024837,-0.0015466248354938654,1.2596305992192607,32.712315,-0.3465623641979765,-64.09775960544114,-7.16649074137058,-12.256610589285472,70.58398374916067,0.19086300000000073,32.830000000000005,1
0.6989654078267249,-0.3771100238072711,-0.5486664708503242,-0.07941319125607683,-0.002238343208348917,1.2605040786832913,32.71255,-0.6629473471952586,-63.86233517902859,-7.1087207509693595,-12.498609464283359,-21.55056039347549,0.1908629999999989,32.82999999999998,1
0.69786288955496,-0.37536973986845923,-0.5512532474560026,-0.003497282103738487,-0.0011600437838914562,1.261681584840964,32.710957,-0.7451879069098495,-63.990774626154405,-7.6157597226160645,-12.893482381410433,-15.245663014608,0.1921430000000004,32.82999999999998,1
0.6998531946354962,-0.37929547091250576,-0.5453315126432335,0.07297505241653258,-0.0017690618661700757,1.2629379441839448,32.71377,-0.08442105322074343,-63.84495302492031,-6.994736360067591,-12.87641002045169,38.06653071812578,0.19214299999999984,32.83000000000002,1
0.6976875986609667,-0.3839421717294039,-0.5462251498271617,0.049214430441535686,-0.002808487216412179,1.26299893075375,32.710262,0.9793076365877714,-63.848170764770146,-6.84253991270646,-13.631890513327903,30.447535836595797,0.18446800000000038,32.82999999999998,1
0.6956987986615901,-0.3841003849952028,-0.5506124818358062,-0.07725068382026853,-0.0021366871451541387,1.2625468831475637,32.713543,1.716466498732785,-63.79871409440361,-6.890086744329339,-12.775901906431608,-56.544636784260845,0.19214299999999984,32.82999999999999,1
0.6914044964772029,-0.3906568993325339,-0.5504167940012413,0.042339993139878455,-0.0018939641330032514,1.2619040748529209,32.716236,1.8315079193349926,-63.79811096358775,-7.677607157306721,-13.229453456766564,-14.814960967093608,0.1921429999999989,32.830000000000005,1
0.6946138569702399,-0.3863456782089148,-0.5502803214654867,0.1604395247075571,-0.0017090309718108853,1.2640568434408175,32.71579,1.662721437659556,-63.778420070001154,-7.188883401685075,-13.013419720452879,42.22311623021301,0.18958399999999945,32.82999999999998,1
0.7021301666200126,-0.38096194964607505,-0.5417171315516913,-0.05744295849224635,-0.0022533550688285586,1.2631668525896194,32.71789,1.4055199027374587,-64.06243433925167,-7.058095708421228,-13.203301724589979,25.89598346563959,0.1908630000000002,32.83000000000001,1
0.6990159835479927,-0.3851471643599031,-0.5456526639072629,-0.07805385235444572,-0.0017936921806105803,1.261741250015635,32.716038,0.9387752022129855,-63.86656617888319,-7.083275421777634,-12.67219068429076,-22.259932660428504,0.18958400000000034,32.82999999999998,1
0.6996549279216792,-0.38956465988154304,-0.5351092562118842,0.031826980404095546,-0.0014411821552816131,1.260996348604207,32.717396,0.3812773046357218,-63.58756756399175,-7.995373115770086,-13.141012076749831,-24.378604686194084,0.18958399999999978,32.83999999999996,1
0.7052398466228726,-0.3819521454486458,-0.5395472053404503,-0.002624405154371205,-0.0018015149774256041,1.2611614196754521,32.7172,-0.16507953436047929,-63.72243274803455,-7.360785727710182,-13.466764494560325,32.1821859537164,0.1895840000000003,32.839999999999996,1
0.7049393973451352,-0.38553967939857786,-0.5422799281987571,-0.0631669926725186,-0.0019449482928078363,1.261074132762555,32.717537,-1.2802116043338883,-63.84249575618978,-7.877265359464754,-13.085958505431593,-3.5345119795272444,0.1895839999999999,32.839999999999996,1
0.7020697368755302,-0.37187051690803913,-0.550604804676513,-0.017001360493227168,-0.0017247130658131077,1.2641184348818215,32.719273,-2.5715068945298873,-63.73499199164746,-6.4838617989047185,-12.857248221433792,-34.11357038708833,0.1908629999999999,32.83999999999996,1
0.6976538707255513,-0.37191442581083484,-0.5562084103421722,0.03348359321888687,-0.001535442176711428,1.2626977927497338,32.717693,-3.1358045063450954,-63.97605290119085,-6.399394718497962,-12.353506036412998,11.795501481146454,0.1895839999999994,32.84000000000004,1
0.6955927661799017,-0.3800954095385614,-0.544409576991201,-0.064196215933944,-0.0019265663674767285,1.2656950252788322,32.71808,-2.547500450924101,-64.01022615022049,-5.431104815659888,-11.786472012467508,32.55899622920436,0.19086300000000034,32.84000000000004,1
0.6867518954792494,-0.38419139144687053,-0.5624015067242182,-0.03857197641794783,-0.0015802729231202657,1.2624676463116689,32.71973,-0.7953975099173668,-64.1516779831942,-5.777210626539708,-12.222110954142428,-40.962080219402644,0.18958399999999967,32.83999999999999,1
0.6935207155905854,-0.38722739605053824,-0.5474477838267217,0.08960128959776024,-0.001925489427910717,1.2637985858938356,32.717655,1.026285724036191,-63.89862941033663,-6.939389431785146,-11.90736925560677,-28.44018036987632,0.18830500000000036,32.84,1
0.6980434939958596,-0.3974853063110391,-0.5466220396256342,0.04189470242858792,-0.0017351842701076536,1.262611558378847,32.723274,2.061627365178316,-64.09943513521469,-7.028765424067874,-12.931938566959085,35.41454345712496,0.18958400000000045,32.83999999999999,1
0.6908136686267331,-0.3931568266205697,-0.5494808043404978,-0.06555250953985962,-0.0024362303897201283,1.262454012977082,32.718605,2.36963135965847,-63.853989141478245,-6.959408729860639,-12.783093992631345,18.143303958736052,0.18830500000000017,32.839999999999954,1
0.6844548624524165,-0.3895555594328834,-0.5602165400238196,0.016156370490801722,-0.0017281542053467465,1.262638088500941,32.72298,2.1262319352734287,-63.982352794662766,-7.053440022856185,-12.711395266438721,-41.28140156934512,0.1883050000000002,32.839999999999996,1
0.6940681986345922,-0.3904139344105251,-0.5486875959193068,0.07079251285708624,-0.0019294753945381135,1.2641277320688136,32.72312,2.0974265096146127,-63.96831703672786,-6.9323465289563915,-11.87161015335501,2.9100671534876934,0.18830499999999933,32.84000000000001,1
0.6897952285538217,-0.39606735508138985,-0.5517525163131077,-0.055378221486438825,-0.0020480752600181254,1.2606119186516804,32.72374,1.9450217206839897,-64.03882002837227,-7.0877773471600225,-12.91629102242632,44.97003812860019,0.18830500000000064,32.870000000000026,1
0.694392363487803,-0.3911803968608683,-0.545808968877724,-0.04398875993986866,-0.0014533680140879951,1.2614722857036893,32.72478,1.2441753433339042,-63.9602013511864,-6.870047449420943,-12.749666344696521,-27.1947895510753,0.18830499999999986,32.86999999999997,1
0.6961350027904689,-0.39356418455815645,-0.5447789997914352,0.06809458869730285,-0.0024620486156963373,1.2630526000717848,32.72555,0.24301123445428446,-64.03833976585304,-7.504931525261454,-12.827714619252378,-30.55664809952081,0.18958399999999986,32.870000000000005,1
0.700279297506387,-0.3928549182348936,-0.5419431767575955,-0.00018168153115392143,-0.0022387393672331063,1.2615832982400377,32.725044,-0.5644203093323977,-63.964870863217385,-7.249882000793519,-12.811612407949694,33.900981276242966,0.188305,32.86999999999999,1
0.6878502993991578,-0.39298039046608557,-0.5546722558127195,-0.07604636702243063,-0.0018702236891333197,1.2614862256645825,32.726723,-1.1414186127796602,-64.02990178651484,-6.845291695637305,-12.432823022978761,4.727626457606721,0.18702600000000064,32.87000000000001,1
0.6911304562666443,-0.3924377193355129,-0.5485198954999361,0.02656802127142015,-0.001735831819174897,1.2622920760386784,32.722527,-1.2554717178993484,-63.9785258696842,-6.964406887663707,-12.104045437725645,-47.77303547104763,0.187026,32.87000000000001,1
0.6900849738991618,-0.4000715988172839,-0.5509156039905397,0.06414544456053188,-0.0017851139203176522,1.2614600282604875,32.723927,-0.891514074049383,-64.006535143861,-7.036779172442792,-12.440486940745132,20.04954059483125,0.18830499999999947,32.87000000000001,1
0.6882689059170364,-0.3968622156363993,-0.5487577321559821,-0.04725905012707119,-0.0018758675925565657,1.2621961693128414,32.72407,-0.4123904770605166,-64.02644393834149,-7.277793419704651,-12.83381896155538,40.25380773442467,0.1870259999999996,32.86999999999996,1
0.6902289547585521,-0.3933274774409029,-0.5529591874456046,-0.019574715984045664,-0.0021720330610422002,1.2629054999658362,32.723335,-0.2597118601011158,-64.01553400002801,-7.11703402820937,-12.532826759823593,-34.6109724382227,0.1883050000000004,32.839999999999996,1
0.6929847346648292,-0.3934857541031426,-0.5489394106283466,0.05683029694755219,-0.0016875802509377874,1.2611139862767555,32.727146,-0.7050489136601177,-63.49202091927281,-7.992067426717536,-12.617302545490746,-22.161056793840277,0.18830499999999928,32.839999999999996,1
0.6935006710815765,-0.4013889731640031,-0.5463743084157274,0.00724016381133359,-0.0022554397090187904,1.2628866522890327,32.728226,-1.3461983348323738,-63.982834067381205,-7.883256424420726,-12.985349025804783,48.73033290239393,0.18318800000000013,32.83999999999999,1
0.6897802437311692,-0.39276060416124664,-0.5501550617536022,-0.07448825692078882,-0.002243562917526009,1.261442530593096,32.724293,-1.6698889403643082,-63.76813990197264,-7.781666092801036,-12.946822440485825,-0.27292627844511924,0.18830499999999925,32.839999999999996,1
0.7004293006422818,-0.38484109972670205,-0.5443879040658011,0.025477189668020008,-0.002198565343519743,1.261797879882558,32.727463,-1.5874329225385944,-64.26889397426783,-6.133019311307389,-11.957355114564127,-39.27173091785778,0.18702600000000003,32.86999999999999,1
0.6991802298948981,-0.38762417493531814,-0.5423040779385031,0.06767285315464376,-0.0018704739952944594,1.262271099306797,32.72743,-1.291029820053949,-64.05272900486922,-5.75026192282347,-11.534795400888244,27.665056669996353,0.188305,32.86999999999998,1
0.6973067254016304,-0.38729406745285905,-0.5444438266997149,-0.04000121494734907,-0.00186618423704914,1.2620100425158876,32.726475,-1.0104664662454914,-64.04669393931341,-6.6392530700281664,-11.814948041722763,32.485722150017786,0.18702599999999925,32.87000000000001,1
0.6999214360219636,-0.3837663993940727,-0.5452582117665687,0.007635318726136389,-0.001949146270958028,1.2621162353082633,32.7272,-0.9473889700597568,-63.946037288727155,-7.037842057235035,-11.70311184295289,-37.993429144224024,0.188305,32.87000000000001,1
0.701731576405049,-0.3829536110713208,-0.5423289954057579,0.05174892551618821,-0.002104561091300383,1.2617774125339019,32.72931,-1.3571014211482701,-64.05336875313934,-6.991891715891288,-11.794315354259822,-24.7705372259031,0.18702599999999928,32.87,1
0.7012163064145681,-0.3825731260878934,-0.5444103120986492,-0.03795025498707533,-0.0023228079211711707,1.2612309807027162,32.729588,-1.98293380527366,-63.94988031377946,-7.491365193671428,-11.894136744117624,37.36034139320273,0.18830500000000114,32.87,1
0.702657912652192,-0.37940501880712474,-0.5465380092632288,-0.0351650098919774,-0.0023617618626747905,1.2585694315942637,32.729507,-2.5760133265288823,-64.0448978785862,-7.508649809416651,-11.897664807056817,-1.6301530820156669,0.18318799999999877,32.870000000000005,1
0.7034528219954559,-0.37433906603621586,-0.5450347814265928,0.06014070242498295,-0.0021796074766096633,1.2615922480772588,32.730473,-2.7406536777561774,-63.963005728086,-6.978649840905238,-11.81942256710384,-34.11136437324172,0.18702600000000133,32.86999999999995,1
0.6995775149242467,-0.37829045087339497,-0.5495340453476361,-0.00892582110206173,-0.0016928936889859163,1.26263894097689,32.72711,-2.1168737628180323,-64.02418188577239,-7.207981992739591,-11.806942774038529,33.920810869572,0.18702599999999953,32.86999999999999,1
0.6972890167379305,-0.3810150566456581,-0.5482120824580746,-0.05939896751193304,-0.0022436254212417415,1.2599934000431976,32.729694,-0.7586262537397489,-63.966324595880025,-7.2477978988272165,-12.504039074042725,14.535833448624112,0.187025999999999,32.86999999999999,1
0.6986364367401493,-0.38479702273410005,-0.539697900208896,0.04828745310717706,-0.0019411424111305856,1.2600262373638316,32.729134,0.7132034658984919,-63.87819743388604,-7.271782513453597,-11.236376942436939,-45.1089923321009,0.18702599999999991,32.87,1
0.7023733020543588,-0.38621841108832966,-0.5423404709841814,0.05689467265906046,-0.0022402305379549308,1.261236623178966,32.730854,1.9679322357978077,-63.52418506861557,-7.357911629379687,-14.785669682540435,7.90876576177568,0.18702599999999908,32.87000000000002,1
0.7013851558206694,-0.38603177818252415,-0.542558837575965,-0.04312675075327994,-0.0013702901933560737,1.2646316834156535,32.730286,2.4462937416279127,-63.51640126631096,-7.103002605971446,-14.97142908879913,35.38738576346021,0.18830500000000194,32.89000000000001,1
0.6993047314168933,-0.38388217579214295,-0.5460388999779163,-0.0216718040956335,-0.0016724843898600936,1.2620956339257843,32.728508,2.3858358466850893,-63.800424944923066,-6.917063106296206,-12.309276043861821,-33.97745544923203,0.18702599999999825,32.88999999999998,1
0.6991404781818882,-0.3836897668811457,-0.5445514027919937,0.04565684483849418,-0.0016437763433149856,1.2604283711445663,32.729633,2.239776075550594,-64.04233703419888,-7.081114836316394,-13.160908984953517,-20.532472765888865,0.18702600000000053,32.889999999999986,1
0.7003406029390041,-0.3843801555861045,-0.5415371883521001,-0.024831575493204854,-0.0020437026399523993,1.2622886688417436,32.73149,2.0239703462199214,-63.55370918507228,-6.916311545851502,-12.490081383825611,35.700662200985,0.185747,32.890000000000036,1
0.7002402068595431,-0.3861142653122695,-0.5425836923084135,-0.04924192823384708,-0.0017617753608741445,1.2605237910114084,32.732677,1.6259698032857173,-63.739840344982376,-7.091888717118983,-13.490630319675482,-9.747329065037924,0.18574699999999933,32.87000000000003,1
0.7061028810803066,-0.3798519197461987,-0.5395053994208717,0.044929653197668125,-0.001706440632572281,1.2622130039842847,32.73192,0.8883153382398292,-63.50615874584975,-7.06194851333081,-14.074628574471859,-39.00065719605728,0.1844680000000001,32.870000000000026,1
0.7038760436629335,-0.3823414970584845,-0.5375267422728253,0.03471676400663834,-0.0018492425933781457,1.2577781462872717,32.73342,0.020044368074572258,-63.828499614096806,-7.205349839310752,-14.268485041781714,30.947373604813325,0.17935099999999854,32.87000000000001,1
0.7000836515651635,-0.38338113562398696,-0.5419621124920485,-0.036729687187711135,-0.0019541339833967566,1.2617280995972473,32.73359,-0.6134608149875858,-63.695689131133115,-6.8677405297827825,-13.580860330739887,30.250520475219936,0.18446800000000083,32.870000000000026,1
0.7019124791219263,-0.3772043459428075,-0.5469071069201835,-0.026965327654676245,-0.0016681339815533946,1.2608648966539748,32.732716,-1.0688325772587248,-63.469288785473346,-7.126327705436764,-14.634451415634802,-44.89894548211617,0.18574699999999872,32.86999999999997,1
0.6999537986561573,-0.3843224041780977,-0.5475549652185222,0.03952412859104483,-0.0018718301894248147,1.2593307836476326,32.735657,-1.3700941284695205,-62.16127649871849,-6.735170197983558,-16.38301258295673,-9.983848736617524,0.18574699999999983,32.87,1
0.7042956655817749,-0.37587715140313654,-0.5427201256162218,0.051361790223202766,-0.0015761675285821306,1.2599907800077237,32.732872,-1.3533075760108733,-61.34471051508634,-6.933574689469756,-24.172043202991723,47.633466766874115,0.18446800000000033,32.87,1
0.7033672443253292,-0.3769184283344365,-0.5449840534298909,-0.052989877264665586,-0.00198585384388048,1.262119955830838,32.73761,-0.5460049018874669,-60.19568114281348,-6.231519888299845,-25.094134003756235,5.332968736490606,0.18318799999999916,32.86999999999997,1
0.6996805356109073,-0.38396950781497496,-0.5411803378168107,0.0010181595678779806,-0.002237865843269838,1.2629202890828373,32.734886,0.8552286056332936,-58.49767396703833,-7.517723551145517,-26.810579571768223,-32.276473389387334,0.18190900000000074,32.86999999999999,1
0.7008349777103624,-0.38612977034201795,-0.5389961454813402,0.018230814427862098,-0.0019443336458648743,1.2628031191051268,32.738064,1.997203531803209,-59.14850742502819,-4.928408389223288,-28.008032769632987,19.92468997293644,0.17551299999999947,32.870000000000026,1
0.6991589943949021,-0.35960730948989156,-0.5584711645236327,-0.0018450457644349609,-0.0020592662530721792,1.2616131221516793,32.73387,2.749859947395755,-54.37220110917713,-5.919869460810858,-33.05443863139172,31.756765344621176,0.18190899999999957,32.870000000000005,1
0.6977654743614666,-0.3766330138460715,-0.5514277966735069,-0.060069909889537206,-0.002016517897417318,1.262830463491423,32.734848,2.77871333882625,-50.02929241153806,-7.759408919685247,-41.879072919153096,-17.694416685758792,0.1819090000000012,32.87000000000001,1
0.6991094195529359,-0.39244824345768303,-0.5412218103267228,0.03508715718150426,-0.0019802992867209877,1.2628997921643343,32.734768,2.2064641860851415,-47.91610012029425,-5.435268316429414,-43.78241782735151,-50.82348327095606,0.17935099999999887,32.86999999999997,1
0.6978878573706019,-0.3786469631787877,-0.5522217450542842,0.018805824488613513,-0.00196255336793269,1.2618724630066567,32.734924,1.584592469327088,-42.58714923719781,-6.612396174431906,-49.07059385364848,48.81094095100321,0.1819090000000007,32.87000000000003,1
0.7008373476558658,-0.3801367719713915,-0.5456153298091153,-0.06075393391994176,-0.0020346015284140075,1.2590793609453992,32.7355,0.7024172762905324,-45.961116005079745,-4.846054090469148,-45.046333964237284,47.19636931849988,0.1793509999999999,32.87000000000001,1
0.6994772289555335,-0.3667735420123821,-0.5526870463395209,0.006408479959353589,-0.0017134524700906286,1.261178680625927,32.73225,-0.2553986369364023,-44.715251777265216,-7.260316306793426,-48.4671241812188,-7.237305787673449,0.1793509999999998,32.87,1
0.6961567021980732,-0.3830525662583093,-0.5482432239480238,0.05660889248665647,-0.0014337449476581948,1.258436891612531,32.736507,-1.177452392556919,-46.886310869942946,-7.651790757821063,-43.406029403618504,-33.859283888765844,0.18063000000000004,32.890000000000015,1
0.6961905745112722,-0.3743491251607464,-0.5481393590914498,-0.032022869563293796,-0.0018741288290289749,1.2611938332902177,32.731457,-1.7291022956502398,-40.33654864832479,-11.22990261949969,-54.52752736013132,-38.34844464837743,0.1819089999999993,32.88999999999998,1
0.694332742753862,-0.4168388070269304,-0.5441744987778883,-0.021180661263500312,-0.0019237476299566992,1.2601454187959866,32.73439,-2.253190576746238,-32.12830275531781,-14.26135712272436,-53.0720540194655,5.818693609873625,0.18318800000000024,32.889999999999986,1
0.6912360198493188,-0.4122449235991298,-0.5377354723468293,0.07008511204545606,-0.001877928672772619,1.2594679169808487,32.730713,-2.5968553456400576,-36.958156282403486,-10.389984276847605,-50.84049234305527,28.645373162352506,0.18318799999999993,32.89,1
0.689128310761166,-0.4078894717826878,-0.550643544200927,0.005344063372510694,-0.0020593195361949886,1.261871920972925,32.736866,-2.6563014497320037,-35.2246968939742,-12.903198962059712,-55.342863639190966,-33.75929180468607,0.1819089999999995,32.89000000000002,1
0.6809111924727725,-0.4230064065348755,-0.5431533265403699,-0.045331338769492684,-0.0016695661756150413,1.2629964563288194,32.733734,-1.639311937526456,-36.71871710253661,-12.097918078858566,-51.33487556024463,-145.98329709651983,0.1819090000000009,32.890000000000036,1
0.679109686318359,-0.435035921397102,-0.5349410161670765,0.02409124293700081,-0.0017455961927248943,1.2643182064659464,32.733967,0.6259231691800342,-35.506227884916065,-13.91770632137198,-52.61107494503414,156.1440563192237,0.18190899999999957,32.89000000000005,1
0.6833983324586173,-0.42299179587193686,-0.5390230292122818,0.039895061558979386,-0.0021044355217108668,1.2615795195185757,32.734528,2.597825943649226,-35.84253887404561,-13.011152844533651,-51.04015468081513,109.18346694125304,0.18190899999999907,32.890000000000015,1
0.6891257261832865,-0.442694137064614,-0.5239501283704476,-0.038460393827977384,-0.0019509158734432517,1.2632993631908327,32.732883,3.6023582635199807,-36.36700727722255,-11.15190578219256,-52.72766533416944,-131.87685032126717,0.18190899999999957,32.88999999999996,1
0.6917742526749956,-0.4398021646533066,-0.5190977255380141,0.005980913124346092,-0.0020294157561274472,1.2606629980544601,32.73449,3.63602506547993,-33.194529310408306,-9.614275664884708,-55.55573745137938,-67.89123638300666,0.18318799999999905,32.889999999999986,1
0.6953845038806113,-0.4318959588871229,-0.5195038930163561,0.05718441511495538,-0.0015773931082418533,1.2599751631507197,32.731953,2.85445825909299,-33.91883602085581,-8.277892413543436,-54.738398915026735,62.80334147733616,0.18190900000000046,32.89,1
0.6963946723365325,-0.4327607615667702,-0.5171960331176921,-0.020130920956136875,-0.0020734335150659777,1.26354860040585,32.734318,1.7995212309912185,-34.97070304495405,-7.891605271806448,-53.75716498521678,17.320694708643934,0.1819089999999988,32.88999999999995,1
0.6999480563236192,-0.429407259351703,-0.5169297227816727,-0.0437371433468503,-0.0020661879907169596,1.2605786646850201,32.73116,0.7162627708977231,-35.22760101527216,-8.093558382940774,-53.52782351561723,-66.1540239376177,0.1819090000000005,32.89,1
0.6970474502124585,-0.4276254703579655,-0.5181272480447461,0.0016579536303137554,-0.0020507489259960457,1.2591308321502273,32.731285,-0.39719008719987764,-35.90151003673584,-7.912970237092054,-53.58645857864157,55.12554367531375,0.18318799999999963,32.89,1
0.7002441575418143,-0.42573690010666326,-0.517767595763618,0.05289903645751166,-0.0021786315996487333,1.2582164532750026,32.7318,-1.0794379503668354,-35.98428249033646,-8.082186648228403,-53.26357252360225,113.7861293820821,0.1819089999999995,32.88999999999999,1
0.6991646791158187,-0.42709478917787447,-0.5166595682736712,-0.03493433590547745,-0.0017313039231127546,1.2614641163756803,32.731194,-1.4032895099411933,-35.95272549595547,-7.9219860325594595,-53.23857010780661,21.31685633279781,0.1819090000000003,32.89,1
0.6983081979564695,-0.4239973274015213,-0.5226402963771772,-0.02541459354095223,-0.0019270522444137313,1.2583520105107628,32.73449,-1.617759178639846,-35.894014079237024,-8.074224672466423,-53.33507024261263,-60.930348899497304,0.18190899999999993,32.890000000000015,1
0.6995639098900776,-0.42362056502622686,-0.520065317659757,-0.022912606389224963,-0.0015550731550877238,1.2567843595883392,32.732033,-1.7303965348911055,-36.053450580398426,-7.929330423722274,-52.798066793028994,-19.422139322135827,0.18318799999999974,32.889999999999965,1
0.6953908493314238,-0.42757085972502773,-0.5214569641252004,0.05572456859982138,-0.0017536628668083248,1.258310124640389,32.735577,-1.3671954712333676,-35.87699564229597,-8.067225874431498,-53.20598819095217,15.45395727895014,0.18190900000000004,32.88999999999997,1
0.6965328519510872,-0.4292241600693617,-0.5183899694530821,0.026003903355761398,-0.0016710479531225043,1.2595096528548715,32.732456,-0.40825087540184973,-35.95714952225843,-7.936236753025734,-52.988906424249436,-6.085691850906076,0.18318799999999955,32.89000000000002,1
0.6918520511252976,-0.4294672126084441,-0.5263769625950796,-0.03416747385720673,-0.0018755660909342078,1.2602138629128725,32.73303,0.7779181857912605,-36.03969257210771,-8.060119711347168,-53.356500983039396,-60.756660052835954,0.18190899999999988,32.890000000000036,1
0.6920585878148895,-0.4346913181531976,-0.5200781606750394,-0.06664565744259858,-0.00235453173755409,1.2606135898628057,32.733356,1.6131670644762406,-35.848769414818356,-7.943934038523191,-53.15788657717154,17.711006825643604,0.18318799999999946,32.88999999999999,1
0.694508038422261,-0.4281918270515066,-0.5205884324727778,0.06837620369344355,-0.0017090146529638482,1.2621291096121259,32.73183,2.2075704711650035,-35.94179358473953,-8.051234678713724,-53.288112567866094,42.46075898109943,0.18318800000000085,32.890000000000015,1
0.6951900000512518,-0.43757001028662856,-0.5170615271993417,0.043432057955891064,-0.0013086995114388882,1.2623331859888045,32.732044,2.4712924167172416,-35.29135445850306,-7.955043602147558,-53.692616222255275,16.4898645188282,0.1831879999999992,32.88999999999998,1
0.6991187524727853,-0.43568534501511796,-0.5126944440547153,-0.055709932098559733,-0.0016693054196343336,1.2642346884700348,32.73498,2.3376978662028627,-35.45326613037088,-8.035808490508096,-53.18535012925985,-29.25841658208678,0.18446800000000058,32.889999999999986,1
0.7009342974890965,-0.42802893925964536,-0.5139522969958982,-0.03045600218092342,-0.0015626537516007046,1.2632546664224238,32.735252,1.7065980258852844,-33.25751892110949,-7.979962132691146,-55.051042954616285,-53.73478001009486,0.18318799999999918,32.89,1
0.7004610174048983,-0.4205276093329583,-0.515308077555556,0.08244720599794776,-0.0016385114693517999,1.2668230776183236,32.735542,0.7501128699634311,-30.555500106637602,-7.983164574069556,-56.668033847858375,18.081544428965863,0.18190899999999968,32.88999999999999,1
0.7027142365358398,-0.41806423023333855,-0.5174923234721874,-0.014019162097945228,-0.0016360777541739695,1.2641070843607758,32.734665,-0.3671158913135098,-32.08774833631016,-8.249736747245846,-55.16496925721362,25.911111922570477,0.1806299999999998,32.889999999999986,1
0.7038088082542558,-0.42150564875947,-0.5144068577805907,-0.028476784335251765,-0.0021351466897602343,1.2651370338886276,32.736427,-1.472458417971616,-32.172828515613546,-8.748001072639335,-55.68409999336969,-20.503817254949553,0.18062999999999993,32.93000000000001,1
0.7045874965041365,-0.4184600950033117,-0.5134791730016317,-0.03388075982228971,-0.0016928791949384308,1.2625659099811788,32.73442,-2.492285385878374,-32.88591768012937,-8.754745236244203,-55.02025151363611,-80.89815145854186,0.18190900000000038,32.93000000000001,1
0.7062356071300682,-0.41611954975913623,-0.5159258262245024,0.06583462279238049,-0.0018943594412861493,1.2626241248934764,32.73842,-3.0684578084121785,-32.56956032243918,-9.149453013700354,-55.58843157687253,17.474284107356503,0.1819089999999988,32.93,1
0.7065553207866971,-0.41698132251015213,-0.5148675385545144,0.022258330664270257,-0.001904655376729115,1.2649518618634619,32.737194,-3.1346080470867363,-32.59267473336797,-8.863600240139395,-55.00562617735518,99.33618243372293,0.18190899999999965,32.93000000000002,1
0.7018993322513114,-0.4198849147776293,-0.5185430019759097,-0.03698078089672059,-0.001500630827397311,1.26396962148659,32.736893,-2.636325681396074,-32.741885649383235,-9.253357267948706,-55.22226502271908,-40.18995563691473,0.1819089999999996,32.90999999999999,1
0.6969109902276148,-0.42376589233776657,-0.5222406647330908,-0.028250679560973144,-0.0022134654168801033,1.264798341141417,32.736416,-1.5997691021406975,-33.03162421595166,-9.04437067938472,-54.86907304573943,-26.96135017375977,0.18190899999999932,32.910000000000004,1
0.6966177145352738,-0.42861050319694005,-0.5181779423853022,0.05922639260098897,-0.0019378090935212972,1.2633313015467644,32.733723,-0.2190533439320603,-32.61787848252454,-9.048115742184416,-55.12725941881121,41.805953661999354,0.18190900000000068,32.91000000000002,1
0.6970509395668977,-0.4262947961977622,-0.518346302078321,0.025472345348894327,-0.001750284937419578,1.2674122007075277,32.738194,0.9525085748970025,-32.26105637249427,-8.945787399637098,-54.87909454157845,22.735737019730845,0.18318799999999857,32.90999999999999,1
0.698404037508323,-0.4257591025004475,-0.5211574540628405,-0.05366319113237642,-0.002494650212132053,1.265970555341363,32.737614,1.6905419260999088,-32.721817822249726,-9.05086577685575,-55.11712656551998,-6.193614442518447,0.18318800000000013,32.89000000000003,1
0.6999106437404167,-0.42259011669315805,-0.5189630433383225,-0.034515326536660694,-0.0018994538424017197,1.2651378950298005,32.736607,1.5786842222708057,-33.01581041030251,-8.962372988182796,-54.879150342378736,-61.15379465073079,0.1767930000000005,32.89,1
0.7035127565283437,-0.41789587427123626,-0.5169913834413595,0.059044182350095675,-0.0021449510841125507,1.2643672415056924,32.738934,0.9461620307409596,-32.87613345974962,-8.937778035179036,-55.31048855465025,23.918917562333604,0.18062999999999851,32.890000000000015,1
0.7033478210133999,-0.41960664560518224,-0.5168914855078255,-0.00814122327248819,-0.0014452211741822988,1.2634926775672752,32.73688,0.29501183006382303,-32.84224775180059,-8.96450239805636,-54.976949026702364,25.36846660304307,0.1819090000000005,32.89000000000002,1
0.7045501292908886,-0.4201279025738555,-0.5146716709960208,-0.04376977429250346,-0.0015721419625559746,1.2632113078743663,32.73708,-0.18869960627284627,-33.04198155368408,-9.17410859004616,-55.055424348826584,-3.2064501561163357,0.1831879999999987,32.889999999999986,1
0.7065449712677354,-0.4149225298665995,-0.5129245090945459,-0.017210542831019547,-0.0022872283439982787,1.2614165105069466,32.736942,-0.5343395490659852,-32.96621234960747,-8.883489397333303,-54.93468684698023,-43.18362471659009,0.18190900000000088,32.890000000000015,1
0.7055877348022237,-0.4166308406350262,-0.5161409564198793,0.06634653641968781,-0.0017379906677276041,1.2627015302482114,32.735527,-0.9356156377230002,-33.02968100744939,-9.105238352718837,-55.174614463705446,21.942895996369234,0.18190899999999857,32.890000000000015,1
0.7052259376287794,-0.41878305772537405,-0.5150948117136716,0.011054781165710901,-0.0026763048583830122,1.263554904531208,32.734245,-1.1006172089266484,-32.97830172923446,-8.897320674098308,-54.957901936720845,37.173878635522925,0.18063000000000107,32.89,1
0.7046248609217656,-0.41859185849601804,-0.5147787990244279,-0.04879021120493857,-0.0021370712705366646,1.2636732228244307,32.73629,-0.9340488813048627,-32.93477044453716,-9.10533459387419,-55.05577976919236,-17.051804614580856,0.1819089999999994,32.90999999999999,1
0.7016722169021904,-0.4207984644554375,-0.51542525224181,-0.021209648349459372,-0.0019383888061780625,1.2626529280084358,32.73545,-0.3553743488246818,-32.923374869758675,-8.668836314959645,-55.12878828441325,-44.64735667205949,0.18063000000000057,32.910000000000004,1
0.696343904803918,-0.42608735841994994,-0.5190338014581327,0.05716595323424799,-0.0018781376378937344,1.2634808861574514,32.735966,0.6163124960443844,-33.38680521272086,-8.897711753555809,-54.365351854843524,50.60625599776395,0.17679299999999928,32.90999999999997,1
0.6997612677771128,-0.422730697430681,-0.5169580063797717,0.04240771763652092,-0.001865893996345687,1.2638082838791211,32.736164,1.5301517956411619,-33.56003161166881,-8.809726293216796,-54.7260547419479,20.263733501772883,0.1806299999999998,32.91,1
0.6955838992786311,-0.43309437743856005,-0.5173870764751621,-0.054505788376679284,-0.0011885011056826302,1.2667101522071869,32.73737,2.389534047671577,-33.74319301491573,-8.765058157747534,-54.59279558783935,-21.382335115585196,0.17935099999999962,32.91000000000002,1
0.6959177240360515,-0.4367778260785777,-0.5150980629316995,-0.038721469458597176,-0.0017645261277455559,1.2640902116787316,32.736404,2.5219125125395876,-34.03353822671108,-8.568856943154486,-54.433969226462445,-52.05932199752356,0.17935099999999995,32.910000000000025,1
0.696035877826777,-0.43086474052800805,-0.5172141401874488,0.04304446316350581,-0.0019793703517647504,1.264268402691704,32.736603,1.8312863768757306,-33.95340675176588,-8.197332350567148,-54.09208563703453,43.82505344813851,0.18063000000000048,32.910000000000004,1
0.7019172997727731,-0.4353221422911226,-0.5084224220545409,0.02996857599110121,-0.0020175109762412056,1.265235349450235,32.737328,0.8957386677640391,-34.728023571266675,-8.37202912530357,-54.094450932250766,27.428562586141776,0.1793509999999998,32.91000000000004,1
0.7044966587860515,-0.4336422571359995,-0.507347091287774,-0.02928808401904628,-0.0017529912444577739,1.2668892408651398,32.738014,0.00746029410612435,-33.61613622180744,-8.87163703001022,-54.61859082725506,12.372893031582946,0.17423400000000028,32.91,1
0.7004912548362332,-0.4172297854435038,-0.5195563999132538,-0.0034678241484407644,-0.0018323530992040199,1.2617192826345374,32.737694,-0.8433972665731465,-32.09873084864742,-9.114785608942903,-55.503163928078244,-40.92517663977699,0.18062999999999943,32.90999999999996,1
0.7037559210336243,-0.42331678289258745,-0.5149170822253721,0.0007870563264383348,-0.0016114612255209199,1.2626076259255894,32.73838,-1.5457098711502184,-37.176148000035646,-9.025710245447904,-52.66428756527692,12.280976840524511,0.18190899999999893,32.90999999999997,1
0.7092708994783545,-0.41261532453214217,-0.5167152937246305,0.04510312318583243,-0.0018556404981264166,1.2620584087188393,32.736233,-1.7510200566390193,-40.14249509356098,-6.462141273781788,-50.54005601689802,15.35256579892858,0.18190899999999996,32.90999999999999,1
0.700244424497073,-0.4256196710165185,-0.5165138632066604,0.020229086469451703,-0.002133176220620066,1.2633576194803582,32.737095,-1.606427361192342,-38.635930191900044,-6.963024048598672,-51.803172787221555,-18.055675164732765,0.18062999999999907,32.909999999999954,1
0.6998462251090233,-0.41957271413848163,-0.5208926597491977,-0.042571861975650126,-0.0016224834627871774,1.2641891780063956,32.737495,-0.8686197187181871,-35.74540839324734,-8.254178244967186,-53.269048630260116,19.012827252234096,0.18190900000000074,32.91000000000001,1
0.6953469443330416,-0.4283843300433076,-0.5237764352382996,-0.05632963283256976,-0.0018702698329729757,1.2656836597295857,32.737114,0.10692785632138573,-33.77086306271833,-8.990347370335508,-54.34328028125913,113.75549325816918,0.18062999999999937,32.91000000000002,1
0.696405252291888,-0.42465381820507114,-0.5189096991497631,0.021876875458928628,-0.0017641424054388054,1.2637028768309813,32.736988,0.9910547530344962,-35.232951244171865,-8.690206884134712,-53.072839010443474,-27.641055454396266,0.18190900000000076,32.91000000000001,1
0.6978008277610178,-0.427653395734065,-0.5195502651736222,0.07162107445851781,-0.001538182188707515,1.265436805148258,32.737133,1.776891197756331,-36.196472481491824,-8.745913303426518,-53.360287435256694,-91.03924880733273,0.18190899999999902,32.88999999999999,1
0.6944295311782266,-0.4248727031767825,-0.5234017771069521,-0.03323465426386095,-0.0018667181088875063,1.265507792566872,32.735622,1.9483738080758715,-35.03342824437302,-9.081627877907094,-53.16895962010936,-107.45019648659316,0.18062999999999915,32.889999999999986,1
0.6976998503723747,-0.42547395331856697,-0.5222452587072614,-0.06282105844157287,-0.001238634053221251,1.2657366556915528,32.736908,1.2991790422423763,-35.22994734583731,-8.893292081667205,-53.74201739331176,-21.94350798029846,0.17935100000000018,32.889999999999986,1
0.7018962818948662,-0.42151092535417106,-0.5171856879151396,0.06169734040702204,-0.0022942309162350743,1.2641802054616076,32.73884,0.4177133362735251,-33.85645946439904,-8.644381371902062,-54.31240753734239,96.33771970997971,0.18190899999999893,32.89,1
0.6997289628916208,-0.41760841894648887,-0.5213375496674796,0.011079894239113574,-0.001362097199877267,1.2634425420410207,32.739918,-0.3553685456160364,-34.137291799163386,-8.65676911270676,-54.90228414783668,17.681042029676984,0.18063000000000043,32.910000000000004,1
0.7020198805051292,-0.42458665085327035,-0.5150086656414591,-0.061558061799066914,-0.0016910295882247694,1.262301946479939,32.7385,-0.9084518400702024,-35.66243137039298,-8.861500930311898,-53.14502073705146,-21.785449563165304,0.1819090000000002,32.910000000000004,1
0.7032304642526982,-0.42890574711802043,-0.5116990449862793,-0.02852018189122939,-0.0016290149160250451,1.2632471185521337,32.738068,-1.302202376933008,-36.53681220795614,-9.056551111887169,-52.72458155261298,-33.04483751043738,0.18190899999999935,32.910000000000004,1
0.7021483380833339,-0.4250800555051882,-0.515364941003114,0.06466736503800481,-0.001904987054996452,1.2621588470048097,32.739334,-1.604568082239114,-37.14313190302354,-9.192770024165652,-52.62904327694667,8.403738334079273,0.18063000000000037,32.91,1
0.7012390598732429,-0.43042822313296725,-0.5132076480935336,0.0401877206136158,-0.0021891891724226554,1.2633307347159162,32.740353,-1.6517360116114592,-37.436448409527266,-9.057595321646428,-51.65023615361056,78.06649225995322,0.18062999999999926,32.889999999999986,1
0.7004431706083192,-0.42653259745518873,-0.5157004880571258,-0.03521057106092895,-0.0015465648319148838,1.2631030760221564,32.741535,-1.2813937558663193,-36.44842152998412,-9.042867386597676,-52.71048565462167,-3.526820310604853,0.18063000000000035,32.889999999999986,1
0.7002241899119734,-0.42755344614032637,-0.516601590791749,-0.009350370826446385,-0.001661956844257416,1.2632224789341633,32.74031,-0.38846316958381716,-35.405931611252896,-9.10456115863007,-54.19222062014237,-61.05520517575132,0.17935099999999943,32.89,1
0.6977464532872797,-0.4285640888966384,-0.5140864286107423,0.06930493940091537,-0.002060685799176824,1.2656527832076652,32.740856,0.6932521278650623,-34.616223843096684,-8.916905449361488,-53.507096061057744,15.987822758315108,0.17807199999999962,32.889999999999944,1
0.7021726852857101,-0.4257122891606053,-0.5107328984506294,0.027506432015350937,-0.0020860018777864534,1.265337668225081,32.73816,1.6291485847397584,-33.61955696244107,-9.07959405093149,-54.783089373600504,31.96025189684213,0.18190899999999996,32.90999999999999,1
0.7018997528129234,-0.4304070596374892,-0.5115784403635539,-0.07027276286941424,-0.0021503379423365187,1.2668198235729173,32.74171,1.9951377082497725,-33.24564850781988,-8.915152928707979,-54.38376276731799,-48.21849085481792,0.1780719999999995,32.90999999999993,1
0.705323871734135,-0.4227674698128259,-0.5104032715521749,-0.022292252811615607,-0.0015019358841153504,1.2631539869866815,32.739136,1.5413518033045512,-32.75236039382735,-9.257214024435418,-55.22940852908028,-73.82955297935258,0.17935100000000098,32.910000000000004,1
0.7043008847652571,-0.4225623543513129,-0.5118420720166551,0.014548885203117989,-0.002066256576257049,1.2651461271696531,32.742104,0.7563701683102988,-32.95561765995212,-9.036000989805963,-54.95582658672791,45.056737499421445,0.17935099999999943,32.91,1
0.7084987437507998,-0.42066372223942233,-0.5070339964521748,0.05978012989504549,-0.0019944175294091004,1.264417274637206,32.74295,0.08264042273310478,-32.925313717625876,-8.99559355598129,-55.30102655050185,38.22818838870961,0.17935099999999965,32.889999999999986,1
0.708563382148625,-0.4167211509194055,-0.5106677763083977,-0.07047605439514879,-0.0018910570212390867,1.2639044756203788,32.740444,-0.5650126578146635,-32.74707782497914,-9.098973324713539,-54.82421032188036,4.128147237314566,0.1806300000000006,32.89000000000002,1
0.7098800183177341,-0.41907399171427473,-0.5040699737991182,-0.019227223620576467,-0.0021145038290895993,1.2644750553099935,32.74021,-0.97811195760635,-32.243006323745604,-9.503354339749754,-55.135657367113936,-24.746826387064765,0.1806300000000003,32.89,1
0.7092100670423103,-0.4190576210343568,-0.5107561651240394,-0.010505710642879211,-0.0024292038564425384,1.2628370365938322,32.741245,-1.0603983018030165,-33.016172853144,-8.886975904406535,-55.14364922763147,50.633420901731135,0.1819089999999997,32.89,1
0.7059617136689323,-0.4253059120202665,-0.5092826448824287,0.07976923181349845,-0.0019595470705171232,1.261888432327326,32.739254,-0.9911899067325737,-32.41219162369751,-9.37623854958766,-55.281409821803265,38.41032185974491,0.1793509999999994,32.909999999999954,1
0.704893149154719,-0.4140882459608443,-0.5137087190583857,0.04415872124818215,-0.0025642230773001273,1.2625260125498619,32.742733,-0.8349372037239706,-32.26779140548828,-9.075794518139569,-55.39410740959767,0.6432284670410585,0.1806299999999992,32.91,1
0.703795917612078,-0.4214793534851396,-0.5189316213192252,-0.028283216295163928,-0.0018479343879742721,1.264542987614158,32.741848,-0.22532089629659074,-32.60830392390177,-9.28354635632388,-55.02719393320455,-57.83900782129158,0.1793510000000004,32.91000000000004,1
0.6973100421327508,-0.4339247073912739,-0.5094713803451861,-0.04973101954994957,-0.0026276767314351943,1.2632812118466155,32.73866,0.7191227320996658,-32.497137672184955,-9.065777365266392,-55.023999025722915,3.914096711806541,0.1806299999999992,32.909999999999954,1
0.7005484838652637,-0.42550287776545115,-0.5164052253537895,0.038678773832024956,-0.001815672947515172,1.2627149472772998,32.737976,1.5847332962943637,-32.23989256517001,-9.255396502331463,-55.64632838386425,41.82806258937347,0.17935099999999962,32.91000000000005,1
0.6988634431116896,-0.4319641681535889,-0.5133409708365212,0.04267708364150451,-0.0025143810718485813,1.263018178330495,32.74031,1.9457308438221415,-32.84255636472734,-8.922674893121366,-54.91386689142209,10.754162236550325,0.180629999999999,32.90999999999997,1
0.7008734640565324,-0.42729293925186546,-0.5155122589930806,-0.054870954000482766,-0.001652321391607389,1.2643609396355378,32.7411,1.581049540786086,-32.492108669576794,-9.177631430069178,-55.209042618519604,-0.8168936275434089,0.17935100000000015,32.90999999999999,1
0.7002263366085794,-0.42638845500566164,-0.5138991804637263,-0.06670201274107522,-0.0019238855325892914,1.2620862869863587,32.737892,0.9119388648024043,-32.6294790907631,-8.961713729169928,-55.041076834446145,-57.595881823081015,0.17935099999999923,32.90999999999996,1
0.7022537063621332,-0.4252765619643409,-0.5144164581854394,0.02902047406327099,-0.0018599492772090336,1.2645724639100269,32.738674,0.19602607606962136,-31.8867843539003,-9.049299721904523,-55.74158804120766,14.727431819710278,0.17807199999999943,32.909999999999975,1
0.7043331982483139,-0.4244157032000856,-0.5097991363892157,0.06342646729591879,-0.0023493319089097145,1.2627375422619922,32.73937,-0.25947024427000814,-32.1055629795896,-8.945262101232895,-55.929694798724555,28.825117281031694,0.1780719999999995,32.91000000000003,1
0.7034749176674007,-0.4215057969325263,-0.5142803601270401,-0.04431462440647188,-0.002552949372532638,1.2616549235374515,32.738792,-0.519264434611741,-31.88352066479321,-9.058848732486933,-55.85626172947557,11.050373246174793,0.18063000000000048,32.91000000000002,1
0.7083984103480825,-0.419077583554547,-0.5119133936135236,-0.044356580674553336,-0.0014421962029928044,1.261521279311448,32.741104,-0.7661388651880091,-32.45815120072168,-8.950638819370157,-55.86122462480485,-56.5813240274729,0.1806299999999998,32.909999999999975,1
0.7021041763883967,-0.42046854076221063,-0.5191235939509334,0.02702599312288703,-0.0024126611653642878,1.2640700238948208,32.73657,-1.0227003021190977,-34.67704220083048,-9.345549920500234,-53.52159694232992,8.1374430878185,0.17935100000000043,32.89000000000002,1
0.7000447582470338,-0.4291240881662385,-0.5119782904909225,0.08423173698441525,-0.0023017132894193903,1.2612296259370053,32.740902,-1.0809052052842927,-36.52145440741399,-9.696135254926332,-52.729381342976716,31.10647633094102,0.17807199999999926,32.88999999999998,1
0.6982270975148744,-0.4320276141030231,-0.5142015255398312,-0.0019814353886374544,-0.0018146970306653575,1.2619410287225221,32.737923,-0.5360062492744395,-36.366606410149956,-9.52000449083985,-52.714021142551275,12.875416318696429,0.17807199999999937,32.889999999999986,1
0.6982120419709528,-0.42351430017291225,-0.5198714177598612,-0.06588496918654972,-0.00179464869028225,1.2624905931456851,32.74007,0.4665624448488248,-36.353559540832386,-9.695262021645386,-53.184591943844694,-32.34296673774737,0.17807200000000104,32.89000000000002,1
0.6976442059439844,-0.4368832501165486,-0.5107937812162403,0.024742340841057957,-0.0019191381478680489,1.2645563020707475,32.74073,1.3655147660666052,-39.34673128209279,-9.788337162911002,-50.102786060408846,40.180178399639644,0.17807200000000006,32.91000000000003,1
0.7015904480807359,-0.4376023112361329,-0.505067645203099,0.060161494839983495,-0.0021323167612788663,1.2635281496263073,32.739098,1.8200396565124277,-40.53187990884798,-10.08385481723645,-49.50863224981874,13.93286551001064,0.17935100000000093,32.910000000000004,1
0.7058619871621349,-0.42954333214569934,-0.5072197500068912,-0.04456582150658262,-0.0019339198953295823,1.2633295310784494,32.741764,1.7111863901532387,-37.716648782710884,-9.6097102777821,-52.444709447422845,-23.62934583929697,0.18062999999999912,32.90999999999996,1
0.7049069899758253,-0.4189767890438703,-0.5113319886990944,-0.06065830756964029,-0.0020757424349048276,1.2632658140146955,32.73977,1.0390418537252333,-34.910483898160734,-9.386541333846923,-53.46005943342733,-61.51518283162132,0.17935100000000032,32.91000000000002,1
0.7059443075441316,-0.42309920803969386,-0.5076425721925051,0.04444290111127712,-0.0010812038149323135,1.262680762841069,32.739582,0.043867025874841495,-32.61965490795933,-9.180941196767188,-55.14523261022469,6.343259611571397,0.1780719999999995,32.88999999999999,1
0.7078146254114164,-0.42257536183865985,-0.5074417939937678,0.02616257822001781,-0.0008749080109549989,1.2611636615637398,32.740406,-0.9037285043842193,-31.474365755117297,-8.931345331031242,-55.81664313509926,18.22807133939375,0.17935099999999946,32.88999999999996,1
0.7084060575856603,-0.42731763352185875,-0.5045652136629555,-0.048708143652279066,-0.002394445211796967,1.2604416811088284,32.740944,-1.520879188145511,-32.283070877494964,-9.060831367501878,-55.78869874566427,-50.56051848073266,0.1780720000000005,32.89,1
0.7081795391376037,-0.4250692816381363,-0.5065770615512163,-0.018236527861509786,-0.001145175219873527,1.2608894760845994,32.740093,-1.8692004832119682,-32.677958261203266,-8.941866006784432,-55.26557572805448,-57.30637242533174,0.17935099999999868,32.889999999999986,1
0.7067480771012603,-0.42414584652425674,-0.5073162536266573,0.07444772911472648,-0.0015323738440307909,1.2613754829933392,32.741722,-1.8223719469316026,-32.995369094979914,-9.057116180996902,-55.02353322153252,21.78172960763513,0.1780719999999999,32.89000000000001,1
0.7040316157655686,-0.432237515570029,-0.5073094562170172,0.025273394068540983,-0.002464361655534197,1.261549924273986,32.73961,-1.1128741301553111,-33.279416523821496,-8.943069977333112,-54.78500057591725,81.96910082776452,0.18062999999999918,32.889999999999965,1
0.702191130423979,-0.42889150944153204,-0.510697857043041,-0.06895726168302478,-0.002434780670221507,1.2629103999155078,32.743046,-0.0671753501032473,-33.234716831273886,-9.057281386345164,-54.976859487492234,25.3368950415673,0.178071999999999,32.889999999999986,1
0.7021006849243216,-0.42875039345462806,-0.5076791818613462,0.01007444744478669,-0.0018085721314626303,1.2639237747205803,32.740562,1.0307398245143002,-33.80878509216367,-8.941920707904723,-54.40744268694678,-25.206621652147682,0.1806299999999999,32.89000000000001,1
0.7045901778937103,-0.42678503568877163,-0.507379016231784,0.053207709249480865,-0.0020313422210603027,1.2621403773734863,32.743347,1.7669189530562361,-33.56704263230675,-9.059350591077227,-54.803163095176615,13.551018478188078,0.17295499999999916,32.89,1
0.7063351954280558,-0.4295626472132244,-0.5043964601387908,-0.04778486604173172,-0.0011582885555495282,1.263607759834392,32.74206,1.7969538154652072,-33.96230361159485,-8.938756258056383,-53.79797427641068,27.70990885019934,0.1780719999999999,32.890000000000036,1
0.7087558215837708,-0.4229663236988233,-0.5055004678399669,-0.03671415621582924,-0.002281607310284022,1.2617352192795823,32.742783,1.2089333595363236,-32.02773751784804,-9.064119822052492,-55.55613482951185,-37.270433720240256,0.17679300000000042,32.89000000000003,1
0.7087219531226406,-0.4230548538212231,-0.5033602815046964,0.03513170028668529,-0.0015248653857440485,1.2613777814764706,32.74311,0.3661302785081519,-30.258206672383338,-8.806141016483185,-56.482369788057795,-37.47850438214496,0.1793509999999994,32.889999999999986,1
0.7097593223223608,-0.42463900882045413,-0.5028625257594767,0.054577013633174465,-0.0011719660250267567,1.263491393912952,32.7415,-0.3874584271284525,-29.8238204481774,-9.077508646823878,-56.73435327097894,26.094267112403443,0.17935099999999957,32.90999999999997,1
0.7089192036044104,-0.418662984854683,-0.5074131558202125,-0.03634784842072585,-0.002106692194575568,1.2622457054423288,32.74165,-1.041627237636868,-30.62973723684657,-8.548110702036915,-56.09155100797786,20.205669762269743,0.17807199999999987,32.90999999999999,1
0.7113982503870078,-0.42148272806760106,-0.505130787863371,-0.04417578582273346,-0.0019449131855389594,1.2619038281338022,32.74205,-1.5270681578830574,-31.176133232820174,-8.560158080549721,-56.033229798719695,-64.0004637685204,0.178072,32.90999999999998,1
0.7123342084157847,-0.42464931844900766,-0.4982181484732813,0.028708656184736295,-0.0017003086262625832,1.2583157367583448,32.741196,-1.5490455631469564,-31.0400271434193,-8.336383071498988,-56.04860631785378,1.0514183088125169,0.17679299999999915,32.910000000000004,1
0.713695639734534,-0.42254143428100266,-0.4990108744394643,0.07365841205658756,-0.0017413178481210476,1.2602957390864515,32.742767,-1.0611581778935653,-31.04255517163248,-8.241461177435854,-56.090465773651225,79.3472430670962,0.17807200000000004,32.89,1
0.7102361443803733,-0.4323457669331176,-0.4973417802795686,-0.03292416160411548,-0.0019620915863991393,1.2611572520187677,32.74107,-0.18221714827001437,-30.69301564667001,-7.916443996094942,-56.48491418433735,36.73796844977687,0.17807199999999937,32.890000000000015,1
0.7071263241040331,-0.43843879907428185,-0.49911134037516025,-0.006304941036965591,-0.002456129548893583,1.2624004430153317,32.740665,0.7255428340784126,-30.30842168267514,-8.53162137271312,-56.35311870908688,-63.90961872330936,0.17679299999999992,32.89000000000003,1
0.7017385508422814,-0.44194683393029605,-0.5051497168922848,0.051442299074127576,-0.0017980236240636015,1.2635386163295743,32.74033,1.6089244002202079,-31.35845025723184,-7.908221006443321,-55.82291339386388,-20.23338143441598,0.17679299999999937,32.890000000000015,1
0.6826063522461802,-0.4486232973205834,-0.5187011930649091,0.0372741293386996,-0.0018364646333593416,1.2658917332977815,32.741367,2.3554757515664315,-31.56045543275931,-7.981079627074165,-55.87088881917925,44.50517195163646,0.17807200000000067,32.910000000000025,1
0.6886225882644037,-0.44106377954358533,-0.5145455744567138,-0.09742617484438675,-0.002391048066121548,1.2661841617225984,32.73973,2.801507074630415,-31.802786466946852,-7.987950498335504,-55.90494352005537,-1.8984940128242993,0.17807199999999934,32.91000000000002,1
0.6945301834203085,-0.4396569147861633,-0.5133312447400936,-0.005165104603267905,-0.0022781325039484433,1.2645999269596977,32.739616,2.702151496327934,-31.798096255416596,-8.02232735210554,-55.984843024918774,-37.85141690878292,0.1767929999999999,32.910000000000004,1
0.7018726359756368,-0.431752677752086,-0.5125552244753312,0.04536660191594372,-0.0017188588357879527,1.2623632470083772,32.739475,1.7996680542805616,-31.48076346078624,-7.9723146373344855,-55.995615472359454,-3.085350302768687,0.17807199999999876,32.91,1
0.707257151008861,-0.4227663561319307,-0.5106420142710115,-0.049238917549275084,-0.002425980793226381,1.2631374794347048,32.739212,0.3786559586395938,-31.918823413415108,-8.031041800879839,-56.01082240280519,52.30515076117695,0.1780719999999989,32.910000000000004,1
0.706694263356387,-0.4222439102332621,-0.5094407422597228,-0.07317317551825138,-0.0017537901502733596,1.2612335316572618,32.73839,-1.1525635441784903,-31.969884456532803,-7.966625364394863,-55.901616983376776,-16.326104154925225,0.178072,32.910000000000025,1
0.707466740431706,-0.4229791492690224,-0.5086807033561737,0.03246420834127709,-0.0016289585270679585,1.2607064667999397,32.73975,-2.091189971008812,-32.03137135154028,-8.03511106985962,-55.57028141385004,-27.33926116171731,0.1755129999999994,32.90999999999999,1
0.7095514810924792,-0.42048661433149903,-0.5049609229881177,0.07130289273283216,-0.001864556104219851,1.261012633319631,32.738007,-2.229031951707627,-31.972601839260093,-7.9635300163018625,-55.83755550849408,19.17475059485505,0.17679299999999992,32.90999999999997,1
0.7087967771667381,-0.42053363478103556,-0.5079663001337601,-0.020094722721679243,-0.0019958669649057987,1.2617274924698065,32.739525,-1.985413626596938,-32.01845643457393,-8.037576632360125,-55.67364583832047,23.37590084075818,0.17679299999999984,32.90999999999999,1
0.7098764046700771,-0.4196558187358212,-0.506513980827889,-0.03797097483022474,-0.0021848641211579907,1.2603066750889174,32.73964,-1.6283848661039728,-32.14264717359121,-7.961490916861656,-55.78777612625648,-41.34898042392737,0.17807199999999956,32.90999999999997,1
0.7088694372623321,-0.42011866923767666,-0.5061870620247086,0.052539359777154016,-0.0021053860420854093,1.2600217513119174,32.740967,-1.2154109251539713,-32.13995743415111,-8.039319720376174,-55.74998497065945,-5.128445852269512,0.178072,32.91000000000003,1
0.7089665901136907,-0.41971514332023413,-0.5086950144839743,0.017833925692807114,-0.0019241873012579257,1.2617590745962712,32.739113,-0.738012945230047,-31.929628299657118,-7.959953661735255,-55.94370028803649,30.480953216163797,0.17679299999999967,32.910000000000025,1
0.7062881231982239,-0.4198826162708993,-0.5113307292963358,-0.05488751545778837,-0.0017327148808186687,1.2591482843246984,32.73943,-0.40023846673548463,-32.06226709195845,-8.040718486863472,-56.0587522244691,15.198161498504627,0.1780719999999999,32.890000000000036,1
0.7051324800640041,-0.42044719138642606,-0.513625133371596,0.0016981253003620128,-0.002241374236843051,1.2616211816841498,32.74041,-0.386085219669899,-31.936534089914097,-7.958638406335732,-55.941849031136854,-49.21641831472122,0.17295499999999955,32.890000000000036,1
0.7016802641020572,-0.4199789128314475,-0.5178549674119405,0.06645043512471009,-0.0015576014766560291,1.2595135602179774,32.74087,-0.5660681441640114,-32.07355166981421,-7.9170001815820745,-56.05086561129981,-4.519005133164684,0.1793510000000002,32.89,1
0.7043353796134627,-0.4207889381734996,-0.5160842349634833,-0.013541692317771515,-0.001649559764818775,1.2599553506319936,32.740536,-0.7942103501576514,-31.807576596359226,-7.95733889598523,-55.80752947055337,43.019686157220846,0.17167599999999944,32.889999999999986,1
0.7029427934017779,-0.4210544017148895,-0.5153533851649532,-0.034421888631765415,-0.00237053609323117,1.2598672012195429,32.741657,-0.8178281490175141,-32.083143444469975,-8.04337781064137,-56.08754036348504,-9.816634020721915,0.17807199999999954,32.86999999999998,1
0.7057572630965377,-0.4239773147439911,-0.5105236079365645,0.020911437914305425,-0.0017874664548099383,1.2586220105778894,32.741737,-0.405407959437394,-31.65648413875065,-7.955802614965546,-55.91347753919951,-43.00528728191274,0.1780720000000002,32.86999999999996,1
0.7031471376697841,-0.4229813010064203,-0.5111982014504116,0.07623831520105522,-0.0021385422723818235,1.2620260995360713,32.74028,0.49103793565676174,-31.531130387121294,-8.045194324216885,-56.09445729729747,31.444458934157588,0.1793509999999995,32.86999999999997,1
0.7037762804138286,-0.41564055073548567,-0.5170108069545463,-0.023415617595615796,-0.001768836655322779,1.267823960272498,32.743553,1.41102561820646,-31.49017736111084,-7.9534979126094285,-56.03115210530246,34.246020056806096,0.17679300000000017,32.86999999999998,1
0.705232737968533,-0.42302620837683735,-0.5085160977050388,-0.06277511725093032,-0.0033637685554532893,1.260095855897656,32.742443,1.4952308740526734,-31.83600610339298,-8.048400194635143,-55.929158532727556,-31.991866576780424,0.17679299999999798,32.89,1
0.7010961276260181,-0.4317010101472285,-0.5112448134439471,0.02096999779666059,-0.0016950541459611597,1.260139814587305,32.742226,0.9109757410881592,-31.61222503376752,-7.948368387506283,-55.96523003871127,-19.87979658667105,0.17679300000000053,32.88999999999998,1
0.7019326806883988,-0.4256748360165265,-0.5143102578401104,0.04973626852683572,-0.0019196603182049109,1.2588164396939072,32.74077,0.384743351469344,-31.48502666808077,-8.059337568445773,-56.056490866047874,41.501943531782416,0.17679299999999945,32.89,1
0.7042240467739629,-0.4214475998326198,-0.5135385991445709,-0.06716315994886025,-0.002200355786620388,1.2589060390586724,32.740875,-0.08907738958737262,-31.759227402307417,-7.70525660027258,-55.92205330013054,14.069215322185716,0.17551300000000003,32.88999999999996,1
0.7029208018571408,-0.422757865753234,-0.512106341890656,-0.01774432137967003,-0.0023400193745780344,1.2607132814809592,32.743465,-0.5783608925552036,-31.666172786832465,-8.034575688339421,-56.16321404907364,-33.70801679527575,0.17807199999999904,32.90999999999997,1
0.7091265054385926,-0.4046776471091202,-0.5153074203914857,0.06381524875114795,-0.0020614251221581564,1.2599355478649523,32.744457,-0.9020099807340843,-31.330820432159353,-7.944605626349969,-56.16675273635074,-21.63701931630206,0.17807199999999973,32.90999999999998,1
0.708892597197657,-0.41065178567421745,-0.5163590506159493,-0.00303625127410498,-0.0017439450509215205,1.2579191318229985,32.74402,-0.7388637859586473,-31.862173512491005,-7.924232483852458,-55.902304000548995,45.49997624670681,0.17679299999999978,32.90999999999997,1
0.7091108629315566,-0.40688917943878256,-0.5176021644314854,-0.07264477193777648,-0.0019739459100632517,1.2600833059838874,32.741352,-0.06792766871977246,-31.03349433955799,-7.945507221108084,-56.04426571766874,-8.671364819144511,0.17679299999999895,32.91000000000001,1
0.7069231350163501,-0.4052324251370532,-0.5197126467761752,-0.02095013701642647,-0.0012170586956014315,1.2602644665505605,32.741215,0.3839481940579616,-31.56028503642239,-7.910510344305271,-56.157521664549876,-33.48043586015342,0.17551299999999936,32.89000000000002,1
0.7070820716544782,-0.40995031449698843,-0.5150724263085064,0.06238702505687661,-0.0013806039244642035,1.2594389167208293,32.745346,0.37366920902468476,-31.998187998757693,-7.998165673223978,-55.6297722318797,7.598081130424964,0.17679300000000067,32.89000000000003,1
0.7102057323098817,-0.4051975751938299,-0.5178004090468498,0.031078957506993347,-0.0022195987167031262,1.2593058404244224,32.741837,0.3378609269071363,-31.99304985904453,-8.011179910555438,-56.17892330026533,41.42737803369561,0.17679300000000026,32.88999999999999,1
0.706811969332706,-0.4084893706626199,-0.5174024509876963,-0.03715655834141033,-0.0016426898850821464,1.259331847445701,32.74152,0.45047445856758034,-32.01008326843014,-7.987382769607805,-55.55860933227938,-26.392317288703563,0.17679299999999984,32.88999999999999,1
0.7100684533131351,-0.41042228385938356,-0.5145792241437467,0.0021498182080277083,-0.0018181074266356357,1.2603140756849012,32.742245,0.7260296160849296,-31.984707567943023,-8.009576327136749,-55.901976168110295,-24.322912265930704,0.17551299999999953,32.88999999999998,1
0.708501095630301,-0.4110461353986963,-0.5127991918731885,0.06830867851507472,-0.002167748502110414,1.2610658542956426,32.7433,1.2944667757669712,-32.02345336557395,-8.000133645240602,-55.82349077587549,29.78592616656755,0.17551299999999928,32.889999999999986,1
0.707477375308909,-0.40712223827547017,-0.5163628143827484,0.002995638265768773,-0.0018090486958213495,1.2615149595523512,32.742516,1.9995043877297485,-32.066600422653046,-7.9698504631987035,-56.04833951628832,29.441537208559552,0.17679299999999934,32.88999999999998,1
0.7098076994195591,-0.40537533603952275,-0.5168051744306079,-0.08666218226234772,-0.0021220582312619775,1.260679165205464,32.742786,2.456887532743688,-34.08332974044834,-8.264246206785366,-54.76235226048791,-42.24053976036395,0.17551300000000022,32.890000000000015,1
0.7094965349207704,-0.4140917826708241,-0.5094678686673199,0.013379703553213721,-0.0012907543732103715,1.2598952383967934,32.741405,2.4066712281662306,-38.06006920845134,-9.151666075162064,-51.23233763898398,-27.155180634619835,0.17679299999999978,32.890000000000015,1
0.7092519310079409,-0.40387641026182386,-0.5152356589277817,0.05419289836884806,-0.0021185306609354834,1.25800500694912,32.74092,1.8755495588894484,-38.80808746246846,-9.09652158877292,-51.01438217952089,28.895321222335433,0.17807199999999943,32.88999999999999,1
0.7096245285331284,-0.408221552889588,-0.5136937919928555,-0.020371630666763806,-0.0022243715735917745,1.2592181818482981,32.741196,0.9883442326525064,-38.88768833320231,-9.251992252678946,-50.87223219686705,34.26015165135117,0.17679299999999973,32.88999999999996,1
0.7115324433528878,-0.4048649880512735,-0.5147680758264458,-0.0703438460268029,-0.001508496808810539,1.2589598914138829,32.741364,-0.025888226511035825,-38.19341353314874,-9.173557035229694,-51.628830884433356,-12.616137136176203,0.1767929999999987,32.88999999999996,1
0.7111711194561763,-0.4068307999956485,-0.5123069623765482,0.04413549337832453,-0.0023185701398613476,1.2586973705556506,32.740936,-0.8575245289622863,-38.14769394155627,-9.189880407008415,-51.322458211315436,-1.2626815311804709,0.17679300000000062,32.869999999999976,1
0.7134737926180394,-0.4057390754037819,-0.5091303393444351,0.04168330713422763,-0.0021428221945916878,1.2584790446043885,32.743824,-1.4517271497805597,-37.679455864154136,-8.927482248924157,-51.856286707385365,-23.11821775098146,0.1755129999999988,32.87000000000002,1
0.7121807901583335,-0.4054194631488059,-0.5124277024412327,-0.036614998232572485,-0.0016317435388461478,1.2568158006807557,32.74213,-1.8582999746372688,-36.96266920182692,-9.06763741082535,-52.165597628557464,-20.10727034790808,0.17679299999999937,32.87000000000001,1
0.7099332115301845,-0.40522063634252864,-0.5173404227913184,-0.039404691500426935,-0.0021617772158100943,1.2584513286585484,32.742966,-1.9789819269172164,-37.09463158117486,-8.927205159108647,-52.354689908829684,-26.38404892030858,0.1767930000000004,32.87000000000001,1
0.7092440160567669,-0.4071351014251941,-0.5176733829856144,0.03790406070239108,-0.0021676794004080522,1.2573629589817914,32.74314,-1.9335391458349664,-36.26557156233907,-9.107177075901205,-52.7182735977997,12.201143818566539,0.1767929999999995,32.889999999999986,1
0.7078654911763362,-0.40679541987278556,-0.5169508835054571,0.08436382982113631,-0.0023574612753104345,1.2589627773449923,32.74157,-1.6894788307439836,-35.90773571400916,-9.050010384349658,-53.49373583633534,38.205444656016375,0.17679299999999998,32.889999999999986,1
0.7048006225583432,-0.41458676133305605,-0.5173049455271898,-0.01123308080916548,-0.0016784143387801698,1.25966157560764,32.742386,-0.9631907080867096,-35.218037820419184,-9.026111815970266,-53.05294079230555,4.654813774625919,0.176792999999999,32.889999999999965,1
0.7021802749294794,-0.41381054735120804,-0.5197776021973873,-0.05701541368123052,-0.0018793021998427927,1.2593439979787968,32.742332,-0.040407053351115975,-35.16769988783537,-8.871591600429564,-53.42591443439246,-51.21840852502734,0.178072,32.89000000000002,1
0.7053709837551507,-0.4085466470100772,-0.5207345184908552,0.040965194699621156,-0.001681687694177821,1.2611714179857458,32.7433,0.8234464712596052,-35.71971531413278,-8.613475083044099,-52.99856906211731,10.899391064599302,0.17679299999999873,32.890000000000015,1
0.7009135612998794,-0.4152750319036812,-0.5215463363681573,0.02374470192972469,-0.001577843410863632,1.2588806718959904,32.743076,1.2280441972738476,-36.6218934275932,-8.475793392316218,-52.347821529551574,42.844447138114575,0.17679300000000023,32.89,1
0.7064845366202485,-0.4071427359648977,-0.5205887356328696,-0.054238093564927876,-0.002081851250625833,1.256884963316871,32.74446,1.035970737338525,-36.70028757094289,-8.634643560952336,-52.89685082847706,31.18319089023005,0.175512999999999,32.88999999999998,1
0.7034471175021162,-0.4097265440212358,-0.5230186071621635,-0.053569795400269786,-0.0017192342692481338,1.2575388564412486,32.741196,0.4424596616683154,-36.356057993092534,-8.639376735109428,-53.098146102471446,-19.750797036312424,0.17679299999999992,32.89,1
0.7085112915196472,-0.4064469623988221,-0.5161552981756954,0.03961696101849312,-0.002391260915023973,1.2588633279273966,32.744186,-0.28576123370670126,-35.99378123926853,-8.349044185823562,-53.066719433775376,27.51762971838585,0.17167599999999958,32.86999999999999,1
0.7060853038736555,-0.40825596741886533,-0.5202937584236995,0.030893302856679464,-0.0018759223881310264,1.257575575794323,32.74216,-0.8656544248621283,-35.79069311627461,-8.135772837598518,-53.51559034797659,8.195376123568153,0.17551299999999978,32.869999999999976,1
0.7100975722932893,-0.4033255404406075,-0.5169358531275235,-0.04758661960112787,-0.0016858528664601671,1.2588482133479884,32.74192,-1.2144776192945,-35.60708899016889,-8.129685902100263,-53.334690651593625,-59.03937099715439,0.17039700000000024,32.870000000000005,1
0.7041097145332278,-0.4152817624308503,-0.5250032050633636,-0.013942262380935766,-0.001791348032963892,1.2565176182186117,32.741722,-1.3486014482189455,-34.93343765288227,-7.89523848850244,-53.64553760321185,-39.69539658055324,0.17551299999999856,32.869999999999955,1
0.7332976334461747,-0.39895797586041687,-0.47890345166543424,0.034645317799206356,-0.0020646442661637274,1.2579537875720135,32.742878,-1.2524855826548997,-35.26600329131827,-8.678123560837477,-53.315876999199226,36.92605935812461,0.16911700000000054,32.89000000000003,1
0.7406120701050799,-0.3745045448725228,-0.4832778469734976,0.06650124893134125,-0.0016245005280473362,1.2565795389066208,32.74445,-0.44411986108847795,-30.966428320329754,-7.680883163447165,-55.90859310164663,41.311337189683144,0.1755129999999991,32.89000000000001,1
0.7261758877911837,-0.40307622353813105,-0.4940273404562891,-0.06431370567405537,-0.002250310839396522,1.2593962452693492,32.74348,0.40950216855656957,-34.30870105524891,-7.717161598351231,-54.60918860002234,-9.254637760461636,0.1755130000000005,32.889999999999986,1
0.7289709938058089,-0.40635288056393687,-0.4747087044366959,-0.03889743318948482,-0.002158184281621368,1.2590860707889082,32.742023,0.30589377824998887,-32.97847495491058,-7.412961922668201,-54.85555614083342,-50.9633260720424,0.175513,32.89000000000003,1
