chest_ACC_1,chest_ACC_2,chest_ACC_3,chest_ECG_1,chest_EMG_1,chest_EDA_1,chest_TEMP_1,chest_RESP_1,wrist_ACC_1,wrist_ACC_2,wrist_ACC_3,wrist_BVP_1,wrist_EDA_1,wrist_TEMP_1,label
0.8402389858516264,-0.04249355190996445,-0.38823729204562785,-0.003151215305373569,-0.003314043359950938,6.387863323184809,34.306866,2.383769331338534,62.19603749647671,3.680782421488666,9.11058179389893,154.1819089346097,1.356115,34.34,1
0.841262673390179,-0.04499318401685909,-0.3873743927407529,0.05133670337259337,-0.003428559602176598,6.383723369172454,34.307907,1.756151540041403,62.54456690152869,3.261349101382626,9.605641133748744,346.8152145082812,1.359951,34.34000000000001,1
0.8393773308961294,-0.042322480302869565,-0.38853820773065895,-0.00028245467251670077,-0.0036479485446815605,6.382018736340954,34.31132,1.5734346201212757,62.030164245508196,3.0288945294259944,9.4901649177101,-313.8065827879706,1.3599510000000001,34.34000000000002,1
0.8416748695478544,-0.04512833903511112,-0.38823288829128355,-0.043252336473002924,-0.0036003183443637666,6.372799717174729,34.3108,1.532128958408836,62.620008973906536,3.2660784145040203,9.76503698164708,-401.15633915242597,1.3586729999999996,34.34,1
0.8397679899670734,-0.04259294673297643,-0.3877993783912818,0.007758398570574084,-0.0032905541924759247,6.3655064895103575,34.31442,1.4684742130991448,62.64754060783233,3.4428164417210354,8.972298008765186,-184.11956281704417,1.3573940000000009,34.34000000000002,1
0.8405775530351697,-0.04566133045065802,-0.38951535763094697,0.047377132877722536,-0.0029738290832785346,6.361234310076068,34.30943,1.5680292819270991,62.7659915880974,3.295224953528585,9.587168164485256,-75.05446989094716,1.354835999999998,34.34000000000001,1
0.8391339883117092,-0.0429302601507026,-0.3902124408706075,-0.013083540841977721,-0.003914746368628257,6.360162367499265,34.314312,1.6800721910750955,62.38626169722669,2.9221613771871215,8.943279045858102,238.43625028753414,1.3573940000000007,34.34000000000002,1
0.8404815289989771,-0.045696171215177064,-0.38966323605268044,-0.04903725277825985,-0.0033137338372087204,6.3490646509823545,34.316177,1.6229709125365435,62.51164631243643,3.491464069671528,9.540478074805446,157.23748172842573,1.3509989999999998,34.34,1
0.8392100640235388,-0.04356083265267618,-0.3897007205722872,0.021448405901512257,-0.0037704006796627854,6.344790962927,34.316677,1.4086938624159324,62.44516183635401,3.4226609851688887,9.113871948982407,-50.72898793182457,1.353557,34.34000000000002,1
0.8408828008542695,-0.046631177603377635,-0.3892030188826805,0.04236772249532322,-0.0036040698346468244,6.34093157803856,34.31608,1.214241448361704,62.417121588893735,3.776684929344966,9.969330662908735,31.589279609202517,1.3446039999999995,34.36999999999998,1
0.8405483621747873,-0.042494835359498995,-0.3884686386578343,-0.03234530031960721,-0.0033735264266642156,6.3355513509496335,34.32274,1.2783654896848924,62.41791795137187,2.8930348256194867,9.045682219894932,-0.8761022239487989,1.354836,34.369999999999976,1
0.8410292238051319,-0.04599036532055515,-0.38921264428038677,-0.03558623631852644,-0.0032520833504748226,6.3192688361954685,34.322266,1.3913134716917435,62.57050054419534,3.641255833774825,9.773265817317295,-25.040599076543916,1.3471619999999993,34.36999999999997,1
0.837001193088014,-0.041368445572114304,-0.3908688700700561,0.028783207770785108,-0.003451781274653515,6.306721075566324,34.31944,1.7119277921967269,62.33860313548485,2.7112896089473484,8.740472493054915,-24.521945221392457,1.3497200000000003,34.36999999999998,1
0.8385842371700047,-0.04690577967203882,-0.3917342329444233,0.033870526056504084,-0.003099152113732644,6.298973544137756,34.320995,2.07239293645616,62.66706624384429,3.857713291795899,9.9843748522395,37.13143519346443,1.3446039999999981,34.34,1
0.8389431504777782,-0.040543575582093205,-0.3910843299156679,-0.024933168726840448,-0.0025009355323187188,6.296291166154832,34.323574,2.1474143254079787,62.27271468912541,3.00085849722902,8.882582914796036,-51.033217852240334,1.3509990000000003,34.34,1
0.8385935387517913,-0.05106533992233281,-0.39395203192579237,-0.021887668429500233,-0.0031425634891143637,6.2901384934333,34.323776,1.6972698407569198,62.43434039225288,4.164235828615018,9.955373368477444,46.68306492833912,1.3433249999999994,34.34,1
0.8386456826142694,-0.04039973777981743,-0.3925111840204115,0.054131248840538666,-0.0038703905777380853,6.28565206495811,34.323387,0.7670400542242642,62.30512669409587,3.104931610254273,8.800797261077355,51.22530806746867,1.3446040000000006,34.34,1
0.8360903244160759,-0.06075212660646192,-0.39653159793094706,0.00531301171728027,-0.003427356632190062,6.282593412641349,34.32179,-0.08340520198778567,62.59708963208459,4.791159403747873,10.374477127473186,335.01492834194966,1.345883,34.34,1
0.8378721198918732,-0.040457143035918075,-0.38888948905672993,-0.04162280124424046,-0.0035415004250599026,6.270816193605804,34.327904,-0.5582135729915009,63.82585489525724,2.9749440565205982,8.095453905596253,295.72625048193606,1.347162000000001,34.34000000000001,1
0.8437731025230687,-0.043866185266438,-0.393615953479206,0.003280682096559649,-0.0032010992849600215,6.259100948513551,34.326862,-0.8605570021933946,66.43200065921553,12.796706844521795,19.71791704731367,-108.99390001521607,1.3369310000000003,34.34,1
0.8349800795203612,-0.036197275903250864,-0.390949873495348,0.04851442581297842,-0.003319428982300776,6.256652075773739,34.32441,-0.8595288869704837,46.45688209088664,20.416274363139802,33.4385837663723,-352.67795238896815,1.330536,34.34,1
0.8430068793178632,-0.03838911659427745,-0.3878297303066607,-0.012221708535475094,-0.003632840992518876,6.255565355980222,34.326405,-0.761534629094139,33.09977441306775,23.13580000794237,45.61513921720727,-249.45171534147175,1.3036779999999988,34.33999999999999,1
0.8449911104084344,-0.02680999669831603,-0.3853879450300588,-0.0657190286585348,-0.0036704954569148044,6.237254973477943,34.325867,-0.5636202065721067,23.343105302377012,21.847594431146604,51.69504643722549,-223.71106284664836,1.2998409999999998,34.339999999999996,1
0.8465792959975638,-0.017846043848296696,-0.365127016027998,0.005636464695183445,-0.0034311260686105843,6.217928474633002,34.32881,0.15183946049751676,11.787727772691643,14.179615796272069,58.07508813123008,-147.7955930977771,1.3241410000000007,34.339999999999996,1
0.8393346018814256,-0.04900697423245405,-0.3896422510270286,0.08202843123231533,-0.0035785750433847824,6.204411857118399,34.328033,1.7727494581039471,16.833757195026237,19.28207212484462,60.62408915758301,183.6636658575495,1.3177460000000014,34.339999999999996,1
0.8450972639671466,-0.03199715707857221,-0.37589997356685434,-0.014145033008384803,-0.0031694833002025844,6.1909487654791535,34.326977,4.227085238148478,13.023384993759922,21.503622483661022,56.92745634530803,-83.34820396033881,1.2717040000000002,34.33999999999999,1
0.8422660497943455,-0.03931766677569763,-0.37581812211471743,0.006570753494499445,-0.0036602829628112434,6.187087841448181,34.325916,6.34309544282505,13.389976433544632,22.233509195474927,58.45561031033729,-119.7001114327544,1.2755409999999991,34.34,1
0.8415633068858235,-0.04625711240558698,-0.382007404137804,0.04725043219087375,-0.0033200429363689533,6.190646857191128,34.325592,7.504280419346633,11.54335825208699,20.06629642355334,57.73631023167057,217.05752373319248,1.2653099999999995,34.33999999999999,1
0.8453401981252159,-0.04886672710065631,-0.3773395585669301,0.019275635060408476,-0.003520015907738756,6.2018520009955305,34.32791,7.079374890794362,11.705012799561226,22.844406147594572,57.80356978951443,514.1283319325784,1.2742620000000007,34.34,1
0.8483047098812269,-0.040809513127486305,-0.3724055444762774,-0.056523211310316575,-0.0040212530312821815,6.210878998907683,34.32556,4.7745153706642425,11.541882585727144,20.158515798013987,59.15643020267172,-39.21344453462457,1.2793779999999995,34.329999999999984,1
0.8419612249449551,-0.04929255070862514,-0.3838694917063964,0.021346551221009664,-0.0029986178092131603,6.21702139444217,34.32709,1.588488031635857,12.286227371268229,21.535651957935553,58.0130645955382,-132.45331422859695,1.279378000000001,34.329999999999984,1
0.8434507154578088,-0.045809697903397666,-0.38019294862980163,-0.004600803584010657,-0.003195837912194231,6.218791268241415,34.327133,-1.482071917681886,10.394523350998348,20.222229835357062,59.32678185089846,-67.91155502518046,1.283215,34.32999999999998,1
0.8432805314207056,-0.04699103958539698,-0.38297294424097517,-0.05431194083446116,-0.003647741709751526,6.215997588280435,34.327255,-3.691021071192431,10.783795750847878,21.27681800321934,58.30116615297027,52.77653293789291,1.2934460000000003,34.32999999999999,1
0.8442297997755851,-0.048310807164739435,-0.379957247580211,-0.012850018255763082,-0.003475395010206906,6.205210704422769,34.32421,-5.041212546920552,14.057438343813487,20.42336465306799,57.920997566600654,-13.728107113114902,1.2985619999999993,34.32999999999998,1
0.8420819972029218,-0.04696826198764061,-0.3838124317402083,0.049483249846312825,-0.0032480533185859834,6.198575915312013,34.32635,-5.513792014187374,10.459160379209708,20.655137158081878,58.11137690748754,-29.63611343209227,1.3023990000000008,34.32999999999999,1
0.8424531755303706,-0.04650055464733648,-0.3832823208564028,-0.0298279589739055,-0.00340768850872006,6.191371057311381,34.329784,-5.324855858233076,9.234626559948344,19.062763540576153,60.35430069015799,-1.2017918498383977,1.3036779999999992,34.32999999999999,1
0.8417803863281382,-0.04812722708732957,-0.38672501782217455,-0.029505792052756188,-0.0034658595934253193,6.180820394285834,34.324554,-4.802477205407529,10.566950586658129,20.266760215968333,58.47010338896431,15.669990841308762,1.2998410000000002,34.32999999999999,1
0.8403082555814756,-0.0463180396936501,-0.3860609358690327,-0.01141417247630418,-0.0039044242363371843,6.16926697071642,34.328136,-4.2995211190755045,10.478660604314895,19.246119703608176,60.13721381593328,44.45611220451762,1.2921679999999998,34.289999999999985,1
0.841317351805049,-0.047272919597204095,-0.38985172722882816,0.06898961042358298,-0.003540404493844633,6.1612591271363195,34.325577,-3.803358156476679,10.917456317584744,20.259717798452687,57.62536413139751,10.305777364622184,1.2601940000000007,34.289999999999985,1
0.8370725606800091,-0.047332394719554534,-0.3898304518932199,-0.026813247103837864,-0.0032764007540733893,6.155914388298371,34.323166,-3.365183645261383,9.588181718609752,19.473129843381987,61.05922716391341,-54.42984890627761,1.2589149999999993,34.289999999999985,1
0.8447392557713597,-0.043498010827138965,-0.3801529195964846,-0.009508338972085827,-0.00301418994771309,6.154137987524117,34.32684,-2.8931078328006494,11.256769148701776,16.311400257897468,59.791585802997396,-21.323827498560508,1.2563570000000002,34.289999999999985,1
0.8551434639315165,-0.0446836322294626,-0.3629153020769822,-0.0445049799246703,-0.003571930389369939,6.1712698985486,34.328075,-2.421576108151512,34.62138716323932,24.40083369978737,49.73876067909455,-24.88215251870414,1.2601939999999998,34.28999999999999,1
0.8460218391441751,-0.03894131534180444,-0.3667453417250064,0.01686318808674046,-0.003510662111465535,6.174216798315736,34.324677,-1.370195511177662,35.609812205066156,31.632887066534266,37.38998866681132,17.60094770183222,1.1259050000000006,34.29,1
0.852043052306261,-0.04064875316146446,-0.35727137735591585,0.013105152319283735,-0.003096139418233895,6.165897763013115,34.32732,0.21942694016607642,38.74845175887999,31.991052207547767,33.035872924597605,-48.00228461989048,0.9315049999999996,34.29,1
0.8444375533644912,-0.07626974640313369,-0.3710650064681178,-0.019377404948431223,-0.0035887008228758046,6.148826783006495,34.32949,2.4886770352114964,55.30909730618684,44.800350908184335,9.56103635508671,13.701907241462564,0.8457169999999997,34.29,1
0.8468547585019801,-0.036069258326304636,-0.37035315065884883,-0.018405023075047777,-0.0032131069841780636,6.128966564930397,34.3319,4.547468706930979,31.15655210699158,19.94326215744311,45.58404855487364,180.62489458896047,0.7920019999999995,34.27000000000002,1
0.8534979839364071,-0.03504677131778656,-0.35635324299161253,0.058036718257580375,-0.0034320370795222844,6.111526981095385,34.32914,5.588484175289994,8.349547428909414,9.606059166366077,66.68131004944486,-2.8120349421682693,0.9736119999999998,34.27000000000003,1
0.8478309952464703,-0.0593456801076422,-0.37046307212788904,0.051241199172158226,-0.003424829677174582,6.100617457556322,34.33386,4.996241779671576,7.7360620929096,19.806165301760252,57.75970782002836,-277.6870768161446,1.1974270000000007,34.270000000000024,1
0.849113788360517,-0.053149969398537014,-0.36651138796207317,-0.016754158067171603,-0.0031687084682818817,6.097210204579716,34.331165,3.330434116522062,9.594560081052274,18.600302355592277,61.29509955292015,-17.864322997831568,1.2306789999999987,34.270000000000024,1
0.8473084070802342,-0.0551305803861009,-0.37297064963279924,-0.031496683471574395,-0.0032580530059166295,6.091451743202519,34.334755,1.1664424227911352,12.508499814169113,19.220955846069778,57.82599712899259,-68.17911712372954,1.248585,34.27,1
0.8452590638354541,-0.05625461772055618,-0.375265315409189,0.032400485554333384,-0.0032120912066325624,6.087645445965715,34.333252,-0.8737655195741845,13.578262624770417,19.058067534789057,59.620957175770414,284.17540139149645,1.2498639999999996,34.27000000000001,1
0.847021467591321,-0.056182637059933815,-0.3705715592413123,0.04529864131319792,-0.0036836643621484745,6.084511525747146,34.332596,-2.232351700354268,13.407869322486176,18.647429684419635,57.67741701072798,-232.732757166395,1.2588159999999988,34.27,1
0.8514403621851925,-0.046173104934294065,-0.3720097130326656,-0.05156295751807423,-0.004459265726105577,6.085741626187473,34.339188,-2.8614829984219314,16.938519111754857,17.878013331250337,59.487589192213974,94.92569056747986,1.2575370000000003,34.27000000000002,1
0.8433023751614611,-0.08002284203474944,-0.3777476836734696,-0.037654507489132044,-0.0049146502339342405,6.105210886498178,34.334057,-3.4366828015908935,24.761758988439038,21.059310772835044,47.613241035750036,-284.7722728674031,1.2677689999999988,34.24999999999999,1
0.8428985769502818,-0.09938298468006157,-0.3803192245773081,0.0045576741625238636,-0.003660766454957852,6.131530596846246,34.335556,-3.7845854620381636,59.52069187968089,19.853241578103386,22.58791712426675,74.59846430532014,1.2959049999999994,34.249999999999986,1
0.8481812941035842,-0.08781203953575661,-0.3668315560265647,0.05622459014704347,-0.002987755172481116,6.132993344464373,34.341293,-3.374131506475556,57.05722186135518,21.389616007775807,16.93361033931172,119.77435902571267,1.1897530000000003,34.249999999999986,1
0.8572667277031867,-0.08155185802286535,-0.3610345980334664,-0.05737174685952171,-0.0034555276531181944,6.1268342778964895,34.340084,-1.9053678689578064,58.92716357463268,27.141222674000485,13.923033969292812,12.815615078404333,1.1718480000000009,34.24999999999999,1
0.8544152970670102,-0.07284152637939531,-0.3519014485451356,-0.026901316723648334,-0.0037837763909145316,6.115800643102757,34.33867,0.5186888851561067,61.748415048250756,27.289700168157673,36.820406246833834,-178.1882219507082,1.2294000000000003,34.22999999999998,1
0.8538081446995265,-0.02693642117832295,-0.3532295518166468,-0.07138428611784278,-0.002858937515161163,6.112603004594488,34.340107,3.1620964375849696,17.384764502497585,23.688106350483487,35.59427885805472,311.1146049123708,1.2191690000000002,34.22999999999999,1
0.8548981636179283,-0.040002451659728454,-0.34277710065038236,0.04352512580198059,-0.0030398985590947155,6.094065856410821,34.346207,5.05233897243332,20.278798440217155,2.0050061047396492,57.25336437259337,75.67452758586796,1.2613739999999993,34.22999999999999,1
0.8449729678177937,-0.07236601952061515,-0.36294496095312234,-0.03171455571071865,-0.003521371927652927,6.08656297321736,34.35233,6.646084128159336,27.027377288954856,3.1366557988461032,69.26222244580013,-118.92059785820268,1.2984630000000004,34.22999999999998,1
0.8480090085173018,-0.04703908125445356,-0.3807134714130337,-0.04519443332743425,-0.003478527642767542,6.076258944099803,34.36053,7.703141922717305,-6.0313698020804205,13.58962960516909,57.72329368296348,18.227093247937447,1.3086949999999988,34.17999999999998,1
0.8466119647958696,-0.03816898063682208,-0.3637217910840414,0.05503354354401581,-0.003912698327111736,6.073109334170558,34.36975,6.994621840182168,-19.565757801828205,6.777326936472867,61.49915767610307,32.703771699110334,1.3150899999999999,34.17999999999998,1
0.8494600833003522,-0.059110877288920685,-0.37270187712046665,0.060240478668980545,-0.00353386694706037,6.067592608979047,34.37149,5.060951811207498,-12.164582381588973,11.822965062647292,59.80538083274092,-9.696378942342927,1.339389999999999,34.17999999999998,1
0.8472984224958059,-0.06368820568641849,-0.36854569299268225,-0.025095553572288248,-0.0031419372385844925,6.061597914679278,34.379192,3.024070585154722,-15.211534208819648,10.632915211900302,62.31761195880111,-121.17539280623136,1.3355529999999998,34.179999999999986,1
0.8496882152852006,-0.0449472758438928,-0.3701529412648457,-0.0037455679854740426,-0.003095447711330342,6.0551483466843,34.38306,1.3635121607179905,-20.76076966891837,14.329548526104993,59.55884834144734,132.87936889650703,1.3534579999999996,34.17999999999999,1
0.847145179095419,-0.06315882556354847,-0.36612309028968476,0.0468390524564675,-0.0031199713748278775,6.054791993547345,34.39234,0.14593553600357337,-11.21663146734234,8.09973234436558,55.81095434194329,206.73949818664093,1.3509000000000004,34.18,1
0.8513143625302128,-0.059020091093839176,-0.3642826630501292,0.003971532484975968,-0.0028765736216092965,6.049056971912585,34.392605,-0.522467494802987,17.930407088602706,4.828481997295558,65.82177036959834,-58.27408972782671,1.3304369999999996,34.17999999999999,1
0.8491567904090515,-0.035140558764990754,-0.36225198902713623,-0.04389002018439265,-0.003423763905838401,6.0359084182790195,34.39312,-1.304143266962254,8.759798028834885,8.715056194560963,63.82671245320917,-249.1754958461976,1.3022999999999998,34.17999999999999,1
0.8563844478269032,-0.04277141137228913,-0.35206542791479667,0.03696235624954335,-0.0031144743467046566,6.03278261987566,34.397953,-2.1720778628391653,5.416104201193109,8.510809300692504,63.84145238982736,-34.97884132792608,1.309974,34.20999999999996,1
0.8485602391612848,-0.06953534496733522,-0.3618399611740767,0.048430389935116794,-0.0030520072031312777,6.042773260341618,34.400658,-3.020330261841709,7.280234236525857,21.06036637944674,59.095197283350785,209.8411246863303,1.3176469999999993,34.20999999999997,1
0.8510235965248554,-0.06562759309798906,-0.36641164442540736,-0.012627377662355298,-0.002662156051029095,6.045076132839784,34.40692,-4.300017475043669,-8.606240304928104,28.734374417241046,50.14999382786303,-444.9851897241047,1.3214839999999994,34.209999999999965,1
0.8516636856537005,-0.0627463265106448,-0.3596010150851257,-0.02356038785079321,-0.003395141799717712,6.04477730172048,34.404026,-5.815817561143053,0.6488991728476107,20.572146657790015,63.71964982498833,73.80822211490309,1.3176469999999996,34.209999999999965,1
0.8502035886663435,-0.06956843008159196,-0.3693034713331558,0.04370369923368829,-0.003085246845605056,6.045563489795825,34.407364,-7.114951305979346,-6.1551717121926695,18.050547575655475,59.583424209180194,498.5439669384467,1.3150899999999994,34.159999999999975,1
0.8471827417269309,-0.06484329341839268,-0.36646729919478593,0.009706094354879544,-0.0028758092601469526,6.050617295296597,34.408997,-7.554911661430845,-8.53037511621332,14.850451594214594,62.01766256087228,59.03780072247617,1.3227629999999988,34.15999999999998,1
0.8468798402864554,-0.07501954200110103,-0.3753975675558328,-0.04325183801761801,-0.004301693047685759,6.050485043784529,34.413643,-7.220489013962039,-0.36286548633440946,14.540185084263967,59.06805220178916,-140.74399944440276,1.3253209999999993,34.159999999999975,1
0.8456009880227932,-0.06603303784088375,-0.3725239878308673,-0.0015333142601235844,-0.0027379362053974133,6.053280728743298,34.41165,-6.70967457920462,-2.6436600000211046,10.135582477793854,64.9662142051444,-149.4958306853484,1.3496210000000002,34.15999999999999,1
0.8470783085437289,-0.07580239693418177,-0.378839338622314,0.050674882961401164,-0.0029920404483915557,6.058171481682539,34.414864,-6.1953773536811525,-4.983322963387968,12.67270946913856,59.77795079668085,23.868445380293156,1.3483419999999986,34.11,1
0.8455056643427317,-0.055595691901746215,-0.3748618877118778,-0.020178218168401534,-0.0018694858925862232,6.059557899377717,34.416508,-5.413319056372994,-18.793292292789065,9.731653706281984,62.35446840743276,273.7724525317792,1.3547369999999996,34.11,1
0.849642766107017,-0.04189631457206871,-0.36924134739602543,-0.03678273004599931,-0.004027665661457125,6.054654963813969,34.415546,-4.308297298187785,-2.6814859427150908,6.879871181182983,60.60818456028767,-253.2886317046883,1.3509,34.11,1
0.8488247567271541,-0.05925523086744358,-0.3687004944314253,0.009877374824239381,-0.003145489485042964,6.048232199863982,34.416668,-2.8470380833435587,-6.501959376512899,7.594604109937707,66.74580968451282,-530.1885197484912,1.3304369999999999,34.11000000000001,1
0.852545093370573,-0.03453515712548412,-0.3593247087553607,0.02537403491825922,-0.003250740932917961,6.040507722760078,34.417732,-0.5891534040694825,-3.0647719716803583,10.861784472316717,58.762363876525384,106.48007665436636,1.341946999999999,34.12999999999999,1
0.8445417787145151,-0.04726740963334253,-0.37040860847078877,-0.038069382582280244,-0.0033595596807195335,6.028597721032833,34.420185,2.0586872569710266,15.895938314264791,18.463597472852925,60.192740522141044,300.1051117265995,1.336832,34.13,1
0.8468989410472516,-0.033391294947622885,-0.36758614851249166,-0.009255357511162864,-0.0029148062939058374,6.013351969860016,34.423157,4.329868899953006,4.221033938128283,15.04766020712154,60.12360219284987,34.85672830615625,1.3560159999999994,34.13,1
0.8477432558690712,-0.04158434639970853,-0.36753721935289246,0.0510814155421927,-0.0027286741610055894,6.014152376294321,34.420288,5.405772332447087,17.833989554402013,15.583760814962526,59.75871080913667,123.16530361124896,1.3611319999999996,34.13,1
0.8505599731199284,-0.033580115029600864,-0.36169333398344683,0.012673898286777292,-0.0031433267670354275,6.010196297730582,34.422024,5.0052608430576475,16.079268255730394,15.246956348833107,56.87206374113898,-106.15242911534875,1.3547369999999996,34.10999999999999,1
0.8491530340634613,-0.047889725246451104,-0.367040120538063,-0.04709799216855981,-0.0030233116374306997,6.007190885515317,34.419533,3.9345096594939397,29.13180212546572,17.167997760628783,54.88734590338151,-59.49418697861668,1.349620999999999,34.11,1
0.8497339613846159,-0.032139343245118523,-0.3641041547456229,0.045152152651236066,-0.003930015349052097,6.001736855802386,34.421494,2.4123942805988534,1.3115473724245676,10.333006782543338,63.2994196584357,121.85034217166927,1.3457839999999999,34.10999999999999,1
0.848633776389043,-0.04435555159149717,-0.36701869778194457,0.022771792102749735,-0.0039008822494563575,6.006475106224065,34.42544,0.6442145239455996,7.591301718814428,8.487899737358012,63.72436863988739,-120.74466174761187,1.3419469999999993,34.11,1
0.8479198204956343,-0.03895253748191926,-0.37078130456336045,-0.030474979158217553,-0.0032025907564316946,6.001036664700677,34.42386,-1.035165885005723,4.772706461983993,12.11084717012441,60.62060326989796,262.7711990891678,1.3304369999999996,34.109999999999985,1
0.8466872445728445,-0.03919073229500736,-0.3689585376724362,-0.009790513543002935,-0.0033249000638545575,6.00115443499983,34.42544,-2.198380632460917,6.944282485444228,9.38355324356893,62.451299818058274,-368.67441301516175,1.3304370000000005,34.10999999999999,1
0.8460418234611162,-0.04761589363697839,-0.37631371066028885,0.05292304232211797,-0.0030098527782356317,6.003109329442766,34.427753,-2.620833103095303,4.411074180011008,11.248050788389643,61.38603244991862,-102.59362118457405,1.3214839999999997,34.109999999999985,1
0.8476501882313435,-0.04395660981507504,-0.3714075655971111,-0.018263453917519375,-0.0034204763849784367,6.006618493512318,34.424953,-2.2964908484887254,1.807377400577015,7.4006206151267016,63.09524045954754,-54.57265293368995,1.3227629999999997,34.10999999999999,1
0.8449179200364609,-0.04774742489567213,-0.37881554629067854,-0.03251449959245459,-0.0036844547438348143,6.0021302275938,34.427105,-1.759095884345305,8.533127999215328,8.303389693029025,62.04494991342584,165.18167766273402,1.3189259999999992,34.11,1
0.8451745611737502,-0.04451106748041997,-0.37405913371529714,0.02802945956266177,-0.003566480651399867,6.003140332828998,34.42504,-1.2290411156558754,6.646586216390432,6.924604242673127,63.10836431387541,164.284732616389,1.320205,34.11,1
0.84567021496472,-0.04720792684990384,-0.37908775713021403,0.02787840249319185,-0.0027973466821062014,6.002344666571948,34.428688,-0.5169233814376168,7.626850086642534,8.31359472048407,61.53105544904859,202.23535978828622,1.316369,34.11,1
0.8448208953883457,-0.04475437325516649,-0.3753707714667474,-0.048591346461304884,-0.00333139655568398,5.99417914637499,34.42817,0.18862052346458208,5.914121159620668,7.130779565562902,63.121599308159624,-55.518554940908054,1.3189259999999994,34.11,1
0.8447309626210217,-0.04521062625960931,-0.37867837648855673,-0.014449936781585368,-0.0038473903415765097,5.981656377513292,34.429207,0.8341339331177239,5.917794389762718,8.550568196655135,61.55793369667941,-198.20981729102925,1.3112529999999991,34.050000000000004,1
0.8437154700082182,-0.0423186320704082,-0.3748024547327405,0.035270132908192905,-0.003483060443782006,5.977841222527679,34.427204,1.7381182741900918,4.799730566701098,6.976865754384955,63.53534616045872,17.177044148656062,1.3240420000000004,34.05000000000001,1
0.8453488748686097,-0.045315679232257884,-0.3797134637964204,0.01905782398533015,-0.0028113313477779356,5.971873250997957,34.43097,2.5736923160959844,5.019356591672513,8.033484627725654,61.719432457771696,105.92393264855829,1.3163689999999992,34.05,1
0.8450391023686451,-0.04248950998898032,-0.3736587159972538,-0.051714346126753706,-0.0033356409991985047,5.968023085082018,34.432247,2.6761422834036233,5.101312170432981,6.383395711108859,63.57605024303293,-9.995437525432358,1.3163690000000003,34.05000000000001,1
0.8454335317448032,-0.049731222736559694,-0.3792436644726297,0.008013913838282687,-0.0027347591747245072,5.957312885905594,34.431576,2.1568069136819066,4.884888508009543,8.143034656191208,61.40812758756311,-52.73062307610335,1.3138109999999992,34.02999999999997,1
0.8459657447713937,-0.03571020639747461,-0.37133104060492444,0.05188103613357979,-0.0027185526766648257,5.95588235278812,34.433357,1.5646034594526477,2.0321418681305277,6.33320539061917,65.56779736415712,-6.457781987322288,1.31509,34.02999999999997,1
0.8454993679478058,-0.03619122302394096,-0.37864642657129993,-0.0061118720354418786,-0.003534612405034897,5.94898274048768,34.43177,1.1810947248318644,4.017569699305156,10.739489309101154,59.450006775372,35.69789262986979,1.303579,34.029999999999966,1
0.843519908706826,-0.05046829493254147,-0.3753256640981876,-0.04696054076492662,-0.002305158058593028,5.94523995931935,34.428497,0.7216486876912885,5.878561129571593,8.163702697236838,65.0536539881323,-19.62538101017658,1.3061370000000008,34.02999999999997,1
0.8435280020817374,-0.06508131450643827,-0.38495847781495285,0.00899963723031521,-0.0036276572536609202,5.938042307732325,34.4272,0.2894441783046345,-3.5135936301264032,17.33132693088145,60.78481540319324,-50.652075393058816,1.3099739999999997,34.02999999999999,1
0.8448836668084484,-0.038356424909645345,-0.37332007511542353,0.054298983794249155,-0.004005248068475051,5.938706397639836,34.431023,0.6024353335382276,31.43928343889349,18.64606586838117,46.69968543044602,-0.38774479062241163,1.3214840000000003,34.029999999999994,1
0.8510021287055777,-0.05363148360457268,-0.3714457406596739,-0.01291990825708782,-0.003120512970666957,5.934574140054464,34.432045,1.0230741114573683,61.22738214491955,27.396019740082767,6.936509274925054,-110.12458876795345,1.1283639999999993,34.02999999999999,1
0.8490391751089321,-0.05111463403897846,-0.3648481594861947,-0.056005518626110924,-0.00432205284967911,5.9266518255050515,34.436512,0.9493917035876155,50.73441114838158,33.43698390908334,-3.3439551394361766,280.2931220332912,1.0234899999999996,34.029999999999994,1
0.8513152722774429,-0.0528693889900831,-0.36441879507117836,0.0014099239046466358,-0.0024462191784279186,5.91741764865267,34.429432,1.0333048773178066,56.666526767303154,35.675574595270916,-4.077334276622623,234.35669387347764,0.9787269999999999,33.99999999999999,1
0.8505602024325284,-0.04597876527358596,-0.36311559658670123,0.05964797048564973,-0.0034695176496360156,5.906070375805127,34.435387,2.1427291634487458,38.565227895129546,21.691999482639783,41.4011855630318,88.72649605162661,0.777933,34.0,1
0.851191590525298,-0.03712469371926628,-0.36362222815695483,0.019008666910178256,-0.004071330964273171,5.892927263012202,34.434696,4.061501716036205,9.239849660255176,16.44549108737466,61.96271521492807,-395.6987540868921,0.6960809999999994,33.99999999999999,1
0.8396764516806298,-0.04251568307355008,-0.3656993463791199,-0.04655526196026261,-0.002527222408758644,5.885178125066011,34.43349,5.851908221031178,-20.102548938893523,10.488041351091406,58.2856802182966,-210.68285832389455,1.0669749999999996,34.0,1
0.8608938385020313,-0.05116886241557686,-0.3579807797732444,0.015077967414001895,-0.0031457301736358195,5.878945160023503,34.434494,6.366473559005766,-12.218063182809194,16.261407523488145,61.566969147170475,175.37936439976116,1.2460270000000002,34.029999999999994,1
0.8555088955398487,-0.08064842633189645,-0.36279214159161666,0.07428394976028897,-0.0037205767679479567,5.9014801189616755,34.433395,5.666998306644648,-13.710855583881012,17.018827648724542,59.49516913350903,27.842549314123822,1.09639,34.03,1
0.8498016518210688,-0.1053249700038362,-0.36439961042455593,0.01434182392491011,-0.0036543538643308074,5.9316543033294495,34.435158,4.321241016839615,-10.553667386488941,17.208553483523946,56.89888126115673,41.933966194237435,1.0222109999999995,34.03,1
0.837847402944383,-0.21069142539573082,-0.361855743092383,-0.08415436523431663,-0.003428189018115857,5.965566063053981,34.431976,2.038111226680107,-13.047968065341648,17.118559532058434,60.657865625793455,215.62359083366292,1.235795,34.03,1
0.8399534102827074,-0.2896390894472226,-0.29972468217127174,-0.043569041463065755,-0.0036199651245625653,6.0042806080740485,34.428528,-0.3828425601744159,-11.219078250826547,17.0946062259843,62.5174349280864,132.60937782683348,1.2843949999999984,33.98999999999999,1
0.8414640403480046,-0.29531089909619346,-0.32727130000203775,0.006910564343907802,-0.0031501379349960328,6.032547482179145,34.42597,-1.792478122459244,16.47038211672755,36.94194035540928,48.01346692920507,-13.010807355520237,1.0516270000000008,33.989999999999995,1
0.8401165402038023,-0.2727285790065021,-0.30097004375055153,-0.015118313165906951,-0.003011247000414505,6.042779246558534,34.42502,-1.9721228688748011,32.52810602582965,44.7033620733083,36.23445120375724,-422.924410876445,0.836765,33.989999999999995,1
0.8524157238843071,-0.15642285089858135,-0.36780880753899914,-0.0010535064268292278,-0.0033653301084557094,6.027134017468127,34.423176,-1.6121460973313166,30.096538546072512,46.32339902871846,24.07077580554159,-427.7985386134574,0.8265330000000001,33.989999999999995,1
0.8386089215768204,-0.1080948600738231,-0.3931620016163802,0.06844286966323974,-0.0031835346188690073,6.009923068690067,34.41907,-1.5318700742176286,37.219166940415064,35.828899414958904,26.594510660464316,318.8042663303849,0.9800059999999995,33.99999999999999,1
0.8433385152947902,-0.07605312143519316,-0.3705284346025316,0.02802129629684969,-0.0025288582518952045,5.999711594294113,34.415924,-2.157028234999863,60.811511965249245,24.687635089381196,19.43726860801831,221.21075581634693,1.0452329999999992,33.99999999999999,1
0.8494669472318623,-0.08582013356247695,-0.3894751244935767,-0.023435594750223148,-0.0035056991786888447,5.979857070399377,34.41408,-3.0697729796569857,59.06131110955694,25.95290191001262,0.5309698520804534,-343.9941808941919,1.074647999999999,33.99999999999999,1
0.8405321622863333,-0.044451935685060985,-0.3875751780006809,-0.006672039932231999,-0.00342784038151677,5.982161205266597,34.409977,-3.7590036771282906,58.393244666467034,28.27054183294223,5.517794825753354,-275.988489970613,1.0951110000000002,34.0,1
0.8425381750059358,-0.020946711600293755,-0.37573829958658506,0.04566556166612939,-0.002706656936879153,5.987964209176265,34.403385,-3.9869233051829887,61.66016904881232,16.30452368154353,12.327366439120203,199.7745803779586,1.0823219999999991,33.98999999999998,1
0.8533514695835895,-0.07689712759543414,-0.3655968417462343,-0.008832622950247776,-0.003298347936862924,5.984370635904972,34.402122,-3.1189592131383037,59.00469805870423,19.949884004480683,12.159634077198978,172.80393268622177,1.08488,33.98999999999998,1
0.8492236021992806,-0.05704256805513742,-0.36455355046625787,-0.05730702717151501,-0.0028156223356597034,5.9747079731757795,34.404133,-1.2232685439541884,59.9232889323471,17.52361833027097,11.956173161245019,75.7309254814677,1.0874379999999995,33.98999999999998,1
0.843826493153981,-0.05264714864397418,-0.37512765762124445,0.0065926418537304915,-0.0034028432321833156,5.965102078134682,34.401318,1.0734085719022228,58.43948962986594,19.767409018676375,12.463579723611875,148.6417943389329,1.088717,33.98999999999998,1
0.8460136138164827,-0.05438987458409443,-0.37282290516776695,0.050716186407259736,-0.003013610787464779,5.959800011458877,34.39634,2.749503235540204,59.2618781451246,17.239939258767986,12.931907769346271,111.98522960837744,1.0899959999999995,33.94999999999998,1
0.8490257358510106,-0.06548099276163542,-0.3696340748697723,-0.003233690574521825,-0.0045050018717946875,5.955965450496183,34.39829,3.1735398762564135,58.8531574238432,19.126095659917244,12.587123727494042,-581.1251131119877,1.091274,33.949999999999996,1
0.8481478315104286,-0.06055639955007337,-0.3723511530071511,-0.03293808270763781,-0.003147764093601517,5.950484704387054,34.39683,2.3249329289236687,60.15871513485967,17.26363613860111,12.908520224440165,-156.26149335214168,1.0938319999999997,33.94999999999999,1
0.845180464099175,-0.07543563586951273,-0.37578875691919766,0.042359656588587,-0.0024123893950374837,5.949352676598322,34.396946,0.8939201663913907,57.690386461812444,18.875477922207907,15.28775507574599,362.98529022803143,1.0912739999999996,33.949999999999996,1
0.8461389104509445,-0.06793748392464133,-0.3747648030934445,0.01985907243378824,-0.003453356118215762,5.947792902934537,34.394703,-0.5365428866099169,59.89221920200393,17.27602752670797,14.695857274732886,113.00297261084121,1.088717,33.94999999999999,1
0.8445616792154497,-0.06935657881973473,-0.3796879514541734,-0.04397524072912109,-0.0038026564077240383,5.94265838880702,34.392227,-1.6058559480899213,57.55657257628878,18.732882271660916,16.47459175928228,79.54854443615774,1.089996000000001,33.94999999999999,1
0.8453326815686164,-0.07345761390223743,-0.3771980142035577,-0.01621223876179537,-0.0036667425682778455,5.932046104612053,34.390423,-2.3798700707890688,59.049752734576884,17.273404608547295,15.393403993658461,-30.724729566601926,1.086159000000001,33.94999999999999,1
0.8439704516236569,-0.06744863477280634,-0.38065973551361276,0.049424473416714444,-0.003208036609759655,5.928191950408899,34.390297,-2.734237309244226,57.161560803656876,19.081665683096052,16.625772431706924,-18.276270294505068,1.083601,33.94999999999999,1
0.8443013683469445,-0.07461786210062286,-0.3798426130090106,-0.002373556324252068,-0.002357799301003011,5.923850917918672,34.38971,-2.613516011497429,59.423482343175756,17.049467281668147,15.468597883901726,21.835987083018672,1.081042999999999,33.929999999999986,1
0.8439144010543761,-0.07831866293051451,-0.3807677826805062,-0.04480645436955514,-0.003627666835143657,5.916933524969311,34.389153,-2.255284337027686,56.86851774071298,19.090266635870716,17.26935975737872,17.75951702161371,1.0823220000000007,33.92999999999999,1
0.8462204441656632,-0.0749020898213512,-0.37906952703821817,-0.012828761915513139,-0.0035768132753446697,5.909870469096579,34.38658,-1.8508770291089025,60.39347852879877,17.623471995521758,15.203468831684269,-29.620726772265396,1.078484999999999,33.92999999999999,1
0.8453237962624804,-0.07398998745639762,-0.37633923880996245,0.037246234158467374,-0.0033461678917590916,5.9052620091786086,34.386642,-1.2788196132587475,54.73041302765141,19.223576172201977,18.3199936174332,45.593254412629655,1.0772059999999997,33.92999999999999,1
0.8439781368956288,-0.07446545023881128,-0.38070579937420995,-0.017920427824404082,-0.002860313477312108,5.893043231230442,34.38868,-0.36372786849282457,65.04333452795757,17.550246245247177,12.910464732461055,15.695206107322372,1.070810999999999,33.90999999999999,1
0.8450934876309651,-0.0793531259550215,-0.3800413044116831,-0.053744899225040665,-0.0034323470723472242,5.873828534654003,34.38559,1.1008011457136697,49.14484009747325,22.512077949603903,35.362704751896196,-22.877945739520346,1.0733690000000002,33.91,1
0.8375420368932788,-0.06464904189204555,-0.3858434666951026,0.012527988996684935,-0.0019187875187326926,5.8591556591634175,34.387463,2.6319230478569535,-2.209052883989575,21.364337481159595,53.05670740795381,-36.628718662518295,1.1385949999999991,33.90999999999999,1
0.8479833023690052,-0.057367583395861635,-0.37253425993969463,0.04059458959274369,-0.0032235253283707755,5.854522118982226,34.388256,3.8271927597291415,7.364839509795936,8.458209542029788,60.92459635273595,31.939528437524693,1.164173999999999,33.90999999999999,1
0.8487234227488789,-0.0668505093833582,-0.3702899980551883,0.017877478385142507,-0.0028797943666636037,5.85801342588151,34.383663,3.886843037057779,1.7301397804064227,13.3370125448048,64.90215451759734,24.375607685727772,1.1846370000000008,33.87,1
0.8497029880441548,-0.06898731240309328,-0.3674075917499559,-0.02851616272911972,-0.00359439541257204,5.867979272853385,34.383778,2.5793788792936554,5.224562093857362,12.827178656819873,59.362705720915656,-34.10202458408888,1.1897529999999998,33.87,1
0.8501753206009175,-0.06573940863095529,-0.3667484084328821,0.03981411198324613,-0.0023389163879030165,5.877619749934218,34.385433,0.8566197193095395,10.579699678600157,13.01268327171081,62.55647204258926,98.05934644995624,1.1910319999999992,33.87,1
0.847394663059438,-0.07616666150155356,-0.3705994756516169,0.02753435682680827,-0.0025998622952797027,5.891242490000984,34.383244,-0.7541348579174854,22.538590886412084,15.484868274845411,55.76598022924033,-141.6267872667754,1.1948690000000004,33.870000000000005,1
0.8481283556592052,-0.0708819628127622,-0.37185190984370414,-0.038002204920667575,-0.003464844407628462,5.897472809250474,34.382988,-1.9890431633271555,24.468150111316636,14.19245452488386,57.111740992649125,-134.55181835423923,1.1565009999999998,33.89,1
0.8475607039459143,-0.07233462702970354,-0.37494431172339976,-0.0333853618934158,-0.004216947111605738,5.900453509243261,34.384033,-2.759970007668996,26.56274605612283,13.970999986607357,55.996098130529305,171.9205514808499,1.1641740000000007,33.89,1
0.8478420044243153,-0.07282861594494394,-0.37295377232675164,0.03294762581142649,-0.003394605030223368,5.903543765002499,34.382607,-3.0390247331477753,25.827042632454326,13.848009397579029,55.97493929243139,81.57766775982206,1.1769640000000001,33.88999999999999,1
0.846185671753056,-0.07222057539370749,-0.3752280687749911,0.020375749076643076,-0.0034969364594868357,5.906464553069796,34.381268,-2.8109944557257944,27.67018348775315,14.543014438386615,54.67046183623497,157.82451032408196,1.1846370000000002,33.89,1
0.8466090866737875,-0.07152553559671804,-0.3756152105452532,-0.04153065189754905,-0.003356922542965928,5.901927894030781,34.38272,-2.3621746309727363,27.183907468393997,13.9195048598416,55.17178990990933,-122.85857202237355,1.1974269999999998,33.86999999999999,1
0.8480561981547142,-0.07222070839118792,-0.37395706553915026,-0.021610136123431403,-0.003972844616092219,5.893610046954347,34.38079,-1.830734289777434,28.07011555849132,14.373048889447277,54.66869874257426,-94.64878576047343,1.2063790000000008,33.87,1
0.8476644676687941,-0.06869738759601636,-0.3727923727340316,0.0286828205408424,-0.0040987344890995175,5.882859657705498,34.379745,-1.126663314615133,27.916978538627728,13.951096824771112,55.05642204036578,5.946590699842045,1.214052999999999,33.87,1
0.8447489717964298,-0.06878178590555806,-0.37818342725457643,0.023259492869312604,-0.0037046406174456523,5.8698644031306815,34.382088,0.04393818633348197,28.053337852631202,14.531403076243238,54.57090103846006,-11.08132776703922,1.2217269999999998,33.87,1
0.8417298599167723,-0.0663605937737443,-0.38155984642762314,-0.03573637443750073,-0.003925739490033664,5.851973291125179,34.380543,1.5766375539309114,28.296151432583805,13.68556521495781,55.093611888497755,12.008843030509322,1.2255639999999997,33.86999999999998,1
0.8424452625895064,-0.06712604808134562,-0.3820428895054,-0.005995848351739663,-0.003935569081908651,5.834379737072327,34.38227,2.828580995263985,27.915295563210677,14.448400804406223,54.4428955933366,-45.81690790698611,1.2255640000000005,33.86999999999998,1
0.8453718984695384,-0.06639820936053047,-0.37685013770916626,0.050853115975765736,-0.0033098467993770988,5.833191827964571,34.383846,3.1590816277133014,28.354632775614363,13.382485050001172,55.04261149841908,18.856602264298882,1.2242850000000003,33.86999999999998,1
0.8455430299345832,-0.07282383686562865,-0.375446494123645,0.021019317916712348,-0.0031062235675806717,5.831884388876361,34.382755,2.4251495005675077,28.238681152372397,16.80647791107156,54.55287178143407,8.033260931642973,1.221727,33.86999999999998,1
0.8481248128771868,-0.06281786183691966,-0.3728036239267648,-0.03513319359280446,-0.003988827565555568,5.827251148258912,34.385647,1.4027500840822182,27.97834345408193,13.051989833810268,56.65408516064357,22.807455791625465,1.2153319999999983,33.90999999999999,1
0.8457893014643126,-0.06074290613771062,-0.3736613069533613,-0.00799517891469272,-0.0034487104911015676,5.825705741400584,34.385895,0.4222882198718074,24.1534205589831,12.904857639252524,52.46842553522033,-45.33216223779739,1.2178900000000001,33.91,1
0.8478712481060737,-0.07923727016020529,-0.3742911554615461,0.04820952068670722,-0.003075153234806621,5.8217710562843985,34.383274,-0.7114776632844603,57.723485033214644,25.845832426424376,27.97243235954221,30.38749876158982,1.223005999999999,33.90999999999999,1
0.8442698914953503,-0.06603579405360134,-0.3776479148224938,-0.022146307092793784,-0.00339976412696534,5.8223555078801335,34.382492,-1.4823979396507645,43.53948729952863,25.08875373042917,44.101164670721495,-21.403810247823063,1.2102160000000002,33.90999999999999,1
0.8492069445650957,-0.031410848062394546,-0.3624414157391506,-0.04102943492239853,-0.003515344983747739,5.819578069907316,34.382515,-1.8807161419398195,2.154937235661413,7.6299832181730665,57.75794207462945,25.901068950151885,1.2127739999999991,33.89,1
0.852765023387432,-0.0682777269563902,-0.3688740386461134,0.009242961591126373,-0.0018516608725549445,5.815539210217275,34.38623,-2.0788645305267504,37.95973659121983,17.447235857970504,50.539064838203174,-98.23970836974769,1.2281209999999998,33.89000000000001,1
0.8489897070668815,-0.07458531360963412,-0.36508629765513584,0.04303566562964385,-0.003201072421813336,5.812729571010319,34.386417,-2.122955985401458,59.264252598735986,23.527628342238195,27.53562499843036,33.13910120277791,1.2293999999999994,33.89,1
0.8508702796200956,-0.045042043888282646,-0.3652210311030318,-0.05037005484530377,-0.002996114056195145,5.807937700968282,34.385918,-1.4115853468861104,49.38818206590888,18.190429086386466,24.49226515537274,82.49733055551512,1.2025429999999997,33.89,1
0.8480071485398423,-0.06647446497210074,-0.3688882538516029,-0.02656724772375637,-0.0035837448867992528,5.790764713538551,34.387325,0.0877953313654915,57.75168564635477,16.769582114594385,23.993821629270723,16.859941083418015,1.2204480000000002,33.889999999999986,1
0.8516701979833581,-0.04430973131565866,-0.3633770754951502,0.019079842214706166,-0.003473801920648473,5.774082848592835,34.385464,1.8666345223125722,64.63278662585645,11.7774192367743,11.209738887910019,-39.54628757587943,1.2076580000000001,33.88999999999999,1
0.8460702099865259,-0.052149032491720815,-0.3675211395760868,0.043159111624103665,-0.002687357989862891,5.763621223905037,34.38887,3.574132354619951,60.53637594296806,18.701880862319207,10.782889948783753,190.50233286079524,1.1782429999999995,33.889999999999986,1
0.8466072031883618,-0.03000359860664785,-0.36911563813178794,-0.024007644410831745,-0.004084153405489168,5.765447824252553,34.388897,4.66955877411181,55.70576952595649,20.23570798926756,7.703128570385489,-94.98079584692492,1.1884740000000007,33.88999999999999,1
0.8494527333365873,-0.04977540591915308,-0.3694223195682645,-0.014515116983113346,-0.003194286982716441,5.767072808731181,34.387623,4.35803122702238,62.54799700801066,15.923266746930153,3.119832498870467,-97.95792631619697,1.1974269999999978,33.910000000000004,1
0.847115929921017,-0.041470027851262324,-0.36869763921689175,0.07045108921263923,-0.0022571843281365936,5.775848450234852,34.38897,2.565420937646917,61.48484559807125,15.632783730319497,-3.7850874447143026,148.28976937237343,1.2012639999999999,33.910000000000004,1
0.8473500295432104,-0.05738355600097794,-0.37345026317626573,-0.006925754154148022,-0.004194460628653659,5.777036764862151,34.38802,0.21185181450600363,58.80697666486945,18.348578859554205,-7.291094162387572,104.64372848536303,1.2153319999999999,33.91,1
0.8483348931369502,-0.05926347383209829,-0.3694832555533103,-0.03869243209071497,-0.003203412684912874,5.773022729446613,34.39248,-1.708966401726,61.784594505108416,19.48274856612429,-8.906833039130873,-100.96067234992739,1.1961480000000002,33.91000000000001,1
0.8470491123636139,-0.054040389807834016,-0.37262378917016103,0.028264267583827853,-0.0033622069539980767,5.7686799528760835,34.39039,-2.9086140351520595,58.66711928914785,19.722433198852936,-6.745787331850955,-496.9026917695001,1.1628949999999998,33.88999999999998,1
0.8463530039606822,-0.05184258724113097,-0.37402486125312884,0.030253860380565805,-0.0035884683378276157,5.770866102373213,34.392353,-3.3006089618248895,60.015070393718176,19.13655809872844,-9.711502193223106,396.29684462288475,1.1462690000000002,33.889999999999986,1
0.849900030383686,-0.05811177016588077,-0.3705379594823652,-0.04330472028971428,-0.003912465804889738,5.766644708978758,34.393448,-2.959597553508875,60.22038039175173,19.561990135383294,-9.24815034396662,278.62338329516086,1.150105999999999,33.88999999999998,1
0.8507564318643295,-0.051545399106365276,-0.37106363986305546,-0.017275744252575564,-0.0025589354887695873,5.764002914781282,34.393894,-2.3773282536836424,61.40870049650882,22.089826370202207,-4.037269647004185,-685.0455374424934,1.160337,33.889999999999986,1
0.8449453511888633,-0.06400640773298606,-0.3751001086455038,0.026945406455526982,-0.0037401127734755565,5.770436772305784,34.395153,-1.1953917434610661,59.80393825146155,23.999467951095916,5.29105113041017,-236.83271686096688,1.1654529999999983,33.90999999999999,1
0.8374035447127058,-0.07063175904903246,-0.3954732269899358,-0.009753665146009187,-0.003913851697012892,5.779888109325438,34.3974,0.775255984923498,53.8778779412007,28.54561697199746,9.988317566094608,617.6011866693835,1.166732,33.91,1
0.8456496192458597,-0.06510259671745183,-0.3781124903109395,-0.03335517265353082,-0.0021046260793539185,5.777397910381353,34.39801,2.7953705983043986,52.91422488678885,35.343710683062966,6.112914327658844,31.59831685496252,1.1948689999999988,33.90999999999999,1
0.843578079711584,-0.07597592762015704,-0.3783422714772045,0.011205445517204732,-0.0038122410593079623,5.781695114763387,34.40315,4.325989592947844,51.475835390343725,32.14048889401706,-1.151111668806796,343.53587302233586,1.2140530000000007,33.91,1
0.8432408428387181,-0.06673005134117772,-0.378879815088827,0.0386215282239988,-0.0027671550693516575,5.7852377432631705,34.411854,5.040348896728253,52.11681628904915,36.40323753643308,-11.067354729747253,-152.92108380086057,1.2114949999999998,33.88999999999999,1
0.8408563410601652,-0.06887173048816041,-0.38712026627620005,-0.017722611822550714,-0.002950375789619189,5.7832114915862105,34.41838,4.725804708128965,49.27277651158695,40.97087496422386,-2.985149516876909,6.550901914199979,1.187195000000001,33.89,1
0.8441329133995386,-0.07658512915015395,-0.38365916819027396,-0.013726302365655977,-0.002791054536339669,5.774555029031394,34.42497,3.75363415437597,49.23355264507096,40.00094797691197,10.280323663921985,-485.74085955013925,1.184637,33.89,1
0.8412929327856544,-0.06680953533569187,-0.38554608767878507,0.04987397143247469,-0.003389222597761535,5.775200924132047,34.428894,2.736653256714238,39.986685821824416,42.27779576061394,22.147713282412685,-522.3564604022376,1.230679,33.89,1
0.8425080428613352,-0.07298475493764071,-0.38552786024223856,0.005811454161683399,-0.003391111010874164,5.772032486023536,34.43047,1.7347431141101808,37.857545288200974,42.58285402409602,24.86278551464804,240.2240495555732,1.2434689999999993,33.86999999999999,1
0.8409314452209988,-0.07397758551813838,-0.38709263953183715,-0.044172380147372584,-0.003297650489872433,5.767687244730877,34.435734,0.5743733437416004,39.353175634716905,44.54837197768816,24.222162215163088,450.2902635941037,1.244748,33.87,1
0.842724098010695,-0.07232225429388248,-0.3855250802159955,0.028775558365621123,-0.004214802807042426,5.762061338842745,34.44206,-0.6083645868383235,38.51944889634357,44.57260072644011,22.874390957291347,306.1010213314792,1.2447479999999997,33.87,1
0.8406772673361668,-0.07205020992442143,-0.38757416450845156,0.030260681339621388,-0.00295237949135537,5.7649304406978565,34.443066,-1.5300470487974231,39.558644858324364,45.14385991811283,22.827152463364815,-146.53335865427388,1.2421900000000001,33.87,1
0.8440965427472765,-0.07523975588984745,-0.3796520102597354,-0.027752659433372504,-0.003739571537073768,5.7573724638016435,34.44332,-2.04799138332798,38.19603034179503,44.96368848087817,21.54721853078492,53.43697717953471,1.2434690000000004,33.83999999999999,1
0.8426238274774825,-0.07111506567735999,-0.38466569187527033,-0.03255239138781768,-0.0034051178789638956,5.7514193104624844,34.44437,-2.3232254736403863,39.93049161963958,45.07411131501371,21.7054150813391,64.88411704341287,1.2409109999999992,33.83999999999998,1
0.8427525136710912,-0.07531649986431282,-0.3825904150533875,0.0398090888194074,-0.00379858086806185,5.746566658096322,34.44693,-2.4653091998539423,38.506041750721266,45.0984230724039,21.13393682328309,78.44278918281923,1.240910999999999,33.83999999999998,1
0.8428451883450409,-0.07578520542908927,-0.38289295923649086,0.031851551583485536,-0.0032662489293609673,5.7476398659796635,34.451157,-2.436459476246147,40.64484655302454,45.81560477763042,19.544346313180544,-2.2629780725938278,1.2319580000000008,33.839999999999996,1
0.8435998884029468,-0.07265454728186302,-0.383236654477182,-0.03682047933008466,-0.002540472522784107,5.740965885516851,34.454075,-2.4155234744461476,39.618945093232014,45.548905221164716,19.008977172675046,-72.93339207248152,1.2370739999999993,33.869999999999955,1
0.843415247541815,-0.07555128333915741,-0.383068806209506,-0.03112721230925405,-0.003701513197633501,5.735048745539271,34.454445,-2.347564552113182,40.05712415364981,45.90834957806747,19.183627702417713,-470.771295587448,1.2319580000000012,33.869999999999955,1
0.8431755900401274,-0.07646465563894192,-0.38467001390422434,0.01139384609642863,-0.0033581148116619127,5.729611904837997,34.45671,-2.292866666715873,39.892213574865025,45.75271533165018,18.948390098347264,-441.87374178784995,1.2306790000000005,33.86999999999995,1
0.8405366472953935,-0.07272314366842647,-0.3881107094633369,0.06310375244107393,-0.0030555371595512434,5.7231420587072845,34.459003,-1.9160461456902722,40.16730588820942,45.7996253857031,18.805755940045312,37.37038843664508,1.225564000000001,33.869999999999955,1
0.8377687710530926,-0.07606745582340252,-0.3948650406369699,-0.024899783407879756,-0.0030070887849961998,5.714881435512284,34.45779,-1.2100256262332985,39.71815941449887,45.62712386766309,19.401221493169544,119.17165492004442,1.2242849999999996,33.80999999999998,1
0.8360845788386497,-0.07366316600258926,-0.3967621153673301,-0.02244112128559026,-0.002808547587709375,5.704521340256623,34.46237,-0.42030887125438676,39.696073508715195,45.67855714588355,20.45373512720671,7.486364882896888,1.2191690000000002,33.809999999999995,1
0.8389874026045567,-0.07436198974757864,-0.39315273296787184,-0.02168061040366444,-0.003105455710323828,5.698498732739176,34.464153,0.15257132688768052,39.91231934220428,45.832132937320324,18.62233310256271,222.51247202671993,1.2204479999999993,33.80999999999999,1
0.8378313612297233,-0.07520964340583067,-0.3947684729832085,0.07037805535085431,-0.0030188315480441765,5.695827599709931,34.46605,0.3696080256457132,38.28379786313216,46.69901815462602,19.376279178811544,313.2129313420438,1.224285,33.809999999999995,1
0.840432313234854,-0.07543232632346174,-0.39038267638445345,0.0041029949007031176,-0.003186287799522381,5.698215773103192,34.46918,0.10855666301125187,38.37807853434918,46.46472641108171,20.08231936682567,-30.815635829990075,1.21789,33.82999999999999,1
0.8414214314559844,-0.07604345531273228,-0.38833782553600243,-0.03150253967257578,-0.0028491562615250514,5.69244090579176,34.462833,-0.2861009779352976,38.10078043750848,46.791196873944635,20.035598677697184,67.9343363965003,1.2089370000000004,33.83,1
0.841773420885634,-0.07691185184429401,-0.3866283860765966,-0.03617176932810574,-0.004153702248700213,5.691132134521846,34.47112,-0.8363733055078415,38.30429707750381,46.718285903451104,19.603131199427153,-93.71328622215752,1.2076579999999995,33.82999999999999,1
0.8418024039244132,-0.07648060612725659,-0.38715157978160053,0.04270280632996786,-0.0033329770567763774,5.687420827485632,34.47148,-1.1519766040098802,39.0306850612504,46.54886269901563,19.314010194534767,202.36820861146686,1.208937,33.83,1
0.8413471409484078,-0.07719864028715623,-0.38701241371300193,0.0453515577670718,-0.002865076140783239,5.687094764403687,34.472115,-1.3503701891103996,39.1088259984795,46.13103519216572,18.958725240971084,9.440985214451228,1.208937,33.81000000000001,1
0.8420657128340933,-0.07612819857536303,-0.3867726672464975,-0.0329165776437381,-0.003483404082638176,5.683582970668392,34.47507,-1.1047314567913142,38.966939912504536,46.45984556859258,19.13838000510858,-10.255920972531497,1.207658,33.81000000000001,1
0.8426838927401421,-0.07724970105998513,-0.38672507848394333,-0.03227199913363324,-0.0033383861297769796,5.678254200437992,34.473717,-0.7050072511790672,38.876074360971685,46.19094325865477,18.825637257580446,2.525294270578133,1.2038219999999988,33.81000000000001,1
0.8411181729862846,-0.0767544053481689,-0.3879150252430235,0.0003874772364408,-0.003426556028336092,5.674174983881438,34.475765,-0.4582897179790696,39.11206605770845,46.93345924423744,18.83173795114835,-113.01563376279874,1.2012639999999997,33.81000000000001,1
0.8402749531075606,-0.07721803884715607,-0.3926698788009188,0.06432411458218515,-0.0035021108588769267,5.6665882174813405,34.475224,-0.07291243749332606,38.896533327678284,46.33785591186014,18.62857867225436,6.306189974278989,1.1999849999999992,33.78999999999999,1
0.8361185427980237,-0.07491885536475534,-0.39850703139201415,-0.005163646110138908,-0.00278582984988178,5.660411179078622,34.480392,0.5476588122172179,38.845939334156945,47.071493828900785,18.66875352695286,26.14206622899858,1.1999849999999999,33.79,1
0.8342766133285827,-0.07582483750592788,-0.4023348088223826,-0.03758094990635464,-0.0031373437305148456,5.646810397470403,34.482655,1.2913586108418575,39.22879654577747,46.32566179828977,18.562738937453116,-104.21549245507997,1.196148,33.79,1
0.835569042133571,-0.07459456541148539,-0.40150145071252513,-0.03230500586553187,-0.0030933358350894277,5.640784569415005,34.481274,1.8136849425688362,38.63206689603682,46.928053036283565,18.46610612759733,62.66903650171185,1.193589999999999,33.79,1
0.8368691141737544,-0.07732140070971232,-0.399799865319816,0.059547831617592126,-0.0032967745927681667,5.635865505367422,34.48202,1.8182381763697981,38.79860550357665,46.72978326271548,17.883711155806065,87.6360502870201,1.192311,33.81,1
0.8367992991210206,-0.0769265214487976,-0.3970522587210571,0.017234246566227684,-0.003499755316777755,5.639792037978106,34.4857,1.4481149540577591,38.691381058189805,47.40552554789493,18.257198219731617,119.27560144627392,1.185916,33.81000000000001,1
0.8392752805986944,-0.08024602984422985,-0.3955179821241165,-0.033302816139536895,-0.00357146280589872,5.635197038055401,34.484108,0.8671188489157577,39.029191632381064,46.60641573246014,17.63610792875814,-113.77847471878354,1.189752999999999,33.81,1
0.8386576298669005,-0.07659520428231954,-0.39321803697503216,-0.04147864753293803,-0.0032492382520070942,5.632789513015945,34.48581,0.3142470527787338,38.66655689804669,47.41344951270642,18.037851385874465,-116.47210770895302,1.1871950000000004,33.81000000000001,1
0.8404122103688257,-0.08039553250578044,-0.39045857161224123,0.043089710546011094,-0.0026892220989449757,5.631642778301607,34.48603,-0.07312118319790241,38.86740851266392,46.53978904664639,17.462042771113232,4.12244147302923,1.187194999999999,33.78999999999999,1
0.8394115988875532,-0.07781448189918476,-0.39247626849178535,0.030360250240725247,-0.002982860708646292,5.634582855566096,34.491478,-0.35415363559335106,38.948506595894706,47.55838225417277,18.12444436726723,14.48331827757571,1.1871949999999993,33.78999999999999,1
0.8404598391684343,-0.08216114991584778,-0.3894131327334477,-0.04189633078191717,-0.004257298649421363,5.632558661456256,34.487667,-0.4796766805978589,38.81581640109411,46.15926569521522,17.67185550837743,-23.60526806718642,1.1859160000000002,33.789999999999985,1
0.844834253782689,-0.07779504609723481,-0.3907364491271383,-0.02770716809055232,-0.00243246640528826,5.629932809845158,34.48968,-0.6963301939241832,38.265375674262245,48.469493190046585,19.571914660853032,-21.543818720860504,1.1833580000000006,33.79,1
0.8446162226604211,-0.06810311870735192,-0.38581831379896764,0.031488288856927324,-0.0031053310672104146,5.630001226196372,34.491413,-0.7198725721648451,44.70298279336816,47.97009485786353,9.749521994567921,26.521471934189535,1.1808010000000002,33.74999999999998,1
0.8364743839512622,-0.06186709819867585,-0.3895146476201327,0.004755048616226754,-0.0026862607948364542,5.63331404832242,34.489853,-0.4551082018214673,37.248656631102016,29.74818985775159,-20.569939147092537,-4.716026246721731,1.178243000000001,33.749999999999986,1
0.8380826746971409,-0.02949728981506748,-0.39089382143360735,-0.053654850050139015,-0.003093967720415963,5.62339695277813,34.492733,-0.10590896225513946,53.735363818104666,14.149896510947654,-44.320623155685766,77.16155218199576,1.1616159999999995,33.749999999999986,1
0.835733930627435,-0.0310360484272321,-0.3965359911882378,-0.021523065463258603,-0.002907650816659554,5.606743263617526,34.49664,0.41414931642272207,53.91431734051972,8.636873475065425,-32.9095512730549,-167.34350866955535,1.1194110000000006,33.749999999999986,1
0.8355541459005198,-0.02985618779332828,-0.3913853584979611,0.04890811522468855,-0.003210768132304607,5.594975649601358,34.4951,1.233863271363094,63.1886334401014,9.655382034971069,-23.98029168074911,182.88737156019027,1.073368999999999,33.78999999999997,1
0.8374274091781811,-0.036925786003813944,-0.39635821840444213,0.049508984081190456,-0.0027487393045409893,5.591423161110651,34.49617,1.997621268462843,62.38289518727741,17.64903119413828,-4.04866252063355,-53.582277580833484,1.003027,33.78999999999997,1
0.8354503203111164,-0.048866379002519264,-0.39936459290727305,-0.031561172680537666,-0.003284518299724067,5.584005444948681,34.497875,2.016927537459863,48.66255677125317,32.846317503541634,12.082713888257121,-176.1873040889231,1.1066220000000002,33.78999999999997,1
0.837919060291134,-0.05299068788216793,-0.39383558624390513,-0.0015273029254726143,-0.002909742373793728,5.5852683696152985,34.500298,1.4580985812853586,45.665904356816945,39.247956860466665,16.60326402531705,144.29640703971967,1.1296430000000002,33.78999999999997,1
0.8401461860456798,-0.047463220683729025,-0.39150545308122675,0.047428037961399376,-0.003144511419072342,5.594701208854575,34.498634,0.5976182969532389,46.83695233430504,38.95498274566448,16.797768205039223,6.644003248941939,1.1322010000000002,33.789999999999985,1
0.8399921395250932,-0.05351812006935313,-0.39099636894071094,-0.006906505889964464,-0.0032712564106514804,5.606202148263866,34.500565,-0.36268302283963755,47.26243675845057,39.48118212877844,16.090748270306097,60.8977063828322,1.1283640000000004,33.79,1
0.8418212712730445,-0.04820897260610584,-0.38708758560173334,-0.04795322316901439,-0.004161241306605317,5.615174575950076,34.502415,-1.2508756342202412,47.093444514217815,38.96298869715908,15.77010207360811,-28.598951861954827,1.1270850000000003,33.78999999999999,1
0.8403592185393126,-0.05268197585850286,-0.3871582520959632,0.02357894435592368,-0.003020978902722305,5.618342278003811,34.501366,-1.7745442508452867,47.22561554242155,39.27550633048417,16.218890527749185,-64.07447744872317,1.128364,33.78999999999999,1
0.8408274815448522,-0.04687612368519382,-0.3882596785954213,0.03415369691206514,-0.0030998961422109366,5.621201125792096,34.500042,-1.8548016628744994,47.45161631972092,38.68286888267338,15.69638810725575,-67.00626864192661,1.1270850000000003,33.769999999999975,1
0.840499943623207,-0.057157069922812186,-0.3892418658500835,-0.032068075233344887,-0.00325272208351341,5.61843833922503,34.502285,-1.6095867676269846,47.26053018334511,39.42671001604582,16.21916466651807,71.2294845378235,1.127085,33.76999999999998,1
0.8434505665653471,-0.037961559604062355,-0.39237931466111525,-0.03901007345868694,-0.0014714028390210691,5.609913534276971,34.50329,-1.352158414767074,45.807547637751036,37.60800921663737,14.312089630925021,-2.4283422316255177,1.1283639999999995,33.769999999999975,1
0.8352165901793429,-0.025985394814825567,-0.39819143665991563,0.022059933404742302,-0.003548361404012523,5.6035604492481506,34.503586,-1.0290787714056304,52.80660898806432,31.326596279978244,-2.3632751969363337,31.416416568665284,1.1373159999999998,33.769999999999975,1
0.8336561436170098,-0.029321226888398288,-0.39888154876227744,0.02368881969795797,-0.0036612137924084617,5.593870544177581,34.504223,-0.4540980732334648,56.4283632357235,16.93051164277935,-26.918931039161887,4.834088006187877,1.130922,33.78999999999997,1
0.8286806334489656,-0.01498051739010028,-0.4076646514155027,-0.03279965684462115,-0.003056996306484271,5.57748497262962,34.503994,0.18737825042995995,68.56253943369063,5.76516413961014,-15.188923428198407,35.275187648500136,1.079763999999999,33.78999999999998,1
0.8286453809636362,-0.017625957345333065,-0.4114461422032778,-0.01449795107432494,-0.0032047903648088232,5.56286394376505,34.50544,0.8961700605720169,53.249899533203816,11.070784292565685,24.580818851773586,-216.32236466486543,1.0298849999999997,33.78999999999997,1
0.8312554475656078,-0.026540184540357187,-0.40323491508418313,0.05904829213072911,-0.002885822298475433,5.564137427126228,34.50931,1.3733761888586156,41.9806907662267,12.540161484730435,45.33624052917072,137.71465942151428,1.0695320000000004,33.789999999999985,1
0.8341919547709126,-0.027395337887426936,-0.4067540575783499,0.02356391611010827,-0.0033713175495225897,5.558675023346426,34.50916,1.021964640512012,9.022179634575279,11.110229120195836,59.83442292822527,-122.69343041211532,1.1155739999999992,33.74999999999999,1
0.8344371783596796,-0.025807795361144314,-0.403543565679036,-0.027064782196424296,-0.003292064142936159,5.555424529947508,34.5101,0.1978615586958533,9.744430333120075,4.666686259174565,62.866840722600884,1.9227073896289724,1.1206900000000006,33.74999999999999,1
0.8295316717969194,-0.02444220989676646,-0.4116001427972193,0.010502332497227622,-0.0033328348618420238,5.554455223445783,34.50874,-0.7823435274229983,4.952902565118785,4.084802636456352,61.93576699595009,137.64553550931498,1.1232480000000007,33.749999999999986,1
0.8309692688499394,-0.012889581386698047,-0.40686934174867995,0.041539058032884976,-0.00304544002878316,5.558706536252002,34.510212,-1.572502170797068,15.514254978564873,9.726959430207803,60.415892857571386,-51.34024619277382,1.1334800000000003,33.74999999999999,1
0.8293643106888996,-0.017216050886919246,-0.40947992533036653,-0.029580497441417424,-0.0032997785736215836,5.561750574081265,34.50976,-1.9404651672799111,24.930532918599923,6.830256248350493,59.56212917080337,-186.88538207451236,1.1309219999999995,33.769999999999975,1
0.8352567611566992,-0.017034449258817225,-0.4076663572826891,-0.03984182414636762,-0.0031114324062817503,5.573212497329027,34.511017,-2.37818892969941,1.149637755664476,9.57338022104901,63.02455363073407,-162.47229517951217,1.1398740000000007,33.769999999999996,1
0.8344374156742288,-0.01541267082939297,-0.39949900754416817,0.0031151127906172697,-0.0030694149804494004,5.582069017275382,34.511066,-2.5608615628402407,27.924830997375068,5.372605753400881,50.12371530659828,48.58031208321433,1.1309219999999995,33.76999999999999,1
0.8383913185030369,-0.016917992472306773,-0.3836903137247136,0.03291122517377873,-0.003283752634350549,5.5748226016600375,34.511215,-1.9492134639411212,51.45345369051827,10.373535574984258,52.79032742584238,487.33131846576316,1.147548,33.769999999999996,1
0.8386177458065872,-0.053869108297990846,-0.40358199201484296,-0.036420897256089345,-0.003217647743319803,5.549587755286313,34.509438,0.10298924351768717,25.758781234546916,42.89678790102515,18.30699538608528,444.6905077843979,1.1232479999999998,33.769999999999996,1
0.8142903322486711,-0.015300050155115584,-0.4191183991150451,-0.022350854924804164,-0.0035069173761227215,5.526558902212291,34.510403,3.419083405491134,38.324637330271536,39.598899998216204,-5.545200794760516,-265.36516621928973,1.1270849999999994,33.77,1
0.8435104929384282,-0.008053793068101918,-0.3844809016205385,0.05328805708031652,-0.003453473876454908,5.505818056625481,34.509342,6.712116949135204,69.83761328383464,16.920357435795964,9.434621745062229,-69.80679026208202,1.0887169999999997,33.769999999999996,1
0.8548865880736481,-0.04126106627272958,-0.3608762027497119,0.04728055977639965,-0.0029942129898853243,5.5261543807078395,34.506798,8.922430315120035,57.60733399343756,26.258453701272202,-33.751496222302386,250.62529941719964,1.1283640000000001,33.77,1
0.8379854994126098,-0.030238524363461933,-0.3907356549724342,-0.04496728696029831,-0.002667837563568794,5.535264819186364,34.502274,8.533789724691728,60.23565352258934,13.648540456008122,-21.118063464167793,-70.13291336807924,1.1398739999999998,33.75000000000001,1
0.8427536322197355,-0.03528316920496433,-0.3858214644099344,0.0576873435069938,-0.0035608433525747955,5.546733399168456,34.498997,4.978042358547239,53.45090915785493,11.459117968999728,34.84948819492756,-503.86142628692545,1.1539430000000004,33.750000000000014,1
0.840328092195145,-0.04500157888883813,-0.3888632707302091,0.0025929832403316193,-0.003423660171011834,5.575639530305746,34.49523,-0.2397737419891098,35.383019743120094,21.55034222139519,49.74364808954308,-202.25775898771946,1.1680109999999992,33.75000000000001,1
0.8459270817631828,-0.050790140624616543,-0.3764971117971644,-0.0840461953490978,-0.0016115584771726435,5.593120903280251,34.489628,-4.454532760948151,30.040811947299336,14.066358715887462,45.9651147312663,450.9061698449948,1.1462689999999998,33.75000000000001,1
0.8438037262527195,-0.050797862476926456,-0.3832908969333403,0.019259411076175965,-0.00322150162319652,5.617917072017367,34.48901,-7.040434864755916,32.374438692039035,21.64674766520584,52.204280974254246,-368.5015436426862,1.1258059999999992,33.749999999999986,1
0.8448023694897523,-0.04448940736455525,-0.37644429082970443,0.044484923265256576,-0.00368139170966317,5.626642301853893,34.484577,-7.9577506891563345,37.90007204339424,19.410206193935807,45.90735789784351,-275.49126336979054,1.0989480000000005,33.74999999999999,1
0.8433962887466381,-0.048113683310519045,-0.3840138594042072,-0.013495639993552643,-0.0031745913412909443,5.596735296051926,34.479485,-7.408040006800471,35.2784572047654,19.272961940038343,49.59684772101893,347.4476716572003,1.111738,33.74999999999999,1
0.8410924480204914,-0.04730252484454467,-0.3858800787289403,-0.021468802318010318,-0.003485064158251236,5.57107986272853,34.47496,-6.046836899116858,39.08121505500382,19.62876467534867,44.95149586015877,-145.03355239704834,1.1130159999999998,33.74999999999999,1
0.8434724267233785,-0.04845902815626364,-0.3861623811330361,0.06869235955966982,-0.003411185190546868,5.569288966547954,34.47286,-4.430345468007826,34.154762546863985,15.914045501030175,53.53561536074089,-45.72000814485963,1.1155739999999996,33.75,1
0.84650174674637,-0.06112237013808815,-0.3783648311488278,-0.05028259077694464,-0.0034387262195958116,5.608540717418085,34.47183,-2.512464937284774,42.56387281453259,18.09282222471031,40.021702625853145,36.12786283136812,1.1219690000000009,33.75000000000001,1
0.842685824069732,-0.05009619712970529,-0.3830155545783968,-0.1009392813218184,-0.00317144820313716,5.669708292577105,34.47082,-0.009023759621756338,53.65743677422507,28.838028364965684,14.825835359744895,105.08273608100035,1.0413959999999998,33.75,1
0.8390090416696832,-0.04652152938679031,-0.3880100983957624,-0.04147866055538298,-0.003210712291968718,5.742299649689184,34.468605,2.75318564569835,55.19907413177338,25.14473426850181,20.52357046051836,14.232806645506662,0.8047910000000009,33.75000000000001,1
0.8398360538824795,-0.05231189069686892,-0.3869320576801867,-0.01456310022485742,-0.0034184131128454087,5.811262809407872,34.466038,5.220566738150442,55.1303697257998,24.21622516157815,22.523395297458826,35.634228152455066,0.7037539999999997,33.72999999999997,1
0.838459102030708,-0.0488073031163555,-0.3937194661400208,-0.06485834334361387,-0.00420381963991757,5.871327811135951,34.467003,6.472163031339847,54.07181539526928,22.59744025218957,22.556318925679186,98.80983209285954,0.7139860000000003,33.72999999999997,1
0.8410974758566182,-0.05126604997523199,-0.38872726098564103,-0.007105830132911277,-0.0030532940840030613,5.915995905244324,34.470013,5.937902506958054,55.49295296160399,23.56491642234696,22.90426658076335,90.61553822534579,0.7293330000000009,33.72999999999997,1
0.8418197623230003,-0.03987191739155358,-0.3853541994024318,0.05118852643586399,-0.0022675817772435853,5.954325223793398,34.466312,4.408256911196466,54.21208617129452,24.33213889048933,22.093895293023618,-54.518477783741204,0.7625860000000014,33.729999999999976,1
0.8422566299649771,-0.049196712003226284,-0.38723674652062046,-0.024841446935592808,-0.004288916600363744,5.969529638237491,34.464237,2.669652334388072,53.414733938123454,25.062177791287134,21.250874782040853,3.864460286132108,0.7996749999999997,33.72999999999997,1
0.8408811901729409,-0.04341950848449923,-0.38585549204096725,0.03655053593503241,-0.002910568332512951,5.966784310932801,34.46919,1.188507229936754,54.543268212771764,26.30929109966062,19.877477724612017,32.121134296246844,0.8393230000000005,33.72999999999997,1
0.8403730828949422,-0.04526257919218554,-0.3854824533327044,0.07931832803548691,-0.002600396089455698,5.952829499550751,34.46612,0.15653754755679786,55.82908538201936,26.61456844374336,17.064497805563402,-23.400800014658852,0.9096639999999998,33.72999999999997,1
0.8430301002029256,-0.045010499342735266,-0.386730159048109,0.029884351790476407,-0.0035970013189340444,5.932288460888632,34.461796,-0.2898425910520058,53.3849660311309,32.57739972766929,21.754159292920036,34.29665977187853,0.9365219999999997,33.72999999999997,1
0.8414768379328137,-0.030354404972581368,-0.3835542097625041,0.0011155264511203045,-0.003079724312983164,5.9089363447793195,34.463448,-0.855079460082508,32.819840205153,24.75635874244415,45.801447351509964,36.601204053404665,1.0362800000000003,33.67999999999999,1
0.8468210176352188,-0.025820937725292106,-0.3802467046064094,0.061460419836910966,-0.0035361243071349927,5.894102624658621,34.461155,-1.612243552157465,37.79758059658096,22.795368682343124,42.739347352931,-13.800911622767025,1.083601000000001,33.68,1
0.8428006013179378,-0.03625367179378027,-0.3818746056630761,0.002632061168490671,-0.004219716038626536,5.877935770381987,34.460186,-1.9579260092923272,47.00234270312728,26.677155449113,35.322421630607764,-24.441427692357482,1.0260480000000003,33.67999999999999,1
0.8428163541837769,-0.052040394159211315,-0.3838339340342673,-0.034067070565201904,-0.0034229414869448296,5.85089674698887,34.459892,-1.3635612653128324,48.70142180763662,30.733130297894675,23.297728486624024,-238.72549242499278,0.9953540000000001,33.68,1
0.8429217484319791,-0.058540618990073644,-0.38460289543273285,0.009467656554632924,-0.0034568045833640506,5.818193293500844,34.458813,0.3107622588585556,47.108353270030634,30.35996164929175,31.62298352656198,-2.0553810112996285,0.9940750000000007,33.67999999999999,1
0.8436492523680681,-0.061359936444931866,-0.38210637855138957,0.03268061153754966,-0.0033502306007541943,5.79840824651546,34.457756,2.640885875209884,45.078787838751595,25.15778859149205,34.52508333017532,321.4696538446679,0.9902380000000008,33.68,1
0.8414071376970904,-0.05666529201572658,-0.3811883881986233,-0.030146041044225566,-0.003977692701322964,5.79105320045266,34.461983,4.727292543136147,47.786084020965916,25.61418565750114,34.12110220008996,13.362133506184382,0.9876799999999998,33.67999999999999,1
0.8422220333577595,-0.05723117385425817,-0.38585242701188127,-0.0180430725870939,-0.003440765197083657,5.775482576220803,34.45907,6.128596071988138,49.73904536114986,24.292278003875715,32.33238417153446,-94.70297007424757,1.0030270000000001,33.67999999999999,1
0.8408775798573491,-0.05464264540701853,-0.38400062476589264,0.04103144177048394,-0.0035658554823643765,5.767363843790244,34.46167,6.444260694340224,49.665306763888914,23.716792813285075,29.947073035697013,-0.5139924344630621,1.0158169999999986,33.67999999999998,1
0.8419881215636476,-0.0590130030043,-0.38739248766905576,0.009728516648412476,-0.004113553045363273,5.75988510344789,34.458168,5.344409907330121,52.79857675096385,23.707985978461643,28.701676384078546,41.904768289780456,1.0234900000000002,33.67999999999999,1
0.8417145313178284,-0.055627867857724736,-0.3838646123904546,-0.028006546633207872,-0.003065252988899704,5.751495478154621,34.455837,3.4949608711902447,51.191055917027725,23.722093312222047,27.970398844588512,-57.01807163082964,1.0234900000000007,33.679999999999986,1
0.8435260866804752,-0.06081219330121902,-0.38318516508266115,0.042646545959264495,-0.0030885473182007232,5.746143679947187,34.45902,1.472811313131651,51.8282827301005,24.060698716139637,27.75254588606113,-4.479241408836646,1.028606,33.679999999999986,1
0.8429863782463325,-0.05954262849215627,-0.3812789437818825,0.031319457582334384,-0.003629823232056963,5.743778728271034,34.459,-0.35036486239488657,51.50414691721131,23.934490596365688,27.964959865162268,-11.425746370982468,1.0286059999999997,33.72999999999996,1
0.8429167916111147,-0.06182498360278483,-0.38509649930063466,-0.039210117449649216,-0.002852624692341563,5.738604104170086,34.458225,-1.9272197280496124,52.5627265720561,23.776359584676705,26.68124039605955,34.67997867488169,1.0337219999999998,33.72999999999997,1
0.8434186809186063,-0.06389451059530049,-0.38306455190007244,0.014281402315897133,-0.003357953522636367,5.730095887049236,34.45819,-3.41616740735976,52.32751612989876,24.054348279743436,26.097686361894755,-51.460771230540765,1.0298849999999993,33.72999999999997,1
0.8406568981295586,-0.06276259051392123,-0.38900181457773825,0.02897782010559109,-0.0035409245402609362,5.726776442866263,34.458614,-4.755891664612305,53.401785959668274,23.740225984762347,25.174847169315942,-11.912370766131026,1.0324430000000004,33.72999999999997,1
0.841781671995935,-0.0629034904104905,-0.3871605829121276,-0.05066629550047436,-0.0035314993281818407,5.722195381644488,34.461193,-5.497392970869844,52.412495228924634,23.489817426917078,25.322222770659362,20.846224073458355,1.0286059999999997,33.74999999999998,1
0.8417335704249652,-0.06372022304816832,-0.3879190672359221,-0.031004120828982466,-0.003415429366826578,5.7167302153118795,34.45743,-5.561077748853804,54.165655313781706,22.713211552859214,24.363506380812122,25.323852585623605,1.0311640000000004,33.74999999999998,1
0.8411766475852236,-0.06311079139991067,-0.3880754157978711,0.030330103476482292,-0.0028306456231184398,5.7161636638592705,34.454468,-5.084689474031968,54.09852861258944,22.151323671143874,24.12441416565067,-42.656279010864125,1.0234900000000002,33.74999999999998,1
0.8413831156081354,-0.064544156923101,-0.38822963211403116,-0.010275373891528055,-0.0033875663272905855,5.721954268186634,34.456192,-4.284283054813726,55.2976471930316,22.188605990032798,22.29859288511321,-2.981440267262981,1.0273270000000003,33.749999999999986,1
0.842498160215351,-0.06461209553145171,-0.3868319398723416,-0.04652302878193661,-0.0030096484099622206,5.721230785328109,34.455097,-3.4135443703406496,54.88098436280826,22.135928527932485,21.187761369793243,-14.049165438790933,1.0247690000000003,33.729999999999976,1
0.8423448102683528,-0.06285443043101288,-0.3869237908733846,0.007953861943350328,-0.003528878305730874,5.719989602532023,34.456608,-2.450240894147045,55.861783728846966,22.15700360553818,21.038919193451694,-32.829202293073564,1.0247690000000003,33.72999999999999,1
0.8408636141858192,-0.06278751920319786,-0.3880775732975324,0.034141692396695934,-0.003530739495132734,5.715338795774895,34.454113,-1.2350224950058273,55.716230899653915,22.099121566216905,18.738309456107476,-25.149652319238385,1.0234900000000002,33.72999999999998,1
0.8389118290033166,-0.06202757702221295,-0.3941006267455925,-0.02382521372713152,-0.003116307647590416,5.704843302826946,34.45625,0.2976550578590663,57.768993310357395,22.081665808504795,15.705310888935072,51.12763267235029,1.02349,33.72999999999999,1
0.8358274854780894,-0.060737172516263545,-0.39685429248520915,-0.028184008157788043,-0.0036551205305659475,5.683383964801377,34.451717,1.8580893151650382,57.08939148938705,22.064907179013208,14.9764298448205,-20.453177788802073,1.019654,33.749999999999986,1
0.8368344693240283,-0.06104780237821774,-0.397282950324597,0.03847035875571695,-0.0038967150471517715,5.671456864108942,34.452473,2.9889069289174532,58.47614191456362,22.023565109765933,13.928876849065873,-6.804370475072733,1.022211000000001,33.74999999999999,1
0.837506544938892,-0.060600152315933166,-0.39558239397897477,0.028327752116074544,-0.003370389771194646,5.664086826600328,34.45497,3.320396648851538,57.28842198599939,21.795527433309218,14.591195455654917,94.82797995351305,1.0209330000000005,33.749999999999986,1
0.8386859312561155,-0.06066897993797122,-0.3944843509306706,-0.03513512152142866,-0.004126820556257192,5.657937937961923,34.45268,2.7048426779644905,58.028323483680154,21.607670388589742,13.829967986770505,31.190432661130348,1.019654000000001,33.74999999999999,1
0.840320024914472,-0.061128602455145856,-0.39038254503953845,0.01155803120982451,-0.003038398759746282,5.6483036530077,34.454723,1.6643673043000793,57.47553236965708,21.77866565603427,14.388957925157044,-72.45974371719711,1.0170959999999996,33.76999999999999,1
0.8395280732228074,-0.06237572176304572,-0.38992898288337985,0.0548452364261477,-0.0026145969748259746,5.64889877665819,34.452038,0.7345014591456351,58.322401961203376,21.495605200100634,13.913320533182507,-55.65776156832678,1.0145380000000008,33.77,1
0.8408950622209344,-0.05579967209480743,-0.38734106861206347,-0.019160272341658104,-0.004192918676060895,5.643980443972133,34.45495,0.0016842919042748873,57.50568052129717,20.808789952409487,14.29236692481535,12.258339775679284,1.0158169999999997,33.769999999999996,1
0.8413301616368537,-0.06011082055543721,-0.3894522477060387,-0.019463207421159347,-0.003782153414501243,5.637103642477407,34.455444,-0.5926987562201853,58.4242518787006,21.036596737599094,15.091790625400506,43.92438365108821,1.0145380000000002,33.769999999999996,1
0.8383941136381255,-0.0659488813155512,-0.39401866668264357,0.03693162822508088,-0.0028208053924902413,5.630979299241651,34.449265,-1.1737268203268347,57.13838369551833,20.910497756043288,15.743755974888883,-21.606839360209676,1.0132589999999992,33.76999999999999,1
0.8381161241656679,-0.061631227749261636,-0.39541290015583813,0.010668335245265666,-0.003478414141375113,5.6305116934233155,34.451836,-1.93510738002081,57.42397339774828,21.904514650556322,16.101421110030643,25.33245373366013,1.0145380000000006,33.77,1
0.8390393966237644,-0.06423771139533324,-0.39444720550278833,-0.05267614364229741,-0.002845184720787465,5.622885281652714,34.44558,-2.5363847706532665,56.5297582076012,21.698781625693144,17.554580711588823,-47.08073749627705,1.013259,33.769999999999996,1
0.839090587715647,-0.06321000785054244,-0.394163546993442,0.016884118020118362,-0.003562956955140886,5.618648776990822,34.449547,-2.704067611971326,57.433719676182996,21.132729213650112,17.615174293157082,-23.460150850999824,1.0132589999999997,33.76999999999999,1
0.8392597294038856,-0.06367837278213735,-0.3928812610511934,0.04183781685172219,-0.0034822804327754773,5.619792334724668,34.451797,-2.447879022952276,56.73511313663326,20.884006480728257,17.747604044672592,72.72772307004867,1.018375000000001,33.80999999999998,1
0.8400910125279755,-0.06369975362761321,-0.3927744340978918,-0.021933739841499465,-0.0032366305817593454,5.618847490838924,34.45034,-1.7168250117844168,57.48033733599549,21.61612105054248,17.393836428786962,48.494900650869674,1.0260480000000007,33.80999999999999,1
0.8394361803216014,-0.0631699230603732,-0.39253752835332273,-0.04851174062361844,-0.003192947037439475,5.606757540133755,34.447506,-0.7270850316678732,56.65482143533797,20.922920123644765,17.749275491938523,-83.11470467088434,1.022211,33.80999999999998,1
0.8394675551224258,-0.062260971928129,-0.39321993733824717,0.02297162199494604,-0.0029035107776809394,5.597241636635895,34.448402,0.5268087926588653,57.47281259595342,21.210153301392236,17.04784891227696,-15.544761761938753,1.023490000000001,33.809999999999995,1
0.83655345639202,-0.06331985365573413,-0.39633905530311114,0.0321550499349302,-0.003447539244910561,5.586939350833098,34.448547,1.9174372616837938,56.51770954449974,20.91867930251132,17.455959673270392,13.636874316928761,1.0170960000000004,33.809999999999995,1
0.8344727863659768,-0.060829180995427064,-0.39919622321568105,-0.006768937399172894,-0.002681701111744276,5.574797545876313,34.451263,3.316767797151654,57.527461952566966,21.195010355694787,16.899628909741235,-14.57801287715575,1.022211000000001,33.809999999999995,1
0.8376841086563486,-0.06359971035096369,-0.3973459236858746,-0.0463084239819899,-0.0042640860688663886,5.566699207722796,34.447186,4.011917686454774,56.81544955917763,20.794265808900906,17.368737752021534,8.300796546460543,1.0196540000000007,33.809999999999995,1
0.8388550008403174,-0.0608084583179462,-0.39432526041793703,0.049387655076539735,-0.004357021368687994,5.56186363244429,34.445778,3.6225212301246192,57.56485176151835,21.212065614058154,17.11933082694216,31.77671365178898,1.0196540000000005,33.81,1
0.8391223201063451,-0.06309358632077074,-0.3936105168702477,0.017971840699516455,-0.0026929857407298717,5.562828737374687,34.4505,2.6496339155045106,56.86094735635807,20.78285359030691,17.82198445411652,11.027408798432164,1.019654,33.829999999999984,1
0.8401992422742822,-0.061807440115143025,-0.39060026957758637,-0.021551362699680846,-0.003939551792041535,5.560012336899484,34.448204,1.629354422367064,57.467862187412095,21.221652016117094,17.14238030037263,13.199053149296377,1.0170960000000013,33.82999999999999,1
0.8409255710066417,-0.06234776994931733,-0.3887570411257414,-0.03224781839754404,-0.003522034715504942,5.553828564569244,34.446568,0.5582702959174869,56.50781201644156,20.774214201469324,17.571563100977837,-19.395124865056488,1.0183749999999991,33.829999999999984,1
0.8413530665850096,-0.06176405084220436,-0.38830375546735474,0.06212368391332121,-0.0033755195602795073,5.5547564626098245,34.44916,-0.30671483387380805,57.50039943453768,21.229627593644885,16.78657764034494,-27.670015136270603,1.018375,33.82999999999999,1
0.8406741105078132,-0.0633359115743391,-0.3881153785496288,0.0020353950813977073,-0.003434119756216986,5.553149737922923,34.448532,-0.7892041058084159,56.62046183955474,20.766704479353336,17.535652463108814,14.888031935506019,1.018375,33.82999999999998,1
0.8417972187972644,-0.06247722861887882,-0.386848793206042,-0.02140754495986945,-0.0034241169343604285,5.54986612259625,34.450592,-1.0771728467780728,57.79760266979215,21.23731524962425,16.898870816266957,46.33111088615339,1.0170960000000004,33.829999999999984,1
0.8411044668167506,-0.06144771714778386,-0.3865332740940432,-0.028823643240827417,-0.002800940344048362,5.544376934816437,34.447704,-1.4086584085663103,56.580171825546714,20.754574945208258,17.47614519957227,-28.53553903140263,1.0158170000000004,33.82999999999998,1
0.8412845680971787,-0.06562713688104871,-0.38725807077401125,0.05715171576407963,-0.0032880918104354145,5.5415995299401555,34.446003,-1.6483401390797825,57.73697769638569,21.612419570049788,15.963829683566665,31.743738887689872,1.0094220000000003,33.829999999999984,1
0.8406805608127024,-0.06791199145576628,-0.38975437805874596,-0.006848813059496192,-0.002911179718176343,5.5377514436507775,34.44781,-1.6085350692412042,57.30893022824846,19.866245231759446,17.034859635265356,-8.05504229541574,1.0145379999999986,33.84,1
0.8420532139776518,-0.06292360492132049,-0.38851815367160114,-0.022289249258800607,-0.0035316565525489135,5.530828462672078,34.444626,-1.4670766268451099,58.13801608157749,20.010211383195266,17.2858194721329,10.284702395360421,1.0119800000000014,33.84000000000001,1
0.8407533889810495,-0.06714497138885273,-0.3899119279575672,-0.01734567584189271,-0.002752755374953975,5.52660009382103,34.44547,-1.4672816159416702,56.597128136260174,20.028186306976526,17.343738203534677,-31.470169893235674,1.0132589999999988,33.84,1
0.8426363397894117,-0.06409018380084165,-0.38608573031022037,0.05562143494624742,-0.0031147383361364704,5.526453228256378,34.448277,-1.513801780041471,58.557358459100485,20.627627306100905,16.753310745781345,25.796776550886147,1.0132590000000001,33.84,1
0.8421640739565107,-0.0639630059369066,-0.384913982504092,-0.002128797334496248,-0.0030417379881529146,5.525828228662746,34.449028,-1.0458819331303135,56.094913626308134,20.41557767379001,17.074055389215147,-0.5767636653008068,1.0145379999999997,33.830000000000005,1
0.8428852816352295,-0.060489515757602315,-0.38355081085853954,-0.040898664772388446,-0.003127933598598149,5.517588229255402,34.448463,0.0006861138458171562,59.05636389970608,19.579256000980383,17.165116483925523,7.817993528456581,1.015817,33.83000000000001,1
0.8427149348738299,-0.06841637707416609,-0.3838322181776239,-0.020818044582706644,-0.00319599600678348,5.50777130374236,34.44895,1.2291422306384676,62.547163444019,21.161214596650414,18.64482394671727,-51.39710581717928,1.0209329999999996,33.830000000000005,1
0.8382649342286512,-0.060652862167922185,-0.39209353525546053,0.047001084939089596,-0.003278979496747067,5.499468122154187,34.449524,2.5853066338520363,39.21573973297584,25.57596960371468,29.899201529389362,62.86565192914668,1.0247689999999996,33.830000000000005,1
0.8385283493120422,-0.06132974980600926,-0.38699527915436904,0.04748179553241632,-0.002685732901896446,5.490388227927507,34.448914,3.9045403666871654,51.162932442911625,22.367757676518703,37.119982210270074,-44.69439565439942,1.0861590000000005,33.89,1
0.8415215659518444,-0.06422983804945231,-0.3846754957208349,-0.031566852848530905,-0.00330001526545351,5.48700767962355,34.448048,4.557983313667832,48.81930577956258,21.96137510843781,28.75080560369044,7.9265080610917895,1.0810430000000013,33.89000000000001,1
0.8436995632473364,-0.07178793950950531,-0.38216095872096323,-0.012462700574787641,-0.003993064013374134,5.479143288587445,34.45077,3.909423721217157,55.65579112132507,27.013208749571472,26.150947610173578,-23.30796413303765,1.077206,33.89,1
0.8463466192106026,-0.04107224594587971,-0.37452855535614016,0.04549143290459116,-0.0033475005802274284,5.479518012313057,34.45033,2.619244833136414,54.52731823534192,6.783535723853974,25.802795512356326,209.97041322228296,1.0605800000000007,33.890000000000015,1
0.8532676230480518,-0.07827342895776603,-0.3637002778885302,-0.007461079177355986,-0.002671267225357586,5.480095353221277,34.448437,0.9228647868973918,63.53004574705727,8.447128614466019,14.66057487643356,-206.53897571974662,1.0388379999999986,33.84000000000002,1
0.8494599670412311,0.004055616672220139,-0.3760251985121531,-0.05607148483994489,-0.0030803925193538468,5.478577573196901,34.454422,-1.0391260677231289,71.13366731201387,18.543358110269118,17.091549266967522,-49.45131952605359,1.0055850000000008,33.84000000000001,1
0.8427005050045737,0.015047577258614145,-0.36973653338061835,-0.027798619822478606,-0.003630619656982005,5.488094052888255,34.450447,-3.135099100165626,50.941410085098155,17.438992409738972,15.34078491303142,76.90417777343916,1.0593009999999998,33.84000000000001,1
0.8456272767172613,-0.034605627370007414,-0.3746006361260209,0.039414727906135746,-0.003669557635685905,5.491147834606359,34.45642,-4.383950127173158,49.89140034625645,31.199587251141246,-7.078647998211493,203.9633024353957,1.0836010000000007,33.84000000000002,1
0.8407164099957293,-0.02699001065991136,-0.3817384829969479,-0.012483875524355335,-0.003102267036870768,5.487811629373464,34.462933,-3.2905991169136874,54.250070699363256,30.24676706706707,2.9477348769960563,-2.2639136022057738,1.1232479999999998,33.86999999999997,1
0.837497078709941,-0.009645210396036268,-0.38951093238789203,-0.05137156110786027,-0.0042022069910698364,5.479237013803623,34.47234,-0.9484410467894325,62.59115521920003,13.169583031583851,4.554209436617297,-62.412144250010755,1.1130160000000007,33.869999999999976,1
0.8318367086817685,-0.0025373355990164644,-0.38589818738264414,0.016030398340661126,-0.0036898624344639027,5.469844758409633,34.47347,1.1426839086072769,67.05951578663662,5.890662746228512,19.01153659610564,-159.90293291981297,1.1066219999999993,33.86999999999997,1
0.842656749667881,-0.0188837884899918,-0.38887969265553074,0.07094188727879874,-0.003568861700679253,5.463837837945606,34.483047,2.5913640511525764,50.95709239964027,19.031075875091545,37.50181919890665,-357.8412423589799,1.1155740000000005,33.869999999999976,1
0.8355469476718718,-0.003507081120498898,-0.3864847358394885,-0.02196328272288415,-0.0036156911383882,5.451066550849886,34.483475,3.1555288729357986,21.700466511267724,12.849442621249352,46.040230676390664,295.5171894257379,1.1462689999999989,33.86999999999998,1
0.8516629711207997,0.010999083151947406,-0.36413801562587217,-0.028743882318323186,-0.0034044975379081644,5.444471995830507,34.485714,2.7766442897985035,-9.318510004449486,-20.116399429541897,71.91539850175745,2.7519230098967653,1.147548000000001,33.86999999999998,1
0.8413757177105874,0.003807063346410143,-0.3793419468767473,0.05563521520204055,-0.003124083006539556,5.447018851195827,34.479626,1.4059674299358824,-2.24495021159234,5.85099777646377,60.86729478381424,63.85478449078738,1.1526639999999995,33.86999999999998,1
0.8394218305732524,-0.004756315040803108,-0.3744282631049328,0.010003763847928823,-0.0029802006590202647,5.450807987780955,34.48186,-0.36069270354857025,0.043649649808792025,2.9414595594999,62.510206256488125,216.8576886911828,1.1565010000000013,33.86999999999998,1
0.8524361818081174,-0.01600930874481897,-0.3610794699247123,-0.03690904116058527,-0.0028492032724569782,5.445474034936642,34.47914,-1.505098452939092,4.774379526119567,-2.5416807112698825,73.19201881864817,-437.7541018581317,1.1539430000000002,33.87,1
0.8441783430071945,-0.022566308910193428,-0.374320322967702,0.010313630118115947,-0.0025053997842339683,5.4397917321149825,34.479256,-2.326855168145213,3.026421036734491,27.650254735830753,41.1826293784892,-213.66337421157283,1.152664000000001,33.870000000000005,1
0.8497249525463461,-0.008909321112379461,-0.3654687494260197,0.043970725661253963,-0.002738022083883685,5.437752273257267,34.47496,-3.011180059545596,43.36240114996101,29.71751088341569,22.700130941645646,388.88968603754284,1.1245270000000007,33.870000000000005,1
0.8398657439182267,-0.01080874147403743,-0.38698950136649574,-0.03706447896811799,-0.002787552140288383,5.436640009446278,34.474224,-3.4531298257911938,69.4998415078602,16.860010271853408,27.606060426338374,141.08502016222084,0.9019910000000003,33.870000000000005,1
0.8404504786119438,-0.026292740504488567,-0.37928573947971983,-0.010507530573684627,-0.002724256024340708,5.43124811489954,34.470894,-3.689008249714598,51.08823304162514,15.07937896513673,16.879846607957816,-66.56882954916463,0.9301279999999993,33.83999999999998,1
0.8546312520059655,-0.054557878390468426,-0.3668014896204061,0.04481611966446333,-0.003145754502702485,5.431663550312886,34.470833,-3.615609454813641,75.25544337089624,26.261120212533346,4.629926982405275,135.9802499356084,0.991517,33.83999999999999,1
0.8527735983540372,-0.050159671498898495,-0.3560081250589165,0.03103588994560675,-0.003315530096019184,5.4326612231975355,34.46652,-3.304837839988426,61.64251951426123,29.67503990932562,21.6556508199708,-274.0073765921459,0.9979120000000006,33.83999999999999,1
0.8469783861871778,-0.038008288536626196,-0.3724211996943877,-0.07930336697460534,-0.002938359828416882,5.427483965793028,34.466187,-2.5873417878803866,-9.670700503507408,46.90786225430854,20.113524096845303,-134.347330253634,1.068254000000001,33.83999999999999,1
0.8495260116556078,-0.030506475379309998,-0.36368417863302976,-0.009810759293348495,-0.0030683222185579995,5.416443401193987,34.46682,-1.1025999490964327,-3.548551506940993,58.27198988411846,22.096186553635505,153.34696479791245,1.1015060000000003,33.83999999999999,1
0.8487946914776792,-0.038809583815826186,-0.36920463830298744,0.030941969633477083,-0.0035252649984943087,5.405323892235918,34.460247,0.9343604164706694,4.497315061417259,61.2200767140317,21.762232213919585,-56.397403553271964,1.1232480000000002,33.839999999999996,1
0.842289047848926,-0.034029622153813506,-0.36845799364084775,0.021596856684442556,-0.005288231504358189,5.399835020767133,34.46178,2.8538936778613113,-3.1891474750280664,56.74328887489787,17.62744852718311,41.23385602780384,1.133479999999999,33.83999999999999,1
0.8463239081908106,-0.050882414161672745,-0.37924681175040686,-0.035312212077454365,-0.003160208648554284,5.393264403746907,34.458744,3.7870858353487495,9.804612358587661,56.88744228580698,9.27666003161116,174.34628620978967,1.1385950000000007,33.84,1
0.848965352348262,-0.01504701188326788,-0.36265728837591077,0.028961881747465508,-0.002581116704995511,5.3870411748544225,34.45639,3.468499424576137,18.55353326958602,15.818068732426536,65.7621959031537,36.5799697124807,1.1411529999999999,33.80999999999998,1
0.846430808201764,-0.018206697023542814,-0.37359289363007253,-0.006457740162547531,-0.003046246882743264,5.396464435019915,34.45857,1.9915820445944779,-14.530468907269256,-6.419263835119882,67.58502523915973,-106.33161452062829,1.1079010000000011,33.80999999999998,1
0.843408194500003,-0.033854475355765204,-0.3793790678127269,-0.033093028058176314,-0.003135436049171924,5.395913923498352,34.453003,-0.1102035830074811,-4.801660129091883,7.959138191316009,61.39484135470978,98.71453453447526,1.1168530000000005,33.809999999999974,1
0.8445791169943678,-0.02542243971720796,-0.3780751151304359,-0.04088986015223938,-0.003493534231701964,5.3976673251258624,34.45396,-2.0284549798882097,-9.128095574113294,2.3463990982180465,64.753446911108,-97.77058015622458,1.1104590000000012,33.80999999999999,1
0.8467246392934921,-0.03113102531921095,-0.3769458140501209,0.056999286731808214,-0.0035744555546321504,5.396620174063581,34.448143,-3.070536016083433,7.936716272989736,13.949836529395464,60.014095656439444,-387.94725457360687,1.0989480000000003,33.82999999999997,1
0.8441321805268803,-0.035567565560534156,-0.3783301989717681,0.033103404445794404,-0.0027815858564062042,5.402185090563245,34.44723,-3.132772345084177,20.848306542960433,11.943859930392897,58.275069755225765,61.051293190575905,1.100227000000001,33.82999999999998,1
0.8464037762774606,-0.039391920155300277,-0.3757999777676147,-0.030258620724782404,-0.003371477936012978,5.403573144935587,34.44488,-2.650568825846502,34.879550649388335,17.827508977614123,48.53241118944682,286.3446740639071,1.1053429999999993,33.82999999999998,1
0.8496516216428311,-0.04697250573830423,-0.3657373068326424,3.228904370811437e-05,-0.003770706890509793,5.389766151520622,34.44337,-1.5343657756485065,38.24487062534544,19.016925768812044,45.49733529395497,41.80118835612973,1.0836010000000005,33.829999999999984,1
0.8534892752356448,-0.026875268221510918,-0.35820372019585406,0.0516098222508662,-0.003229361981418333,5.39128272434282,34.444542,0.37413172910173176,34.04490391010901,5.016544246559012,55.55482914927079,-9.796681851271913,1.0656960000000004,33.78999999999999,1
0.8465557946119588,-0.03342604792785331,-0.37017462326549727,-0.033435668877849836,-0.002867999564881289,5.3921405943700895,34.439728,2.6643530263822863,44.4936316824952,4.903201701181963,40.697283086579326,237.2664828215494,1.0644170000000008,33.79,1
0.8369491511574415,-0.06334531184121735,-0.39027050017413606,-0.050179972054073305,-0.003792885772137044,5.382300665044487,34.441113,4.410388168317328,56.225531643098286,22.898355075224842,30.267939100083847,-58.417213877765846,1.032443,33.78999999999999,1
0.845240748822181,-0.04420271642338751,-0.371866015789122,0.04064537538061905,-0.0025621055320331617,5.377336947748628,34.441174,5.233793727818837,42.19043720146052,4.1769646628848935,43.491783525134416,-210.79418091351457,0.8610650000000004,33.79,1
0.8491261185647587,-0.04993585481252844,-0.3739719602128045,0.03655851131515922,-0.0036840634568218204,5.377166447568272,34.44303,4.990348789815109,61.94604403570063,3.596323983025295,26.133471330979418,-7.150718623739451,0.9493120000000006,33.81,1
0.8365021293859768,-0.05531547365477055,-0.3948431840321952,-0.03848334003787099,-0.0039303105319890095,5.373033066057406,34.440952,3.7587688006575433,56.77261918287415,8.190695710753811,19.087101045949016,30.506725470320383,0.9646590000000004,33.81000000000001,1
0.8321376137572781,-0.05831292987905334,-0.41329720252129076,0.03491390467265863,-0.0038858955539656705,5.372116971382715,34.44323,1.919860954350573,64.34668572886355,8.41868033372864,5.446777615746924,135.51609263118385,0.9838429999999992,33.81000000000001,1
0.8342956934149555,-0.020068881627748,-0.3985773334676642,0.04105445809517148,-0.003016612573178056,5.376730189239261,34.43854,-0.8541301092110644,64.78718422094984,8.972967989389662,0.21656105403602818,-120.18783321850024,1.0055849999999997,33.81000000000001,1
0.8326258968139117,-0.0374555825537525,-0.4111688103114115,-0.03797330935534521,-0.0032189433851306237,5.373945042985133,34.44603,-3.92010450538523,62.37696691119317,6.45369794373548,1.3742623186788652,74.45326364142018,1.0362799999999994,33.809999999999995,1
0.8315425625556154,-0.039606022078623425,-0.4066219047218869,-0.022520795750715,-0.0029439084731753785,5.371259192044664,34.44286,-5.578561792856286,62.88506536705143,7.212965788043041,-0.7365920091787878,-21.809449652231347,1.0452330000000003,33.81000000000001,1
0.8343822182172088,-0.033373051319059814,-0.4063320437910463,0.040074467940240756,-0.0032989744581249842,5.369256460822214,34.441597,-5.468410344197218,63.759668135125494,7.370021698401498,-2.6773813417088688,138.77161202175495,1.0708110000000006,33.81,1
0.8343068125021541,-0.03868001887497023,-0.40164424888963657,-0.02815788510171822,-0.0029976979697684623,5.369328103930602,34.446064,-4.2625028277133605,61.449817868021285,6.647135370965377,6.7925560510981695,107.16786744478246,1.0810429999999993,33.81,1
0.8339141522322515,-0.042042425337911055,-0.4039778711824504,-0.03924037857063985,-0.0038028975781252386,5.358065577789456,34.44273,-2.328603838842421,63.866170083158345,7.350645687775946,1.4689338496507731,-85.72470513889401,1.0823220000000005,33.809999999999995,1
0.8352817891889391,-0.038852258812394166,-0.4026592705202773,0.008964086389722726,-0.0033265345051301802,5.347827823942862,34.441235,-0.006715658830281451,62.430298331320735,7.3906489800966195,-1.972013108230824,-66.36833951269263,1.0899960000000002,33.809999999999995,1
0.8308723163330491,-0.03819801531701154,-0.40420178983957716,0.03990112445868612,-0.003404893805641194,5.339515942349119,34.44355,2.296321550372713,62.19127217515523,8.689536290672875,-7.517065837028371,-101.58742375182034,1.0951109999999984,33.80999999999999,1
0.8311914574239316,-0.03954495801100967,-0.40587697209425283,-0.02591311989563438,-0.003471257914268898,5.3345919087256695,34.443134,4.18216889594332,62.21292304008,7.854304062263301,-9.891927652519621,-575.4175069958085,1.0963900000000006,33.81,1
0.8348325866496985,-0.0387398447499561,-0.40241447449749507,-0.013016885877000846,-0.002949726644201822,5.329086796898195,34.44464,5.0336997361221405,62.26613778131279,8.419760777335574,-8.977585847388209,230.51507827882133,1.1015059999999992,33.789999999999985,1
0.835866362827163,-0.039792678505773935,-0.3987739513534094,0.04961774215344645,-0.0034739011202546996,5.334883665174866,34.446167,4.279952005368315,61.944098529568926,7.6710059513744655,-9.04496090252927,254.61705394276476,1.1027849999999992,33.789999999999985,1
0.8356719585412553,-0.039800245741377895,-0.4012528113682624,-0.005664982561869473,-0.0035060755332939086,5.337770832324995,34.44735,2.583799304062548,62.20478996062546,8.314723672844563,-8.797775739377908,3.589256641257007,1.1066220000000007,33.78999999999997,1
0.836754172047253,-0.04029549319114079,-0.39842815731180264,-0.025615658266578977,-0.0032667118197121153,5.336537413959513,34.44522,0.7626374219141339,61.85120582776732,7.690411362408045,-8.895758157536884,111.5575861892644,1.104064000000001,33.789999999999985,1
0.8365402095201401,-0.040330793014977794,-0.3979480201878302,0.04947995235737473,-0.00272539006407393,5.337318931488463,34.445034,-0.8460885336707156,62.13629629251856,8.407383777078389,-8.674722905825101,-130.01506644069016,1.1066220000000002,33.789999999999985,1
0.8350372709725213,-0.040201535869031656,-0.39856038150710715,0.00961276082088312,-0.003303569664879771,5.34008435536592,34.44524,-1.655021167160154,61.87035012117044,7.742998203529151,-8.883242286984336,-184.69001389940001,1.1015060000000008,33.789999999999985,1
0.8363452312547499,-0.04060456889521564,-0.39940886506678613,-0.037715933343936234,-0.0022648312679902187,5.336364301323696,34.45162,-1.8532877070980975,62.122898849687914,8.250695813013927,-8.641540349451681,-220.12555861530922,1.1066219999999993,33.789999999999985,1
0.8355615894339645,-0.04170637821135791,-0.4007742735283316,-0.014391418729112487,-0.0035806195863447364,5.333078417271285,34.44233,-1.7681563401709242,61.94186527075212,7.801014360713958,-8.456420921420287,51.757156292807274,1.1066220000000007,33.789999999999985,1
0.8352956608574392,-0.03989933875502661,-0.40078004701644854,0.059471479320448765,-0.0024437196682919353,5.331475011003237,34.44884,-1.5836143348088203,62.3901113790041,8.373932061145638,-8.079405191690196,147.52771749463722,1.1066219999999989,33.78999999999997,1
0.8339103985521328,-0.04136020612055272,-0.4018341461190498,-0.011865338012391246,-0.0035745224679993746,5.332536173243977,34.45103,-1.3115262718352576,62.021994023624615,7.835090971183741,-8.524340840986305,32.2267401652899,1.0989480000000003,33.78999999999997,1
0.835471145775376,-0.04085643514132594,-0.4017052016438474,-0.023813945789923265,-0.004080742453055455,5.327176345251759,34.446987,-1.002398293046225,62.34725846914986,8.238404237930768,-8.668737588823126,105.14660537876972,1.1066219999999996,33.78999999999997,1
0.8364248643368181,-0.04161617663935251,-0.39938882717966945,-0.01689409536501177,-0.0025985890769814226,5.323880015265597,34.44915,-0.6860334194649685,61.94936938991184,7.7619676775265045,-8.529579397217331,-60.16038014515041,1.1053430000000002,33.78999999999998,1
0.8364534813765598,-0.039879830516053844,-0.39902330184434104,0.057093551109161506,-0.0028449899939960452,5.320571879505878,34.448776,-0.279211846275109,62.05878264105166,8.233670468134468,-8.685544644418288,123.3807243674804,1.1053429999999993,33.79,1
0.8352647402184676,-0.04162734016436069,-0.40052662583674775,-0.013148095716343773,-0.003073272489490355,5.316952586359076,34.4508,0.5166774910862908,61.9638605156098,7.771416448193685,-8.643139673876052,47.835890546790026,1.1091800000000003,33.79000000000001,1
0.8339215175003869,-0.03921308217670469,-0.40262350485247056,-0.033841044817468253,-0.0036113004566474117,5.305032002326729,34.449474,1.5676662518408488,62.17899047651514,8.223391633567735,-8.711344851677033,-40.896058258018094,1.105342999999999,33.790000000000006,1
0.832679160764682,-0.0403760523057328,-0.40288468458259113,-0.024908266902011676,-0.0030505034263682215,5.297695075492029,34.45123,2.4202647856197137,61.94004274044251,7.781727879027845,-8.629775251455483,-100.50364990118806,1.1053429999999993,33.790000000000006,1
0.8353697575959774,-0.039735711053412816,-0.40208681195573237,0.062434693306397976,-0.0021635637754925164,5.295213080120935,34.451515,2.9453770257809415,61.99755481432143,8.213286306442175,-8.989782194521545,153.64503474096009,1.1002269999999996,33.769999999999975,1
0.8348319192138339,-0.04008868611224958,-0.40031584393163555,0.011444838556920632,-0.0031791029228290992,5.3003842367589,34.452713,2.8020112322678417,61.8507352559366,7.791543522187732,-8.728880600235101,-74.4436867937364,1.1066219999999989,33.76999999999999,1
0.8365204714762888,-0.03871575689319923,-0.39935477795465096,-0.03309506890900813,-0.0029752494890338045,5.295990053898243,34.458168,1.918467110527026,62.08697577902573,8.203789587786359,-8.788373330341503,-0.43405242991979903,1.1053429999999993,33.769999999999975,1
0.8363640423954358,-0.04005058526276459,-0.3981285042417708,-0.037376150688109296,-0.003367529307694574,5.295714993652596,34.4532,0.799635738098658,61.93821674192589,7.800714087916446,-8.748704057079344,-29.87935810993566,1.1027849999999995,33.76999999999998,1
0.836322047252642,-0.038697164522113046,-0.39928475236273436,0.06481059090492812,-0.0034291926828454063,5.294691151866145,34.452187,-0.07405869213093336,62.02517998148977,8.19494265022377,-8.714361981222558,147.52570144012824,1.1040639999999995,33.74999999999998,1
0.8350144228954899,-0.04038129753223553,-0.39993556503164807,0.008548019443518996,-0.0036452424753747295,5.295909896924788,34.450222,-0.48662283892043573,62.17697787022705,7.80924442019425,-8.610385005008723,89.99076574280873,1.1066219999999993,33.749999999999986,1
0.8359662768278902,-0.039993130835192264,-0.3999267961870797,-0.02688636512335766,-0.0028814678922001197,5.292726745869511,34.45616,-0.7042306770519798,62.28308643014565,8.186719880617135,-8.49718569454012,2.0198646680800887,1.102784999999999,33.74999999999998,1
0.8347714069107786,-0.04023392081413475,-0.40064907342422695,-0.03207729706766106,-0.0025850498450782646,5.289837294028628,34.45635,-0.8441691120049872,61.973977356394165,7.8171694252377835,-8.725663307959353,-32.8389070151039,1.1027850000000001,33.74999999999999,1
0.8354749515277577,-0.04002274108632566,-0.401008099044463,0.048959222997521555,-0.0027342232867785723,5.286968340665204,34.45394,-0.8661678557040552,62.122488612289786,8.179082777525368,-8.820102399283146,29.690581754045144,1.1040639999999986,33.74999999999999,1
0.8344263997617184,-0.04034526953493227,-0.4011531708551956,0.02486155447942705,-0.0037736900176923165,5.29020248887982,34.45512,-0.8663742561616857,61.891286821524105,7.824528149361411,-8.419743723602265,-4.781927810306571,1.1040640000000002,33.74999999999999,1
0.8369256418460059,-0.04000350089717325,-0.3998352971788435,-0.0424262011573205,-0.003345856610738117,5.285205402869106,34.46072,-0.7191886034650271,62.099998862969905,8.171993504812894,-8.340250248183155,-23.933189451324285,1.1015060000000005,33.74999999999999,1
0.8358532357694803,-0.03993793529353086,-0.3983555587414297,-0.03297066716718147,-0.003832466430296604,5.279455830989806,34.458874,-0.399603031452046,61.906364864823885,7.831356119336228,-8.478241853762766,-38.320389106078636,1.097669,33.75,1
0.8365752082990984,-0.03920049154348139,-0.398679651138057,0.018614573849085807,-0.003148796667624677,5.273067037971584,34.456486,0.2283725030667024,62.08854693198259,8.165419642857993,-8.554830813139938,46.846758143384896,1.1015059999999997,33.74999999999998,1
0.8326800868336225,-0.039707009294882356,-0.4021483745573167,0.04298536992176445,-0.0031667352816504503,5.269356083155843,34.45807,1.2463083163583444,61.91579285460214,7.837681811717574,-8.742428058689917,5.027468545392032,1.1002270000000005,33.75,1
0.8328503091376361,-0.03911368739408054,-0.40362766857837545,-0.026762041785773065,-0.003254723253681721,5.263885584047907,34.45925,2.1397528584588006,62.08030865613479,8.159338396569606,-8.596911804141032,-16.441504112570733,1.0963899999999989,33.74999999999999,1
0.834735704162146,-0.03991538059139104,-0.4019208154471737,-0.035955388550975693,-0.0040175991951473256,5.262776011707059,34.458096,2.452537673701863,61.923364646203915,7.8435159373889425,-8.673997461891341,-35.35268960899775,1.0976689999999996,33.75,1
0.8359629845802056,-0.040449102285076914,-0.3997473287277749,0.020955186015008846,-0.0035474695020858184,5.262587545890809,34.460274,1.900047146555248,62.072993337479666,8.153782916152146,-8.613891260125419,2.0483951900500332,1.095110999999999,33.75,1
0.8345279146610763,-0.039505207364307675,-0.4015627600739981,0.06127491941188983,-0.002939071204933989,5.267275155373648,34.45187,0.8978091261714038,61.93085028770018,7.848571876802653,-8.261315936976686,6.95969032392211,1.095110999999999,33.75,1
0.8353347469980598,-0.040921142824370316,-0.40146002013481136,-0.032565730478230415,-0.0019431950773149997,5.2668743811291705,34.454582,-0.2415598256146761,62.06473012628976,8.151758423970344,-8.322892628421922,10.99546549885294,1.0963899999999995,33.74999999999999,1
0.8355663637264914,-0.04025040855947084,-0.4007928698755647,-0.026016793892832766,-0.00425044324226598,5.264282242383044,34.458767,-1.2162212537752835,61.94105758334237,8.021777933367837,-8.105216889203964,-37.28690417542819,1.0963900000000004,33.75,1
0.8349185353785527,-0.040577110730060456,-0.4020696118194842,0.009557218814201334,-0.0036571474822802257,5.262172693434362,34.46258,-1.747786817633513,62.049451169875795,8.253364717084848,-8.011895077527612,11.176118724777059,1.0938319999999995,33.74999999999999,1
0.8340415910493175,-0.04018697653098419,-0.40267363490199165,0.05866877715213252,-0.003251159891099166,5.263114337870465,34.46292,-1.8615972822364955,61.97710867112176,7.94412694968936,-7.9757805400641475,34.987875553983464,1.092553000000001,33.75000000000001,1
0.8344410221245232,-0.04155945919052708,-0.40359642254422695,-0.043283311599530326,-0.00412844313555251,5.262123684721095,34.461853,-1.6160727069256062,62.163267871884294,8.242260898633877,-8.138474375102223,-19.508560576617654,1.078484999999999,33.75,1
0.8351027967711707,-0.04049116885464408,-0.4024005178710604,-0.01958632522741778,-0.003749929673055925,5.259328267394791,34.462097,-1.349356876651423,61.96378628465057,8.136203597556925,-8.151497389258106,-44.55381025714617,1.088717,33.75,1
0.8365559659266475,-0.04068406182525151,-0.39992686768311864,0.010092922664905444,-0.002941710682593447,5.2552166714418345,34.464535,-1.1497510405893419,62.18251465763221,8.142063359082702,-8.100623918303285,30.869605530516388,1.087437999999999,33.76999999999999,1
0.8364832063166969,-0.03962322054970102,-0.3977579571929928,0.0478238659466835,-0.003126218228326161,5.254512382968972,34.4653,-0.5868790334469135,61.89274771774315,7.86896201921769,-8.014767237029623,38.28791524965308,1.0912740000000003,33.77,1
0.8357307502276813,-0.04052527547063685,-0.4003376477369368,-0.05484119380113745,-0.003227515408875282,5.246769745394429,34.463932,0.39971299782003794,62.09455033231139,8.128426470417272,-8.240454987663021,26.723562410002746,1.086159,33.769999999999996,1
0.8328563509068364,-0.03907269391645077,-0.40576429768634,-0.01186326786711632,-0.0036711924090118116,5.234529380250592,34.462257,1.5223626854836292,61.90907139889472,7.87321789895982,-8.219967953429485,-82.76619838498334,1.087437999999999,33.76999999999999,1
0.8314292304716552,-0.039465505789172586,-0.4056413470784938,0.02367164174409717,-0.00385363066405494,5.226129527139368,34.46439,2.4695780952467747,62.09647586996321,8.125430790329828,-8.550168163876345,-35.910844038173806,1.0848799999999998,33.77,1
0.8336276268871955,-0.03918513817997506,-0.40477486971888466,0.05127807962574492,-0.003231015409443213,5.2263367993125875,34.470085,3.059597936904187,62.045033595308574,7.875715676680417,-8.457987899961664,27.945409166062376,1.0848800000000007,33.77,1
0.8353248655914975,-0.04037283588055685,-0.4020564068854474,-0.04713113894452738,-0.003161069983664813,5.22854923772817,34.466583,2.742599952075851,62.06197295018408,8.123371310334925,-8.239550985832219,-9.76199031336004,1.0848799999999996,33.77000000000001,1
0.8364375524887268,-0.04008489964714921,-0.3983273466352405,-0.0019146997964914756,-0.0026191229690730633,5.229238597952798,34.467422,1.485588650987474,61.931943497673316,7.877222399477052,-8.19645442080671,-23.28825226978044,1.0848800000000007,33.77000000000002,1
0.835917565272569,-0.04070924357175509,-0.3994532378902775,0.03819052263331821,-0.0028118227190942376,5.232838762829598,34.465233,0.08190434244052865,62.07136812162134,8.12266646327042,-8.400371737450591,2.6555801919546425,1.082321999999999,33.769999999999975,1
0.8352711567862967,-0.040017086666106705,-0.4016522412092386,-0.005091783847204636,-0.002805878923622406,5.235850305363573,34.46767,-0.9382991092806666,61.923956378749615,7.876629620128092,-8.162448212334215,44.71452561481079,1.0823220000000002,33.769999999999975,1
0.8353959114773438,-0.040825718893650574,-0.4005992453154085,-0.048046086264684436,-0.0038305362815346275,5.232505767442024,34.462105,-1.5768608983925674,62.08857437810817,8.1257043019689,-8.028046121323534,2.441780360141842,1.0810430000000002,33.76999999999997,1
0.8350418314661845,-0.04068847727687173,-0.4022136188608807,0.0359677243320772,-0.003605311216768826,5.230053044462177,34.466057,-1.951748142350689,62.04271142461816,7.867535501020861,-8.296324992311407,11.086653647573769,1.0848800000000007,33.769999999999975,1
0.8347830845231623,-0.041062156019712394,-0.40286889089406486,0.025129952354564448,-0.0032028718745738326,5.2309852691150756,34.468212,-2.0181145930905604,62.10107356594004,8.16509517111113,-8.091922438692357,16.76506255434621,1.0810429999999995,33.76999999999999,1
0.8348982701327983,-0.04064901290655267,-0.4030745328879977,-0.025340586407958963,-0.004254734887764089,5.230487787290482,34.47133,-1.7920583241340458,62.05004390029336,8.009441463570157,-7.9550634253257595,-14.486904034420679,1.0823220000000005,33.77,1
0.8362179165908559,-0.040918576247206295,-0.4005484231024742,-0.0461617075962184,-0.0030696802379954137,5.224278519042937,34.467453,-1.5726573195577513,62.022964269301255,8.407331823654463,-8.181926408684426,-60.49334838961285,1.0784849999999995,33.769999999999996,1
0.8361899971389335,-0.0396508606601857,-0.3995239813618729,0.038450580623834746,-0.0019717213643661922,5.219421960613336,34.47153,-1.1420253527077,61.965087219479265,8.08805179253993,-8.184200373934528,-15.032944020993947,1.078485,33.76999999999999,1
0.8341852348734876,-0.04015235373229896,-0.40312155266041666,0.01951862261855888,-0.0035336697660004685,5.212717404044986,34.469715,-0.30722527168227476,62.03983989636015,8.059910424594479,-8.385037027452183,37.44786754557228,1.0759269999999994,33.76999999999999,1
0.8322939072681731,-0.039784436227172176,-0.40650395765384467,-0.01950598332898896,-0.0027887752449638733,5.204930226459861,34.468487,0.8390091156766432,61.95742346525295,7.924547759027059,-8.311565585874904,13.838448340410233,1.081043,33.769999999999996,1
0.8308565211030423,-0.039517336235449764,-0.40845562821110587,-0.0309814844264563,-0.003665359560246307,5.19393730924716,34.468723,1.803581708810669,62.044440231587984,8.078281087484587,-8.588370828256318,-30.584517729079575,1.0746480000000003,33.76999999999999,1
0.8338134479009276,-0.038698461185848444,-0.4036558287914022,0.05112317314536578,-0.003677703630433222,5.192820049074694,34.47112,2.229262374110343,61.95399951067703,7.934523024671845,-8.485027017908513,15.37568866107895,1.073369,33.769999999999996,1
0.8339816839356846,-0.041521773721428956,-0.40276625561623314,0.01483326281925118,-0.0038526389493866546,5.196057555131033,34.474396,1.9582122563802031,62.04764502168179,8.238075112468128,-8.512952784390079,34.762611475016335,1.0682540000000007,33.74999999999999,1
0.8353480735473376,-0.03824261478086081,-0.40090347537309934,-0.018414048197740333,-0.002570084231098999,5.197165730731122,34.474686,0.993857269356966,61.950138199491406,8.003241837071927,-8.365675034952753,-13.711891143872311,1.074648000000001,33.75,1
0.8351167105163617,-0.04127687340929842,-0.4023962649207977,-0.038755111393379504,-0.003633688263984114,5.194578811095039,34.472286,-0.22774420275686555,62.05403633346976,8.065409578240665,-8.363968864442906,-22.73096191976701,1.0682539999999998,33.74999999999999,1
0.8333142876508326,-0.03885910178617169,-0.40567632297329315,0.06555667096418111,-0.0035036896473285583,5.192551289927247,34.469814,-1.2014532333567285,61.77504707100641,7.900600593339712,-8.268290682573575,21.20531462717343,1.0695320000000001,33.75,1
0.833248829461178,-0.04162297511194628,-0.4056009898651577,0.0008986615535718552,-0.003543379731600965,5.1940028834887455,34.472878,-1.807407227903186,62.368813163869596,8.57141530537426,-8.304826422908926,41.70138823309012,1.0669749999999987,33.76999999999999,1
0.8330086489479694,-0.038398394357115055,-0.40716972458821504,-0.02806440966825079,-0.0038233266585668475,5.191308055455237,34.472546,-2.0552875573168086,62.20679724010393,8.197266777603236,-8.382173552680513,9.151312746046692,1.0695319999999997,33.769999999999996,1
0.8345761408040357,-0.039686900476664594,-0.4043592653933901,-0.03222873509027071,-0.0025046167631444264,5.187904704713271,34.475395,-2.1148789395810783,61.84876459485147,8.588224947719812,-7.859169255699702,120.47406852550954,1.0656960000000002,33.76999999999999,1
0.8374043902955028,-0.03892419702868175,-0.3968556881986207,0.0419889314652275,-0.002551683499991002,5.185644756548246,34.473686,-1.970357870942532,62.10540342535062,8.473355667690042,-8.39026339745894,309.51268771930586,1.064417,33.76999999999999,1
0.8356508432452734,-0.03801849636239837,-0.3998385059696982,0.016174956196019653,-0.0034345134338106664,5.182355390787205,34.472717,-1.0082525892943839,62.202567198891494,8.130545043286146,-8.224044729312215,21.519314789662726,1.0593009999999992,33.76999999999999,1
0.835380329075728,-0.04009923064677169,-0.4013387664079046,-0.03388732907509573,-0.0033674993701195773,5.171712300751519,34.47593,0.6367675335999788,61.947329363177765,8.164281652104538,-8.636744281171689,-538.880356608093,1.0618589999999999,33.769999999999996,1
0.8316541843556808,-0.03786555424053836,-0.40666808247770503,-0.02429595553591867,-0.003328459157452941,5.159497192280294,34.473343,2.3070292706753315,62.30656080948,8.064852773414701,-8.442942353425456,-243.64020201304749,1.060579999999999,33.76999999999999,1
0.8301964670318394,-0.0422430516541648,-0.40646846524348573,0.03710195918452265,-0.0028653923537630024,5.15158972655487,34.47364,3.5586824596304782,61.90840762528936,8.166371628921624,-8.69644185375013,230.1611942499795,1.0554640000000002,33.77,1
