chest_ACC_1,chest_ACC_2,chest_ACC_3,chest_ECG_1,chest_EMG_1,chest_EDA_1,chest_TEMP_1,chest_RESP_1,wrist_ACC_1,wrist_ACC_2,wrist_ACC_3,wrist_BVP_1,wrist_EDA_1,wrist_TEMP_1,label
0.60989824551296,-0.022725603630345096,-0.7247620403078359,0.03458926776918135,-0.0038861453978643887,9.637065548498951,33.44608,3.5951320638162785,64.22037619438113,10.727569267230333,15.060834199688138,-14.362956472261697,3.0072150000000026,31.309999999999995,1
0.604448974868429,0.021122086112002173,-0.7167091451932551,0.05073769155013768,-0.003934105465477114,9.62424125407475,33.438835,3.1317016149742014,56.347290059165765,19.194967189842085,0.6833356679854848,-11.818077683530024,2.990588999999998,31.31000000000002,1
0.6021807131431847,-0.020095878642085566,-0.7383157435736835,-0.05118418719965754,-0.0040981279866479725,9.617646023402818,33.44541,3.1494849887086858,58.50605903200631,9.489091223344992,16.33067882057432,60.95701008341331,3.017447000000003,31.31000000000003,1
0.6083533750957548,-0.041532758204163515,-0.7306065962588143,0.07779812931277842,-0.0038497649532167584,9.618662498690398,33.4441,1.8367685674696779,63.38082850590067,5.103118372566304,22.350867208075506,13.20900421453642,3.0084940000000087,31.330000000000094,1
0.6016436507381593,-0.04322253984251374,-0.738024041883697,-0.015601746058394154,-0.003991333584698438,9.651394176393898,33.44834,-0.371390660276715,61.542779736106674,-1.3919115019459627,21.84006180989398,-10.182258929973445,3.0174470000000024,31.330000000000037,1
0.6175357185319024,-0.010824373217594762,-0.7306202431117337,-0.08454399587473886,-0.004010784072069784,9.663998808004584,33.44624,-1.9568679470604373,58.78690321870525,0.672139058424668,28.762529827081018,30.72103215461097,3.013610000000003,31.330000000000013,1
0.6148916078799446,-0.024643525047086137,-0.7194815041676289,0.06689746321039662,-0.004088387056643883,9.665899445229341,33.443073,-3.1377916044894905,21.08168097860982,6.131331688308972,55.07524562196072,0.8871432178322762,2.9995410000000007,31.33000000000001,1
0.6074892320460049,-0.031477752869362476,-0.7332866992934379,-0.04651951911820753,-0.0044236270972929535,9.671725321604747,33.44967,-3.702024882937706,6.7618368086743565,1.5393768351683894,64.07714341275813,-60.78631328811627,2.984194000000005,31.310000000000016,1
0.6127188318675013,-0.02059214034692245,-0.7228063777005136,-0.027619662113419097,-0.004174252968064223,9.649773939217502,33.4528,-3.513856664883209,4.371048425638834,-3.405989081555239,62.1249289573339,-2.953115416326006,2.9343149999999985,31.310000000000016,1
0.6086334648978857,-0.009867061822959041,-0.7282156010575829,0.09553034869434522,-0.0041668888187237465,9.640706381742044,33.451714,-2.778164478408409,-0.30949775538138574,-2.1960432087889132,63.59716763677105,-59.65083920311468,2.9253630000000026,31.310000000000016,1
0.6110583093050971,-0.02106863951885386,-0.7199475536486519,-0.058780223906343444,-0.0038845737117312643,9.638135599902782,33.456364,-1.643948382382461,3.076460423977594,-3.8334351028799682,62.403796996361535,-51.932397135904054,2.910015000000002,31.309999999999995,1
0.6072102197557421,-0.011906999340358401,-0.7355822010538626,0.022483363564853902,-0.003946190008510209,9.62022516088511,33.460564,-0.7637648177936649,0.5127836661201929,-1.1850923133583997,63.458724734818,70.42883730103483,2.901063000000002,31.31000000000005,1
0.6071336852081095,-0.01933333154260092,-0.7230352590651449,0.06298961882120512,-0.004040152293569819,9.624504294622426,33.462364,-1.28030173170751,1.9923351585117384,-5.110875092433364,62.35564691967763,43.598081922123775,2.884436000000001,31.310000000000027,1
0.610497730903901,-0.01469116092515643,-0.7352067987520018,-0.08128082500660931,-0.003995700845823283,9.629649992171261,33.467953,-2.592953590727329,-7.593067318595546,2.2179024816982578,67.304271076066,12.018455196130619,2.8831570000000064,31.310000000000034,1
0.6108615257296109,-0.02587206719614581,-0.7213125893930905,0.003238972798357872,-0.0041345972967307435,9.616775588260397,33.467407,-3.7670097889769347,36.6840553149371,-2.4859281695060296,39.49006789215324,1.3646644597122248,2.8780419999999993,31.31000000000003,1
0.6206167852869523,-0.02494092419439769,-0.7214830450268278,0.06945257628492485,-0.0040181585327919885,9.618845710713456,33.475174,-4.520826163573501,64.38577333331597,-10.262386123672073,26.21470713631824,-19.795799774918294,2.8869939999999996,31.329999999999977,1
0.6176803131386628,-0.02986107005930794,-0.7205217231599804,-0.05776509681660837,-0.004171953311013266,9.624443409969182,33.47407,-4.475412360446709,46.72631208256143,-2.518790895897054,36.81498335548056,-3.588175240439934,2.8422310000000017,31.32999999999999,1
0.6052417166670544,-0.010724912736148668,-0.7338726807677305,-0.01546185874302607,-0.004129626062402214,9.607832346494058,33.47658,-4.05839652703231,44.70557528778877,-16.112458796679444,43.99844450868849,-17.26722233621248,2.9957049999999947,31.329999999999995,1
0.626441487355507,-0.030676969945224706,-0.7192168202520574,0.07639895911415445,-0.003928808930171415,9.604941352533693,33.47892,-3.9550175387247166,59.150012854799385,-1.8246348072913552,20.865511511121227,-36.3645507812603,3.0046570000000026,31.33000000000004,1
0.6166268411157314,-0.02856487808829457,-0.7336290090249176,-0.03947310130150244,-0.0038701839127734342,9.593092132404937,33.48189,-3.349844631427025,57.47007647624441,3.2275582169428083,23.749757567093983,106.84085220849906,2.961173000000002,31.309999999999974,1
0.5773937805022045,-0.055575176761533264,-0.7357390678671837,-0.057748645897718345,-0.003986657683392476,9.541215189107223,33.48438,-1.9123523946006031,56.02987489160689,8.146263968268089,27.149008409063033,45.731671576204754,2.925363000000006,31.310000000000034,1
0.57046643883418,-0.10532361868270083,-0.763407737190298,0.09759738481145362,-0.004188994648588374,9.522736354231292,33.486866,0.4669929058405321,57.32535219744534,4.0245979755398835,28.93920677344304,-116.5224350779847,2.9010630000000046,31.31000000000002,1
0.6062954157724479,-0.04276830035959255,-0.7380374406412405,-0.012776695351922204,-0.004154073599421042,9.545517750699435,33.489647,2.8295596493973623,54.1514423827297,3.2408282967466153,30.84960752595362,44.53310198911685,2.8818789999999983,31.30999999999998,1
0.5782699064122078,-0.0396975370370051,-0.7574966292374441,-0.03253830598163721,-0.004054671567398212,9.54726877135369,33.49241,4.057194144799808,55.422548152382575,2.946336643885462,30.752653161343684,41.702534561939395,2.8716469999999927,31.329999999999988,1
0.595828426633821,-0.04218234118322741,-0.7404978317381853,0.08967298167529619,-0.004111877186659069,9.55226734673405,33.496086,3.6282539666003,54.10440355155224,2.9471598106438606,31.375158453756452,-32.304918657668566,2.8716469999999985,31.330000000000002,1
0.5962140308114021,-0.05222890561489089,-0.7463338270776047,-0.04985267805994917,-0.0040266277608091055,9.571868019644837,33.49451,1.5361511867768274,55.681961162717386,2.7681827953939746,30.252436204000404,-27.98405237327822,2.8563000000000036,31.330000000000037,1
0.5985785468400654,-0.04167598394645869,-0.7389533257274695,-0.056103261694640014,-0.003688871860173843,9.565368572046367,33.50086,-0.7844787635659952,54.40379014318237,3.2772710618154197,30.956639406944028,-3.2571028476576633,2.8575790000000043,31.32999999999997,1
0.6027676958103165,-0.037319209377429885,-0.7393188410274004,0.08226383506174748,-0.004156644280192802,9.568034789535284,33.50141,-2.7167868786076115,56.08506695221979,2.712062477999995,29.779609223457154,-23.281788125120972,2.8537420000000018,31.34999999999999,1
0.6005448945795291,-0.05691600615199743,-0.7363102916587247,-0.04588058482574491,-0.003932105975418157,9.582789925649708,33.503223,-3.7369352953844874,53.29037563871334,4.867708837074118,31.89040081985988,2.9601995650684954,2.846067999999995,31.35000000000002,1
0.5988617836098329,-0.044405384382337376,-0.7416186881742138,-0.06685559618332933,-0.0042050720156164905,9.577211993888389,33.507404,-4.079980219878003,51.5563069013181,3.0879300778644962,35.968959791862304,5.2498966409711265,2.837115999999999,31.35000000000005,1
0.6014453477975982,-0.035558814555571104,-0.7356313623786205,0.0812711735743483,-0.003832528589837699,9.579200236557352,33.50843,-4.308809095067379,52.232103813466175,3.642397369897583,35.58292727065153,-17.092165685678623,2.8166530000000005,31.349999999999987,1
0.5984726750325757,-0.04628345053141735,-0.7420403768184234,-0.015145003974384787,-0.004048961818607291,9.593287039304844,33.51408,-4.00794138569583,51.912506147291616,2.967583183121763,35.76584392632649,-3.860655876351292,2.796189,31.350000000000012,1
0.598161819856614,-0.036440754864808966,-0.7406550376604637,-0.061768064284030505,-0.004019442992509046,9.586757527516998,33.518494,-3.356528736589939,52.032555749123134,3.3782207821681967,35.66078420190701,-4.7060327483477,2.785957999999997,31.34999999999997,1
0.5945628398541815,-0.04390932759360662,-0.7456527505889946,0.06428108442708448,-0.004125981639041635,9.582863908156549,33.51811,-2.5759301197666873,51.82165838824597,2.803302808877846,35.49241764681251,-11.010681855193528,2.7821210000000014,31.350000000000012,1
0.5907377481461378,-0.038477880827432025,-0.7430931868362964,0.03148486292770014,-0.003713681087744037,9.592879380856127,33.525322,-1.4477467419429588,52.27209413411064,3.3813900007836404,35.263253717104085,3.0673881724054746,2.769330999999999,31.34999999999999,1
0.5890711529661832,-0.041327146762796155,-0.748131602138318,-0.06507633356128853,-0.004092356662283699,9.589913778159493,33.524895,0.05888030707960136,52.83007187558367,2.8616317738273844,34.57589499398851,4.146739066461475,2.7680529999999983,31.349999999999998,1
0.5929695843609841,-0.040131328366686765,-0.7439855980015448,0.04459294284841293,-0.0038434800451381734,9.58232082114888,33.5281,1.0643431098110945,51.87804622681208,3.330654480164773,35.18679778498178,-5.691390062776911,2.757821000000003,31.350000000000016,1
0.5950109689726718,-0.04125088804578491,-0.7436985636885425,0.056364443993589586,-0.0039206553044439,9.594715807757185,33.53148,1.194188019414505,52.12851735327769,2.7410104563567423,35.08961775114107,2.6614384146311183,2.756541999999997,31.349999999999966,1
0.5956834138322078,-0.03992277817819107,-0.7400686163996393,-0.06526212925348641,-0.004172696135711855,9.599739867908735,33.535076,0.7980960049346538,51.87692186391063,3.2446223373200613,35.63532206889181,17.940653743553028,2.750147000000001,31.35,1
0.5971049868083663,-0.04179752645365634,-0.7430363455601633,-0.03562345677689438,-0.004086826691675035,9.590609790978004,33.535484,0.160889598467501,52.118746352315966,2.7626816191251313,35.04585262910494,-18.201658264140047,2.7411949999999994,31.389999999999983,1
0.5988655626858741,-0.039778422144605995,-0.7377804091007186,0.07330767248520446,-0.0037130904794758324,9.590452485547281,33.540512,-0.47114921284715283,51.88484509435004,3.233441663340726,35.95748836279658,-9.318017380593105,2.741194999999994,31.389999999999993,1
0.597545469486897,-0.041675357192718726,-0.7419611536320845,-0.004212720557448492,-0.004012201513341621,9.60033109580356,33.541164,-0.4173609564509801,52.11191346795781,2.76729249247497,35.84437141970271,22.798320379850356,2.7335209999999983,31.38999999999999,1
0.5979362617934642,-0.040007457074217254,-0.7399338510140068,-0.072924995157989,-0.004005864741057392,9.592879076515853,33.54128,-0.18377876091213827,51.89115295817628,3.237157575271834,35.97900534030621,-4.091290977993257,2.7296839999999993,31.389999999999997,1
0.5985554931237809,-0.042125992782474996,-0.7417379235845445,0.018999789371758852,-0.00403611007710657,9.583163899568834,33.545986,-0.04878059093662471,52.105914881590046,2.7288409823975597,35.393548111599074,-13.500261558704722,2.7194530000000006,31.370000000000005,1
0.5988058408917035,-0.04038068936658231,-0.7390649056310538,0.06417813377914898,-0.0040598469619081996,9.58699193226059,33.54641,0.09489678023461053,51.89679342269352,3.2683711488658163,35.75683798906303,14.16328249406584,2.7194530000000015,31.370000000000033,1
0.5941823422861962,-0.04238057218849171,-0.7451112477479124,-0.034573873594443714,-0.004149471422103525,9.591011392117299,33.547096,0.39271829451612666,52.10115857556176,2.7551031744843257,35.476332919784404,6.697281233263527,2.6989899999999967,31.36999999999998,1
0.5946472557556627,-0.04063050704359521,-0.7470146533454716,-0.04477689792917247,-0.00383028768787173,9.578072375681835,33.552032,0.8642157046299032,51.89770081952607,3.277790268945788,35.96517844268187,-14.662505161198078,2.7053840000000022,31.37000000000004,1
0.5871372964630373,-0.0408554986704123,-0.7497060742147635,0.04730432166870385,-0.003966867304837745,9.565684096837556,33.550644,1.5206533981994634,52.203449706762406,2.119146706263818,35.33756624866056,-5.158162437570338,2.6964319999999975,31.390000000000004,1
0.5793140087933742,-0.040246986920304186,-0.749296313971556,0.03811660823144666,-0.0038249100940302644,9.55866310941417,33.55249,2.366467673524245,51.94680540080442,2.584184282958761,36.026643214898606,18.256571120836693,2.7015469999999993,31.38999999999999,1
0.5898266770642544,-0.040290863664108015,-0.7517560938756059,-0.06240451287244277,-0.0042321685446517114,9.551542977407527,33.55385,3.2021555148297227,51.69889248330379,1.8419722510322236,35.95182474336794,2.842616215480583,2.695153,31.389999999999972,1
0.5819696563084971,-0.03725305464376111,-0.7496114031673716,-0.028129230227957554,-0.003981815820321254,9.532901832199325,33.5574,2.925715514044403,51.45892705243347,2.3324993746812073,36.437320567626664,-15.563998341554168,2.6874789999999997,31.389999999999997,1
0.5959038131207961,-0.037525348524716465,-0.7456723424997888,0.07853765448110016,-0.0040997915857371855,9.530104902318316,33.556995,1.463066013041734,51.75296240333294,1.5819630071092068,36.18321762165389,4.933540211092844,2.6874789999999993,31.390000000000015,1
0.5887970989492233,-0.0327458506983214,-0.7485203543399188,-0.03835683596099599,-0.00411292077625982,9.538641968325607,33.560738,0.04722938075166219,51.82121772723322,2.391773060976442,36.106484425935506,9.414092789149073,2.6810839999999954,31.389999999999972,1
0.579407945526554,-0.02755742330300894,-0.7541395013997585,-0.07432931735469223,-0.003767575957115466,9.5249966115102,33.559376,-0.6795884008003116,51.88972787005168,2.0651355044709985,35.65865692401472,-9.608230878427495,2.677247999999997,31.38999999999997,1
0.5842064801074686,-0.03829170814796191,-0.7518025587346834,0.06393458992387882,-0.0035892845177202095,9.518528024580691,33.558678,-1.001564884731267,51.55545019976568,2.2300034412758327,36.16519721900472,-2.45109356342573,2.670853,31.39000000000002,1
0.5901946158759608,-0.03099397106215989,-0.7523550439931415,0.07376845302010523,-0.004152256260577284,9.542625242689205,33.564583,-0.365205137808274,51.96433160307967,1.0588556214181977,35.834689889557104,8.557893478725484,2.6682949999999988,31.389999999999983,1
0.5829943259410408,-0.03229365999130989,-0.7509584143299178,-0.06599047220416808,-0.004114459300646301,9.549917121331985,33.565044,0.8367523261943576,51.496716168983376,1.7398312248933046,36.79509694390956,11.622539030382406,2.6631789999999977,31.389999999999997,1
0.591256730366813,-0.038940164298252346,-0.7487627043173922,-0.0053230883563409204,-0.004287383118270589,9.539559166951284,33.5613,1.8660395117332735,52.57493704856924,1.591129734388365,35.42911465654355,-18.532837057950495,2.6606209999999946,31.38999999999999,1
0.593192904502208,-0.03003849859632028,-0.7401923248364314,0.0802184479511739,-0.0037578595852790146,9.543572370087167,33.565693,2.881165792506211,51.17412711364345,1.271869336475238,36.59348453620575,1.176966576260615,2.6529480000000025,31.390000000000025,1
0.5871900535908674,-0.03894893195084168,-0.748231741159543,-0.04003372213552735,-0.004286967195285135,9.546183519726316,33.566116,3.6471927889250253,52.87271105998527,1.3251196094947015,35.42378544289561,7.5121422885809555,2.6555050000000033,31.370000000000005,1
0.5866483476121854,-0.034847705426461116,-0.7491111638872623,-0.05514262112482622,-0.003990308319846565,9.534505345604684,33.56398,3.584019074106034,50.02473647260083,1.5568830887216105,36.62059311252033,-6.470207417113815,2.651669000000001,31.36999999999999,1
0.5870713292404647,-0.020673018668140572,-0.7506778678946002,0.07551259089663219,-0.004512417417998726,9.53441210163158,33.56796,2.102981331337299,58.80645132133696,0.824931889449162,36.23028265463514,-11.490879846169372,2.647831999999995,31.370000000000005,1
0.6017274262041685,-0.037554203674218835,-0.7396246023713685,0.009130550452454327,-0.004199044410019555,9.547693211256382,33.56871,0.0015314484486481186,57.85578842454664,13.901143158877213,43.68278387001651,9.507245835886334,2.661899999999999,31.37000000000001,1
0.5900360877440148,-0.08897628828568657,-0.7480800441764486,-0.08042436090945757,-0.0035184262968226358,9.537512378481955,33.573475,-1.6465016995381054,8.203704447165665,32.63729602856459,37.91869408000374,3.4211627396929423,2.654226999999998,31.41000000000002,1
0.5964087288084009,-0.046495700198498864,-0.7373680353680377,0.05332516886444872,-0.0037631302587075918,9.524163334802932,33.571167,-2.7848455986248393,12.830593717400776,46.091236690220214,40.146763194143205,14.483779598825253,2.6439949999999968,31.40999999999999,1
0.6006819577228291,-0.075800034276248,-0.7419368117378514,0.05606850435422285,-0.00407867319940894,9.537696888675791,33.570747,-3.1069976804203847,-17.691574978504573,52.52744094287892,32.08635579750687,61.43840208025217,2.620973999999997,31.41000000000003,1
0.6047999645454751,-0.09461034450744987,-0.7343182406233684,-0.08218350492259952,-0.004344210659991292,9.5444993629538,33.57334,-2.2058150734026616,-15.508204102490193,54.441158286011365,28.672357447326302,36.1609793754146,2.571095000000003,31.409999999999997,1
0.597417773323992,-0.06121061115693613,-0.74239879909511,-0.004359210207043304,-0.0044140634889154,9.535428677539906,33.567844,-1.5496738145174058,-15.620524607500963,52.8316020619114,32.84160141220959,-38.39335599519395,2.531447999999998,31.41000000000001,1
0.6075336040384022,-0.07580531423991686,-0.7315962241894863,0.07655885136329514,-0.004030086275025774,9.541624378222215,33.569973,-1.184626551542404,-13.845019172143925,51.69465435299079,34.71729908913224,-59.726117338597824,2.5429579999999996,31.41000000000001,1
0.600448950719703,-0.06821026194543396,-0.7397432813105992,-0.019256182532849157,-0.004311480100655687,9.551307739650971,33.572758,-0.8020018407477084,-15.755754198796762,51.36586186359585,35.344773298563084,-113.1254234320864,2.5455160000000063,31.41000000000002,1
0.6034271859577673,-0.06818510833905096,-0.7380457432144171,-0.06175119790098926,-0.0040171138420538235,9.543521583243859,33.5738,-0.6329330213746776,-15.836119856601174,50.15988887992783,35.67738533877852,2.3726272019718206,2.5595850000000024,31.410000000000004,1
0.5957697954526986,-0.06069702394812968,-0.7437401901132344,0.0432688257170239,-0.0038128756388932316,9.533258132362853,33.57209,-0.49566546918036036,-4.557021420642162,50.85332852679595,37.521785087547165,76.51341373741765,2.5698160000000008,31.430000000000017,1
0.5964748316741666,-0.06038395067397008,-0.7397903727390975,0.057350890043951136,-0.004439756810707193,9.532906005082124,33.571857,-0.10370219367140195,12.88790410171161,51.4353374389315,35.55261216306818,20.455071225212684,2.5698159999999994,31.42999999999999,1
0.5875893211626338,-0.04343316343925205,-0.7474333828912544,-0.03901434869422405,-0.003994769158721859,9.528599788373922,33.573025,0.7762961598556,7.148542211486228,47.45888429991118,42.29039516890525,40.96822320602476,2.562143,31.430000000000035,1
0.5993128748673329,-0.05072584746823853,-0.7408292388958934,-0.04565695691422318,-0.004195620188546335,9.512507702404402,33.575123,1.7522579944351102,-10.275060931675585,45.61197332990215,44.72697205550174,-84.60039392587056,2.5698160000000043,31.430000000000035,1
0.5936001956703426,-0.055918215227931674,-0.7432612711699436,0.06440818992210645,-0.003925945550292742,9.505928819277258,33.57775,2.4147524811813357,-16.821548136760537,48.2790814006811,36.68472763824105,21.68893624392373,2.5647010000000043,31.43000000000003,1
0.6026858384759114,-0.0485180606920934,-0.7354762452628254,0.032077231109998085,-0.0044885636441465895,9.512373124482759,33.5747,2.795174051667847,-28.388914889231003,48.699791039752824,32.587881654943594,78.20356662704556,2.5557479999999972,31.429999999999986,1
0.5979853466221172,-0.057057108891574414,-0.7409108637407035,-0.06183842995718177,-0.00463769393595633,9.510916097920603,33.57737,2.8950851384229086,-22.60904931331718,48.63946739795095,34.537349551191994,-24.466024401073827,2.5621429999999994,31.43000000000002,1
0.6023234919237627,-0.055789415920758284,-0.7353469508849713,-0.0163982138917784,-0.003941396673744224,9.499744521164821,33.577347,2.3487754837318757,-26.69008970509424,49.62722302178851,32.688626704493345,-39.517967283533736,2.5595849999999984,31.430000000000017,1
0.6057834829786214,-0.05324820874464504,-0.7360128694850756,0.07267042792337418,-0.0039006486788140827,9.503836236747054,33.576,1.3436085261725255,-22.3077702593317,49.93962753235209,33.65128142020917,29.58516959780811,2.557027,31.43,1
0.6026155468934288,-0.0518166998499418,-0.7358623299971085,-0.014104223874884043,-0.0037782395657070776,9.513905224814664,33.57959,0.4393305742235863,-22.92495039671496,50.91229489977346,31.655070601832655,-49.245927229252736,2.5071480000000017,31.43000000000001,1
0.6071031022919136,-0.06130731197226939,-0.7345348252289984,-0.06790768650826508,-0.003975181883160058,9.508327282300923,33.581207,-0.09514016440223311,-19.85399424049159,51.316498046630485,33.165035243284834,-20.821264954472042,2.481569000000005,31.42999999999999,1
0.6042679967582582,-0.05302816002469787,-0.7348958687182051,0.02320132309591297,-0.0037776624172199576,9.497920134098159,33.579895,-0.141960256919619,-22.02272479670606,51.58625368300552,31.34756403389541,3.012663184814892,2.4735899999999997,31.429999999999993,1
0.6069145961157792,-0.0534233888101689,-0.732729263041843,0.07185142876471146,-0.0038155300188382575,9.500949328178095,33.5769,0.3295699014008416,-21.06311090982229,50.87289258059628,32.48893165534639,23.46849679906934,2.463359,31.41000000000001,1
0.6012855223661,-0.056453224690165005,-0.7363764036450738,-0.03740490332591988,-0.004126254320428137,9.502470142346585,33.57555,1.2066376982683789,-22.884474198436383,51.24004512510131,31.26428099948664,42.91793104416331,2.46208,31.409999999999986,1
0.5995272392753613,-0.05505517710527491,-0.741402606130733,-0.05868985600429865,-0.004092180452652553,9.490235598171054,33.57971,1.926070510667761,-21.2696406524599,50.74722083998577,32.986702691103275,-10.37755799922946,2.450569000000001,31.41000000000001,1
0.5989887811828376,-0.05289406356219794,-0.7379141198308161,0.057396466703647245,-0.004721331169368553,9.48150041022723,33.57897,2.0237588336403878,-22.194206572548094,50.61229132192326,32.58561838794575,-28.5878756327704,2.450569000000001,31.41,1
0.6048738980726067,-0.05533072672356519,-0.7352015764269683,0.03592916581329864,-0.004380536904869972,9.487494892065632,33.577217,1.9617049320625266,-21.12717877929739,49.97559692265475,34.08822142078267,3.983359387873713,2.4454539999999945,31.43,1
0.6052187417332557,-0.05847138558928757,-0.7349637863157076,-0.08165230321878031,-0.003436134767077894,9.482807596829447,33.579544,2.102560259028148,-20.33324584814531,49.66243709255164,35.181716803105154,-9.712321672434063,2.4492910000000023,31.430000000000025,1
0.6053317926665032,-0.05436978450906849,-0.7311210830513496,0.0004426412853049665,-0.004127040076805801,9.465786982321983,33.580208,2.1559434989078388,-14.128324057087347,48.89906169733724,38.615161758467636,-21.19224664286626,2.448012,31.43000000000002,1
0.6082721244937923,-0.05301800640642858,-0.7281430709160268,0.07891513948379413,-0.004139629210920763,9.466569427136958,33.580353,1.8419042383363218,-2.9632304716412063,47.555447248422375,42.29375277471172,12.759448228197229,2.4441749999999995,31.43,1
0.6174497374761779,-0.060228356448075115,-0.7249377145593815,-0.029101826686287326,-0.0037208781407139773,9.478465231166881,33.578712,1.1091415435461318,9.831061007712105,48.532939451137814,40.51224263230684,14.95001613669636,2.4595220000000015,31.43000000000001,1
0.6205872005656816,-0.0657924372214173,-0.7189279817198806,-0.07357721660393444,-0.0039027688377306297,9.47589373451518,33.578457,-0.3092557207022387,15.450934421320477,48.81570522575694,38.252214365894574,-23.10759425469304,2.487658999999998,31.429999999999986,1
0.6253830761250104,-0.04834730651725861,-0.7164461197816536,0.061612465427188304,-0.004141931800124144,9.472349497683897,33.575512,-2.023955027108598,18.046562468010055,48.51578170342024,38.54249406614952,22.789765763837927,2.5004480000000004,31.430000000000014,1
0.6138069828317373,-0.06880379101320318,-0.7238834316827988,0.02926355052948561,-0.004420700006807906,9.482357904295666,33.580326,-3.4545397305020646,14.454336235576223,48.74799633896935,37.13877565674364,58.02292982610626,2.4505690000000016,31.430000000000017,1
0.6096816925354985,-0.06667978985295885,-0.7306871867553862,-0.0773405173311524,-0.004292258081129586,9.481462259920953,33.57738,-4.412546702675857,24.300508813782773,48.67826156941332,37.554674583864724,49.934800801183165,2.4505690000000038,31.43000000000006,1
0.6109873224369443,-0.054074006592335695,-0.7302083696482092,-0.022596170645806955,-0.004586804255738616,9.471714219031838,33.57657,-5.281538733681231,3.2016494111868807,46.554806234518665,42.99356355215526,-26.400398114115347,2.4838219999999995,31.43,1
0.6055120498782282,-0.05690513647789607,-0.7338107538552316,0.08456111816844966,-0.0038040925203918097,9.471649664357667,33.57549,-5.8252263209611215,-5.57135094869832,55.63605564179253,28.542840172323693,-56.512945102331045,2.4902169999999977,31.429999999999968,1
0.605795237727499,-0.06591664302400164,-0.7331644269958908,-0.005739441147291769,-0.003235104047571308,9.478966417579922,33.575584,-6.030020107068679,-5.884484310807625,53.29145012579444,34.05099684128574,-3.317339203845076,2.4851009999999962,31.429999999999982,1
0.6047433326428878,-0.05167014267894842,-0.7361856790068004,-0.06070697041594287,-0.0038625407480353514,9.474284021003829,33.57196,-5.934627804394588,-10.617927262287536,47.00664073344094,43.04628367887314,6.1288090563429725,2.4978900000000017,31.44999999999996,1
0.6115579205295445,-0.05830846842377797,-0.7287916518918188,0.014103087622000425,-0.003430383407596892,9.467564066247208,33.575085,-5.481115570495815,-6.399297585595379,49.2088085973922,40.128611716979464,-27.86955614063779,2.478706,31.450000000000006,1
0.6043093140244911,-0.05585739167922743,-0.7331124406344169,0.0940632847796447,-0.003992422784294854,9.467639459572856,33.572468,-4.109787452660756,-3.4304554930230218,48.363810710622246,42.11592453280769,4.878793956234603,2.487659000000001,31.449999999999967,1
0.6072533358149516,-0.055987899848164754,-0.733101555496181,-0.012933583897414752,-0.004487650647154936,9.474379955268407,33.57132,-2.0414891794649646,-0.3842671466067466,49.21199157367922,40.68306624383105,61.45878938287573,2.4876590000000016,31.449999999999996,1
0.6024837508348644,-0.057569538997220275,-0.7384049052434358,-0.06598121639020858,-0.0035102456625049415,9.46509432685609,33.574856,-0.1469112801180825,1.6316144665598573,48.49504997731236,41.80990849455324,-27.866596109283844,2.4838220000000035,31.470000000000017,1
0.6063504174074424,-0.057021672009496954,-0.7317858622072296,0.034895345227193314,-0.004052839728001548,9.454579371521183,33.57209,1.2008043028096989,0.5625826185103783,48.322370733487254,41.466214515314746,6.111798731090249,2.477426999999999,31.46999999999996,1
0.6060603269156701,-0.054512556534586004,-0.7318210650994317,0.07296001553442291,-0.0038597752268517307,9.458970108614265,33.5755,2.434651291604944,1.2622118455385742,47.8879503508357,42.123835842163565,17.48551324438833,2.4748689999999947,31.469999999999995,1
0.6063735871896204,-0.05709998550329341,-0.7321993764038868,-0.03734614756826616,-0.004762085769360994,9.463886911745732,33.575157,3.3210691465791653,-0.8767470295857687,48.28597289167086,41.77344802342358,0.292914293553127,2.4671959999999977,31.469999999999995,1
0.606657422112787,-0.053570439112812805,-0.7338402057606501,-0.04277722176521931,-0.003903308775227356,9.451655476051272,33.575096,3.7072633584297456,-0.7474763349259188,47.80903912546101,41.53919700815299,-39.19762359375334,2.4620800000000003,31.44999999999998,1
0.6066158428627368,-0.05882012124661066,-0.7333645013335658,0.06303171042536634,-0.0037494704944088537,9.446487117240128,33.573723,3.6993214492150575,1.9787980119356596,48.00492809854063,41.747218381102435,-39.00620436285524,2.4582430000000084,31.450000000000006,1
0.6029941114869113,-0.04963437415379098,-0.7323643265722688,0.02885966019916668,-0.0033483446346729844,9.453321611812033,33.573364,3.546143439379996,4.988831627254868,46.77707465158566,44.37116242814884,34.744683182023344,2.4556849999999923,31.449999999999932,1
0.6107508199002217,-0.05570113276322342,-0.7274945248586527,-0.07544238707185714,-0.0046960765617797065,9.452344107355506,33.574753,3.387499195364483,4.118519939004788,47.2136157610592,42.24240377500856,3.9034687223944418,2.442896,31.449999999999992,1
0.6115889709705563,-0.05394214226588359,-0.7273247864115421,-0.0012297458019571346,-0.004192045606176248,9.442425855710743,33.574024,2.746524862903631,3.1811787101955775,46.83601835451811,43.07872340935419,-70.35415459688687,2.4467330000000054,31.45000000000005,1
0.6215129777476437,-0.05518679421923497,-0.717912410584494,0.06487646554702553,-0.003884064774242021,9.45043470415525,33.57286,1.4401902702893428,3.426976234788768,47.26930725779651,42.917197477342675,-37.18887708742038,2.448012000000002,31.450000000000017,1
0.6225238240634793,-0.06310545802099606,-0.7191290009623865,-0.0537334715591602,-0.00419191454929841,9.462556850276265,33.574326,-0.032219874292328025,3.8695114345517316,46.864635259002,42.7750996360048,-34.37231451689436,2.445454000000001,31.450000000000006,1
0.6183428165048622,-0.05482106622953192,-0.7210611839841417,-0.06821325623407716,-0.0037925818844501457,9.454672015989395,33.574017,-1.4040210485183362,3.350567456043722,47.648007294986265,42.54176676591985,-35.91888632834589,2.445454000000006,31.450000000000028,1
0.6146834902145233,-0.06285143075364605,-0.7253379663920532,0.05512542952731161,-0.004156619455085482,9.449787209565361,33.57357,-2.5844398566913807,3.4562425542608626,47.27854033187103,42.63958685922314,-51.182973883571236,2.449291000000002,31.450000000000028,1
0.6093501538109247,-0.05587218474446091,-0.7299778495007848,0.046956940726462185,-0.004423084464389696,9.461128693173963,33.571648,-3.341012237864492,3.580348734956747,47.75490498893057,42.32177563672163,72.9613726213083,2.469754000000001,31.44999999999995,1
0.6049168846623189,-0.05912247590061537,-0.7349307176601856,-0.07184260218120343,-0.004184973036168619,9.464635217799385,33.572678,-3.845170280990061,3.2127045617128207,47.31947744661599,42.526111662190154,68.26180922562314,2.4710329999999985,31.450000000000003,1
0.6065014716471341,-0.057116642454739394,-0.7335590092238916,-0.029136185076127,-0.004075240181074813,9.455468368596717,33.572113,-4.191552225984802,2.6261989749090935,47.25418775044042,42.423507899739725,-15.49703810594049,2.4544060000000005,31.449999999999985,1
0.6068346036805164,-0.05646301170487633,-0.7340561314338261,0.06990245032057485,-0.0039904335067182176,9.454416040422794,33.571533,-4.176686966137389,1.8019858293773674,46.85632702354923,43.419965544970374,-9.914919648214134,2.445454,31.44999999999998,1
0.6075864854965217,-0.05774195831424155,-0.73123912229273,-0.002643472719143484,-0.0036530872247861235,9.46211710037826,33.56984,-3.6426722082703633,1.8211723821741372,47.07187249581603,42.93697966744936,72.19268983920266,2.4416169999999995,31.449999999999974,1
0.6038999160523734,-0.05607669554071009,-0.7358840327854903,-0.07080620028341368,-0.004317574622885518,9.459454447348568,33.572227,-2.5150875996874316,2.4113553408840924,46.771619055003846,43.72940309171953,6.4194928904165796,2.4339429999999984,31.45,1
0.6057987620340832,-0.05610182987095674,-0.733981076959318,0.019299325804885786,-0.003938416887102669,9.450796241436619,33.569683,-1.0858222700446734,2.3867071346216244,47.1892270722753,43.08056446400143,-42.463943841272624,2.426269999999999,31.45000000000003,1
0.6038810532413171,-0.05504704143861719,-0.7355333039736757,0.07918793883923052,-0.004384862812857342,9.44993004931496,33.57375,0.4271201307822021,3.920837202185912,46.82954292116319,43.283919588877986,41.368938570786554,2.421154000000003,31.45000000000003,1
0.603980155083372,-0.05568162266381085,-0.734546479501534,0.002001928572296619,-0.00440307661798528,9.453505299665169,33.56752,2.0610255193963543,3.1404915717204105,47.096025240544115,43.10576524020848,49.174891541285405,2.4160380000000004,31.45,1
0.6024282632324328,-0.056824460760557735,-0.7370810036017619,-0.053849218340932134,-0.003533572514587715,9.443810571072277,33.570263,3.470971137439337,3.2227180091103356,46.748682178050586,43.20036602504767,-4.576593107311117,2.398132999999998,31.449999999999978,1
0.6043474248489057,-0.05554998165549016,-0.7345239064506958,0.04254044222306503,-0.0035878039602412893,9.433956280952156,33.569435,4.414330972056805,3.1337795757553937,47.21535124123967,43.103537439185565,-2.798524174526832,2.401970000000001,31.449999999999957,1
0.6022258426666003,-0.0568438662870131,-0.7365848076426172,0.0575878492198881,-0.003595861386787167,9.437628421459175,33.570587,4.887105764459925,2.88370750447639,46.78624599092569,43.31473191855773,37.503108601183115,2.398132999999997,31.470000000000002,1
0.6003124476801632,-0.05598264652875131,-0.7393357025096572,-0.05044122311506422,-0.0043724616352319775,9.436737560476558,33.5709,5.156970715536629,3.5306841131013713,47.28501599060449,42.95043713475383,8.284406046185897,2.393017000000005,31.470000000000056,1
0.5926330579226293,-0.057749337458453516,-0.7448570147605807,-0.04571620527170095,-0.003972954303726507,9.419817547771126,33.571087,5.266974744768565,1.9764529914951572,46.71564199958916,43.53366765769937,-26.436358763698948,2.3904590000000034,31.470000000000038,1
0.5987244481315129,-0.058564200860811315,-0.7370347994155886,0.07563780491333459,-0.004335798971555184,9.411892769340758,33.57195,5.0567541671083855,0.7124365773858671,45.52306351522632,46.307913962097906,-8.656301593299162,2.387901000000002,31.46999999999999,1
0.6059127601319457,-0.050599072306370056,-0.7347644372430282,-0.009012378266548188,-0.004421387145047923,9.418543341729762,33.57223,4.432868132242761,4.576036158923215,51.32705086637583,35.7763799056589,25.96902329555284,2.385342999999996,31.46999999999997,1
0.6050771600785967,-0.055842710296164395,-0.7324802486221935,-0.09603507918873187,-0.004053294620369442,9.411787134257,33.57105,3.104214840845041,3.9880060351241022,53.23564532898816,32.72296256319565,-8.538502417556693,2.3904589999999994,31.47000000000001,1
0.60957951646858,-0.052877733955639425,-0.7305389370433271,0.004772880738199869,-0.003926685779733955,9.399015040734124,33.571095,1.2468690206677622,3.774359673853451,42.98301232131078,49.168850318682836,-23.302149209882142,2.3840639999999995,31.470000000000024,1
0.6150563934730839,-0.05508963207057038,-0.7254122846345,0.07068244955303915,-0.0038774668313900505,9.40407209300775,33.57416,-0.48700071997396727,3.370655838722526,45.0581148332118,45.8202828514982,25.627077985462396,2.375112000000002,31.469999999999978,1
0.6126906513769533,-0.05592169828833834,-0.7284454213771926,-0.07088394597651203,-0.004546010836617154,9.406507491064508,33.574116,-1.7816483864495392,4.050489174457824,44.66149731687837,44.87145455415953,24.224835151028426,2.3699959999999987,31.470000000000002,1
0.6134455899585535,-0.056201538710804,-0.7272532743019828,-0.03192439827968431,-0.004156758853401754,9.389792686625002,33.571384,-2.4244149503006174,3.8958799512323514,45.476567933919235,44.68765934086156,-53.34768964864452,2.3648799999999994,31.46999999999997,1
0.6089112627656063,-0.05289226842448705,-0.7297894925512155,0.07254425032291666,-0.0038087363925058985,9.38238762176765,33.57357,-2.268606429945795,2.6667371075284825,44.51893530227101,45.438509261068184,-40.35909827696835,2.362322000000002,31.469999999999995,1
0.6104619156976916,-0.053614752890418636,-0.7284797949132433,0.04580389511244135,-0.004328211062178153,9.384578086764057,33.57267,-1.471716269159722,1.0709205780982591,44.92522692209218,45.603895991778224,29.820159553017234,2.3572070000000034,31.470000000000045,1
0.6059724824638475,-0.05528513557669917,-0.7341333230687572,-0.07396218104720037,-0.00403462387141963,9.378997172551424,33.57609,-0.33523336627550077,0.3020860973470621,44.375827268093325,45.49990404135696,7.573936293390061,2.3508120000000003,31.490000000000027,1
0.606327048846355,-0.0538852232028241,-0.7322587864180067,0.020813791125815842,-0.004179218361099007,9.36246200892382,33.57361,0.48185288430639955,0.007057524763362557,44.70651574459161,45.53325978124006,-34.49579609302667,2.3482539999999963,31.489999999999988,1
0.6053137529480215,-0.05313103793151222,-0.7337136673248853,0.07752585938297946,-0.003821445610948074,9.364329535964321,33.574684,0.9429026173757272,0.9365102485065453,44.56255065111534,45.64791501234781,8.735577093067876,2.3444170000000004,31.489999999999977,1
0.6025532369525733,-0.05590902563607805,-0.7337443571859497,-0.022342527347057883,-0.003764825378719558,9.36588678264594,33.57802,1.2666027680897942,-1.6864493891527124,45.12064938981792,44.87146678341573,37.111478858255275,2.3418589999999937,31.489999999999952,1
0.606190568510205,-0.05554499417231945,-0.7334294959444154,-0.08049454930783868,-0.003779613551351316,9.357510104495017,33.57465,1.490413579006179,-0.3330874237771579,44.716187374550096,45.549943195996846,-0.11220525124239987,2.336744000000004,31.490000000000016,1
0.6137294993943684,-0.05442507932948782,-0.7257594116906428,0.05865595631028966,-0.0038805550029982956,9.351618267302866,33.5774,1.1840050760993897,-2.25203406198572,44.10069944487708,46.427321058389836,-17.12158530424626,2.3341860000000016,31.490000000000027,1
0.6175997286143979,-0.05422003085319532,-0.72170849718974,0.039630333590724785,-0.0042171579872585675,9.363994640567055,33.577255,0.3502376930704545,0.09270071060958349,44.346420571227114,46.06585256995518,20.27393312117871,2.3226750000000003,31.49,1
0.6182695897705583,-0.04686869134342175,-0.721390488725822,-0.05637933537262016,-0.004021085611781968,9.36375489941225,33.580276,-0.632033703032076,-2.5145284646885484,47.8515119057096,42.3499892592923,-0.4068088448816613,2.3393010000000007,31.490000000000027,1
0.6183904299769668,-0.05174480002676421,-0.7221290769720146,-0.036005921995442,-0.0038621472462370423,9.353222697176927,33.57702,-1.6844263131729504,-2.2063664011781317,49.106619869109316,39.775559025760884,-23.57801384361508,2.3405800000000005,31.510000000000016,1
0.6219393622369385,-0.05080842318379467,-0.717997621363419,0.07920528788240308,-0.004149299598796232,9.348798865839335,33.575356,-2.4196277177656973,-3.634338448550851,49.73811434625973,40.54580303656457,22.249266578063605,2.3418590000000004,31.509999999999984,1
0.6198991537941441,-0.04968855814268164,-0.7193672659735351,0.010620774908373092,-0.004072651769064647,9.358951928705807,33.5761,-2.8042488672416304,-1.8982765367311434,48.28582308435001,40.86487321798962,90.60962832656128,2.3354639999999995,31.50999999999998,1
0.6245662646741058,-0.05167291218349134,-0.7154844135881512,-0.07332146908824988,-0.003712976329482591,9.356011991699111,33.575165,-2.8113196938676457,-6.691410447507364,50.352929260915,39.75669675733202,-41.750007900532516,2.3329069999999987,31.510000000000034,1
0.6231381903216856,-0.04533930805177439,-0.7122626071091197,-0.0057550014179286145,-0.004528946391045321,9.347016193562292,33.57577,-2.846030473645403,-2.582348059606128,37.79748522540094,36.10124743969678,-83.71641171042982,2.3290700000000015,31.490000000000027,1
0.6227937077301622,-0.04845955011124271,-0.7185728510514567,0.07563653794895493,-0.0041253333868256446,9.346777400910737,33.577076,-2.779242993220962,33.81286548861938,6.517389767549785,60.079467681244594,6.375336595739419,2.3290700000000024,31.489999999999995,1
0.6251293289383023,-0.07288886670468046,-0.7187943543205179,0.024510592824411072,-0.004185454585120726,9.368878347997837,33.575226,-2.522050628771284,23.479770272696914,0.9206096505849298,66.66035574024781,23.982081350442378,2.3418589999999964,31.489999999999995,1
0.6160597939314572,-0.05494389370863944,-0.7224999181356108,-0.0853433396191848,-0.003268103264877825,9.369735578591381,33.577553,-2.8997506465636986,29.598277122748073,0.09331565982275572,55.413395190096296,-26.677601398667967,2.346975000000005,31.490000000000066,1
0.6266663067939583,-0.051140124657077936,-0.7157648127638508,0.01660601590545199,-0.0031514458398550155,9.360164237137846,33.580807,-3.1779339041536083,23.579379392252555,3.5417940988731837,57.5958311786686,-29.474367474458205,2.353370000000001,31.490000000000006,1
0.6186201107992625,-0.053260811683988496,-0.7202417350983563,0.068255527626462,-0.004263877608293214,9.365838686757723,33.576466,-2.7128746688280647,10.047251573253334,2.623570954512041,60.63580317652359,-81.60214956756592,2.3482540000000007,31.48999999999999,1
0.6222611524450148,-0.06099332734671591,-0.7178495879172354,-0.015847503899690207,-0.004260405317771845,9.375254086966285,33.576332,-1.8447774162043307,8.907966013866414,-2.1499236724666457,62.94245339055954,24.77315436898851,2.359765000000004,31.490000000000016,1
0.6181110830310241,-0.05535958037022224,-0.72160189736056,-0.08308242567640686,-0.0038292069601138516,9.366814834614184,33.57394,-0.9043473644688138,10.695459629347358,-1.213474366528957,61.554195788187855,143.28955117280586,2.3597649999999963,31.48999999999995,1
0.6205615450621277,-0.05777263043411593,-0.7177680654110183,0.0686751231223752,-0.003726572109527936,9.360480903210966,33.58205,-0.32410108337867416,8.873157448910334,-0.7563800563168636,62.45271453322841,-51.96979503257024,2.371275000000001,31.509999999999977,1
0.61336634170399,-0.05081287349331218,-0.7260523427562645,0.025828126822540657,-0.004520634913823861,9.371688849415362,33.575356,-0.0586856435464645,8.36163766001343,-3.4915275702170097,61.623757541754436,-98.57824876136293,2.396854000000005,31.51000000000003,1
0.6124399480117575,-0.04986093235398604,-0.729754006276546,-0.07334251652842154,-0.003958514946138004,9.370635065615298,33.58242,-0.07700993527464024,8.485213989116003,-1.9625593885503267,63.06048837315255,-15.135007241456474,2.427548,31.509999999999987,1
0.6170478292302383,-0.041920188574398345,-0.722011953526392,0.010096221306698348,-0.0035306385992213986,9.36199449492333,33.579243,-0.3985465235343746,7.4911250510802585,-1.666055414648171,62.49473176642676,43.17096451341125,2.4262699999999997,31.51000000000002,1
0.6176215674026178,-0.0453793349652573,-0.7232857829182864,0.07089395147607867,-0.004116261119613652,9.367877993754801,33.582336,0.1338294173449871,4.337207503599954,0.9768601594407847,63.66063535764078,15.348857587164424,2.414759000000001,31.510000000000016,1
0.6158705558672602,-0.05040605887547593,-0.7241198639083003,-0.07460828210568765,-0.004285563012666586,9.36970006785943,33.580223,1.647489951085353,-1.4903898242231766,-6.14064594729579,62.46790278261133,28.871454847698736,2.403248999999994,31.509999999999973,1
0.6225170096439737,-0.03218202924174956,-0.7143851227133381,0.003250358462952174,-0.003432084792191848,9.351717149351657,33.58234,3.1739571462994314,27.57697699044124,-4.88184075283758,52.467769373073914,17.25170398912278,2.3866220000000014,31.51000000000002,1
0.6229155219740081,-0.04759351273318114,-0.7149397385925824,0.06335085820703702,-0.004118632331024582,9.351812732263522,33.584866,4.430519376742593,60.25890314647165,6.631341924805621,25.899072151378952,25.925294924732206,2.3699959999999995,31.510000000000034,1
0.6243532030790834,-0.06392015040650659,-0.7181537897529875,-0.04826723883593988,-0.003852358638256695,9.352020616809373,33.582825,4.946237778698333,73.0024942095283,16.385726955799104,35.476683316761125,52.27683998216941,2.3802279999999976,31.48999999999999,1
0.6124309649226539,-0.08182733161597727,-0.7232161059568921,-0.024413082833373463,-0.004306065366455022,9.339163088813889,33.584526,4.481195566892298,19.30799563931821,29.699575343517438,33.893814374834754,5.400464291056528,2.385343000000001,31.49000000000002,1
0.6132373236158611,-0.06662661343876823,-0.724983014765117,0.08430027034516088,-0.004100443175026793,9.344415173347528,33.58556,2.820175974411526,-4.458620501465765,42.11292591500478,40.637944520818465,-83.49158693844576,2.393017000000002,31.49000000000002,1
0.6247261041962745,-0.05327352648143334,-0.72121528838013,-0.07224579250644389,-0.004266334615325983,9.352751721234869,33.590305,1.0578755272295368,19.23531811468266,54.56267786705446,34.34616175768315,65.7948937407501,2.403249000000003,31.49000000000001,1
0.6165428751870039,-0.05060446116970578,-0.7223717716856988,-0.0037993551801735175,-0.0038898978972365184,9.343379321999896,33.58667,-0.3546030818322809,11.614922567687824,50.333525448336026,33.102074393334085,64.30733641443676,2.3802280000000016,31.51000000000002,1
0.6220756707400394,-0.05770762650975463,-0.722082451856025,0.07753393384568177,-0.003379291590556949,9.348882052983587,33.585358,-1.2518298831298926,13.006607161062881,44.9320521503024,28.886451413514393,-78.80539352185896,2.3751120000000014,31.50999999999998,1
0.6124870043115422,-0.054474542039331664,-0.7270397457394212,-0.049231285950340965,-0.0037067202695606973,9.354706721220682,33.588066,-1.4432538371156471,20.02225643623495,3.750598135442466,59.57134123529919,-6.502140853486144,2.330348999999996,31.50999999999998,1
0.6322902576881514,-0.05810148703425715,-0.7116329528542215,-0.026895338728564085,-0.0037656530973236946,9.341723484605836,33.5933,-1.4165905128855503,43.25965626403717,-12.290268553376034,48.791241092561016,111.14472505293553,2.3994119999999994,31.510000000000012,1
0.6080403964340005,-0.054732298795262264,-0.7282168620329752,0.0986967578769457,-0.003895299153793706,9.340194033650414,33.589558,-0.7694867829724624,59.695234748362104,-13.163575465319063,28.036701104917245,-124.60182433472293,2.454406000000001,31.530000000000015,1
0.61779676228396,-0.06723136300669177,-0.7211738595435184,-0.027679597614019284,-0.0038809432076017457,9.343978388347763,33.58983,0.7049882278107342,39.5307429487311,-15.868848280951449,43.17967757281618,-27.037184159503763,2.5285849999999983,31.53000000000003,1
0.6102978617951635,-0.06467544819426997,-0.7280863209832504,-0.038543949575437636,-0.004168767923940635,9.329608967523434,33.588104,2.640722157085084,42.44912936192342,-19.70549982885929,42.889794018367176,-164.62666168779572,2.5669529999999967,31.529999999999998,1
0.617232400008696,-0.05777456876033112,-0.7213753179045356,0.0788362124142441,-0.003982628243300003,9.321876134854177,33.589706,3.7450277038012123,32.55389873920135,-18.53784796403129,50.286623829522014,54.919980365919244,2.573347999999998,31.530000000000022,1
0.6178052518457355,-0.06704419516764129,-0.722773452390704,-0.011191990063574008,-0.003782322586542337,9.32995575953163,33.590347,3.804294279184381,31.006831617877324,-18.431520320507676,49.93224898638991,164.79175569854448,2.629622,31.530000000000015,1
0.6223180916528395,-0.058368068175897736,-0.7184256724733364,-0.07355227146269568,-0.003847831225663548,9.32199847377067,33.592976,3.087772470763689,30.208563028241514,-16.738604250048105,52.07032285321521,-222.26922478662524,2.648805999999999,31.52999999999998,1
0.6216998063817959,-0.06499679962035582,-0.7195470242983505,0.04812961608010676,-0.0037337840086954736,9.315559365393224,33.592083,1.9367054990226056,26.50269144777376,-19.42548942190557,50.13053271037188,-41.48291065582886,2.6539220000000014,31.530000000000015,1
0.620383215287352,-0.07052349265962482,-0.7149415363518088,0.03153141557394391,-0.003777042632213347,9.324340589159165,33.591713,0.6393194815837087,33.853103887297166,-27.602861994624124,53.34522296015984,84.41691842992883,2.592531999999996,31.52999999999998,1
0.6278605726802808,-0.0490042054808222,-0.7161243799711254,-0.08250703147725195,-0.004105004066881564,9.324342491933045,33.592693,-0.6421972159687931,53.061542200628885,-6.048868183636593,25.04486840928069,116.07492510261396,2.656479000000002,31.50999999999999,1
0.6236499988618844,-0.08355402907182698,-0.7163809765185439,-0.010394163092185346,-0.0038896629774061997,9.312403124186966,33.5875,-1.8407425553108152,59.97432697641133,3.822483586633586,17.061640874221915,55.00966387805313,2.6398529999999987,31.50999999999999,1
0.6106500622765022,-0.03925410556472382,-0.727784295529001,0.08260185212111133,-0.003952897554415329,9.314040423680922,33.591385,-2.410937830269439,50.0055102744167,-2.4441127712772133,39.65500555801047,36.88953012147308,2.612995000000004,31.509999999999987,1
0.6060592940178369,-0.05632755322788873,-0.7355916808661602,-0.04986711384433654,-0.003967058095593757,9.320849241301637,33.589275,-2.7051117275945606,43.59058876082257,-2.8714990441787283,44.27062792889584,12.610239527151668,2.5030060000000023,31.50999999999999,1
0.6030399596862482,-0.05031030359272038,-0.7372643052009327,-0.06822269860740451,-0.004015747179876004,9.30784445331876,33.591805,-3.2984675236434136,43.14194247308562,-2.27089162574961,46.45987805413275,4.885835195280847,2.488938,31.51000000000001,1
0.6078940642286466,-0.04960349611393389,-0.7312234160854256,0.0550932675112411,-0.00431898334121849,9.298542934317167,33.587086,-3.2939682153433933,42.251939081817,-3.4669042484049077,45.98760254325669,-59.934510559145856,2.4812640000000026,31.510000000000034,1
0.6044595524575711,-0.049618506107864634,-0.734350268770253,0.061631865949576356,-0.003827008476923784,9.305060310946793,33.585533,-1.9668936012519858,42.57895214424801,-2.644232200930189,46.53780904640113,0.620803323114432,2.479985000000001,31.50999999999998,1
0.6030795431905661,-0.04990650246686178,-0.7352605215889685,-0.07587080448264459,-0.004012031029263115,9.303144634264267,33.586636,-0.17664010305182531,42.59443451372109,-3.0676147090210013,45.95702474154283,-8.44053416228614,2.472311000000002,31.510000000000026,1
0.6013285566689838,-0.050889220295020174,-0.7363493637818486,0.0073724609342383715,-0.004257865581844034,9.287575533560615,33.588352,1.4720483059406473,42.48671500796687,-2.7111280518775227,46.38449850903213,-36.03475720873111,2.4659170000000032,31.529999999999962,1
0.6043422928261483,-0.05091009599805942,-0.7329082827248533,0.09180617162462819,-0.004173576853154631,9.288017872204502,33.58999,2.6875537894034083,42.68889233566882,-3.104753650922985,45.68315894783335,-18.73992171207254,2.462079999999998,31.529999999999987,1
0.6036603836982678,-0.0504880468544014,-0.7359049058452743,-0.017904732185254492,-0.004503067464617172,9.294390842490982,33.588505,3.245359206969136,41.882549792439676,-2.6565730845761086,47.11702469093017,28.169685580366792,2.4556849999999986,31.52999999999999,1
0.6080153450353631,-0.05016147601803557,-0.7309195750399088,-0.06295170771248065,-0.003859860588770576,9.283964065741747,33.588276,2.797681307761208,47.299795745122296,-1.4210288638655868,40.71122700911803,-6.334354838738782,2.454406,31.53000000000003,1
0.6090026554898191,-0.04803313419585269,-0.7320020091622585,0.04991726850666888,-0.003949740990010317,9.279333086704126,33.58779,1.5675670094461274,56.754627256505685,3.0434923283664075,28.523318650744,-6.236404826482158,2.454406000000003,31.549999999999983,1
0.6097051397653254,-0.0447319310487088,-0.7291133264883268,0.010488582355458768,-0.004106202134347121,9.289726987482062,33.58896,0.19631529172694195,55.93815926879906,2.359401870715711,27.848338052006234,16.229031475846497,2.459522000000005,31.549999999999997,1
0.6083152070792088,-0.04594615146148984,-0.731291162647182,-0.08057925921171416,-0.00394500186214553,9.286273001520492,33.586987,-0.8675804356498892,56.88402082621565,2.177919593506881,28.472221502598046,31.611475513736593,2.440338000000001,31.55000000000003,1
0.6108045996710482,-0.04687479481076332,-0.7283250502081207,0.0053274912921219015,-0.0038993938624419856,9.275140579921977,33.587864,-1.7364472121506889,55.761057561418355,2.1423005478654407,28.39403304318766,-4.234683888707159,2.4428960000000015,31.550000000000026,1
0.6098903305167924,-0.04259549007036193,-0.728713979624534,0.08148454419340972,-0.00396133208410663,9.279317156517758,33.585106,-2.278195530255972,55.98203147179196,2.098828795733034,29.471033675641443,-2.476188901625063,2.432664000000002,31.530000000000005,1
0.6111016934509729,-0.04666655664773662,-0.7279028269358521,-0.03938147596394258,-0.004048980544382367,9.286944854506586,33.587093,-2.335145527076531,56.903798490209006,2.79542432656456,27.24272820964112,-0.6311678078250291,2.432663999999999,31.529999999999998,1
0.6107774479763638,-0.04365945772340148,-0.7307516331167088,-0.05941537416605095,-0.0041925584234334505,9.27665852328812,33.587498,-1.9790575774482562,56.05960399324866,4.23027451473216,29.100264249098455,-35.775035724577194,2.4262699999999975,31.52999999999996,1
0.6102735835065711,-0.038862653507311974,-0.7280795959326638,0.04760926083569936,-0.004025608722122293,9.270022697442965,33.584435,-1.6899682436885979,54.62422250003756,4.731923756743314,29.93797517949483,-29.48427318466938,2.4160380000000026,31.52999999999999,1
0.6100847002552477,-0.04497158163298969,-0.7294757446102214,0.049135192010715485,-0.0041910463797368,9.275099002353436,33.58271,-1.3399075586698783,55.771635007369284,3.9505556955583256,30.712584629157547,20.60197525243387,2.4109219999999993,31.549999999999976,1
0.6063950848780839,-0.040515784015293474,-0.7314378896234053,-0.07077962100695342,-0.0037974895263144085,9.270613358879103,33.582344,-0.3237831288898055,54.6776691294778,3.856409881778002,30.072762280882866,9.910704495999799,2.4070849999999973,31.549999999999972,1
0.6057039753592313,-0.04013789456509285,-0.7322505474238709,-0.0067016431679392295,-0.0042831306540891505,9.256487987535209,33.582897,1.0172878648886112,55.18850829446406,3.0437378571535714,31.218774495777044,-17.479007824499252,2.391738000000005,31.55,1
0.6054680974058403,-0.041965380875323324,-0.7292602190485049,0.07625311811128314,-0.003999428638509207,9.254716434421868,33.58229,2.05950296637919,55.49476955279323,3.674953577470535,29.50812857177969,11.10534194410966,2.395574999999998,31.55,1
0.6058660154158292,-0.04417127451348911,-0.7331816741641239,-0.009174199542486135,-0.003983176701910174,9.257655740694904,33.582657,2.8155294811024114,55.582560725967866,3.826947308978263,30.18025154730761,20.76465760204712,2.395574999999998,31.549999999999947,1
0.6067915553010474,-0.03871925167331005,-0.732652141869046,-0.06838567203162171,-0.004016947791923787,9.247866837266454,33.58259,2.6452765072479703,56.21420789127621,4.44445426731679,28.43792796616928,-7.618543866688873,2.3879009999999923,31.549999999999983,1
0.6093505545870117,-0.04360428005669147,-0.7299423484691563,0.05385920940714957,-0.003874155246064579,9.240733919282114,33.58173,1.577517336467185,56.22649460050089,3.68399268635148,29.889225451121476,-8.069673094397952,2.385343000000001,31.550000000000026,1
0.609866738297623,-0.036678482020772854,-0.7281954959600315,0.03891307332820974,-0.004111991868183219,9.249935379439442,33.578533,0.30369414219467994,57.919926681163375,5.7085556722877095,25.394751584090066,8.612314533147696,2.3789490000000004,31.550000000000004,1
0.6076074170350201,-0.043165787898156074,-0.7322851191343445,-0.07636207565445442,-0.004106346671943431,9.249164400264021,33.581867,-0.6565578386177677,54.3250330079896,5.398702090356148,30.92769601206211,-10.076066323852485,2.378949000000001,31.549999999999976,1
0.6059533135584326,-0.028261864333949654,-0.7319558794198366,-0.020062168009164695,-0.004165175816216544,9.238105599613974,33.582058,-1.4182312615048913,50.18714790376101,4.97192320768327,35.24962878259775,-8.62619612112069,2.3699960000000004,31.55000000000006,1
0.614867007688224,-0.02887302833288854,-0.7276294212426989,0.08766527085460282,-0.0042510749806705175,9.240253558147351,33.57679,-1.9884233872069785,53.45344319682598,2.0519417513700606,36.0941326479002,2.3910915761897864,2.369996000000001,31.55000000000001,1
0.6092114762154605,-0.033269621708819676,-0.7301221399184957,-0.011701773532336967,-0.004053029297880218,9.24970834292128,33.57873,-2.06680335094994,51.07029107294924,2.366198147046386,37.03943221772577,31.33644761093775,2.3725540000000063,31.55000000000003,1
0.6104352498817613,-0.03254476012105448,-0.7298220063258762,-0.05169079270567879,-0.0038349709826979604,9.242742008168795,33.57761,-1.2145005770166264,55.64336116201338,6.085081832329249,34.62774054429678,-15.628075439921245,2.3687170000000006,31.55000000000003,1
0.6074815747033342,-0.05371490452733045,-0.7321525918960461,0.05769366457025083,-0.003955590023278556,9.236050553640945,33.579853,0.35286804825554346,56.96255350803116,16.490784533993278,15.900405070922558,-18.733668208779104,2.3610429999999996,31.549999999999997,1
0.6028598427004292,-0.05092694333029519,-0.7304318845134,0.04861140263483913,-0.003982226369605999,9.240497076784475,33.57704,2.2368974839782556,57.41350046818567,1.34473940638637,19.606840997444724,54.87435582531824,2.376390999999999,31.549999999999986,1
0.6019889888984878,-0.007714243905279371,-0.7333255481643153,-0.08224389817313368,-0.004078750638699217,9.23440124480876,33.574047,3.8294998389922097,60.40314901753586,3.2696986246213755,21.164444732283155,7.575100528152331,2.405807,31.54999999999996,1
0.6025467797956776,-0.021954278427333163,-0.7369664505852945,0.009053305308122778,-0.004243077716939589,9.219782826052864,33.57703,4.459848268088401,61.120679016521606,11.586234878226419,-4.66021203842465,-32.90025246783054,2.389180000000001,31.57000000000001,1
0.6014379786770705,-0.027414056298961553,-0.7338882630506925,0.08438730178346408,-0.004001701131837111,9.220438265122166,33.576817,3.6215930267410386,63.13812637320895,10.358107761159465,-14.828202107504397,6.846923144155171,2.385343,31.570000000000025,1
0.6032650815773319,-0.04806577729741764,-0.7367635317794627,-0.051376488142976066,-0.004227706062046873,9.224260548861755,33.57521,2.217629599113727,59.640682636210045,12.45753250394709,-20.55535453063135,43.45137385708932,2.377669999999994,31.56999999999999,1
0.6131094617365362,-0.04341358165004928,-0.7293785942155685,-0.04036235338633088,-0.004025689946645679,9.219383797583076,33.575775,0.25944058547639837,58.579957900900204,10.931862387881413,-17.917426024784195,23.70488987274929,2.372554000000003,31.570000000000025,1
0.6050638793271672,-0.03980436174563603,-0.7339930324494544,0.060045153919914294,-0.0037344578913757814,9.221147595533454,33.575043,-1.8708790502456238,60.17053150761989,12.158508973334598,-18.55817726317744,1.098640637576787,2.3584850000000004,31.57000000000001,1
0.6107117877982099,-0.042144144994064145,-0.7279133987250377,0.007682392492544363,-0.004012398127562901,9.231269567538371,33.578014,-3.186586713249511,58.90490111197055,11.547420446316698,-17.748342635912216,16.80584315718971,2.359765000000001,31.570000000000018,1
0.6056645284254544,-0.042188490437968934,-0.7340944387780545,-0.06845591743058425,-0.0042053243766976365,9.227705255140354,33.57681,-3.5631805940657135,59.910874725516834,12.179181963454422,-18.92831445641846,23.720220046473212,2.3533700000000013,31.56999999999999,1
0.6124573778144852,-0.0401142481009803,-0.7282575805158034,0.02023931545374603,-0.003873497212311691,9.21863151317598,33.575806,-3.4239823316399516,58.616855519453885,11.480256888492002,-17.699270268627885,-96.14380733966595,2.346975000000002,31.569999999999993,1
0.6105698096161544,-0.04422694691413325,-0.7278088024758389,0.07146814291408599,-0.0040977250905557495,9.222013193718354,33.57429,-2.774182967204123,59.783684542037335,12.045885493315314,-18.716908197787117,-9.52758228887969,2.344416999999997,31.57000000000001,1
0.6110455317107333,-0.04347565771764326,-0.727701605054821,-0.03344380396518623,-0.004065595913841465,9.22451949652504,33.57694,-1.2973313343104318,58.70057482731691,11.669952055524739,-18.259861666939297,-2.9350533514171975,2.336744000000002,31.570000000000018,1
0.6065789528354717,-0.04421557884296413,-0.7324296536921255,-0.06080232905159513,-0.003762664364483791,9.21144825884215,33.573288,0.47207876223625306,59.52888947680011,12.152466951113665,-19.597499802321774,-27.855298504788898,2.332907000000005,31.570000000000014,1
0.6085511087018092,-0.04561987453213365,-0.7269370888047764,0.06092145393242255,-0.00430418594598983,9.20221335945178,33.57455,2.0386944208203923,58.26849424240713,11.834939727521341,-19.115935711379937,-21.354130919628354,2.3303489999999987,31.57000000000002,1
0.6092830664441619,-0.04665533881961388,-0.729590115419851,0.024757308110592874,-0.004211332241493925,9.20507995398915,33.57438,3.120400221813057,59.43853694581795,12.149939792683618,-20.25613247005235,22.176733175184463,2.322675000000004,31.59000000000001,1
0.612402763373296,-0.045369475156229105,-0.7271102048323952,-0.08008150467391274,-0.0039066542371900175,9.198378053555581,33.575264,3.187371090022361,58.500984556777794,11.870468788588978,-19.29498102887244,14.934837983334301,2.3150009999999974,31.590000000000025,1
0.6109613895472806,-0.04629708418154371,-0.7303686842684478,-0.0025534641366582117,-0.004209681096233268,9.186866507126153,33.574097,2.0746517924235577,59.242857389270974,12.10559524087338,-20.626359731118935,25.989375892231653,2.3150010000000028,31.590000000000003,1
0.6129709028828008,-0.045259693823715974,-0.7270014075751359,0.06037426538859556,-0.003927449810816088,9.187260457617818,33.574078,0.34127092563154526,58.385996986524624,11.923670257100285,-19.78087381041122,21.747772294928136,2.309886000000001,31.590000000000007,1
0.6086268366514814,-0.04589338648429361,-0.7308504952802671,-0.0383656324239834,-0.003970831161612143,9.190945067375678,33.573402,-1.3643415465552193,59.53895213112528,12.034402899695,-19.979207474889186,6.320706367044321,2.3124430000000022,31.569999999999975,1
0.6109288689017733,-0.04587320890612983,-0.7286007568752622,-0.049876680698726,-0.003777937555791557,9.181109777518202,33.572712,-2.338964786868978,58.28254900025645,12.077453210689926,-19.451292498216475,-69.53827953859594,2.3060490000000016,31.569999999999986,1
0.6097853565687925,-0.04635661298004511,-0.7298898842507555,0.05741517576684244,-0.0039447807864024746,9.174453051184576,33.57476,-2.775878964787876,59.27901052206214,12.285382531527292,-20.016211637709358,-6.248640003313602,2.306048999999994,31.569999999999983,1
0.6113676717319585,-0.045296754154476,-0.7272067174310309,0.04841309887002591,-0.004154127748828723,9.182227337057876,33.57482,-2.7793653690177864,58.09877700190929,12.051197756278452,-19.06287801138058,8.06299744282887,2.2958169999999996,31.570000000000018,1
0.6097274533459716,-0.04786409790618207,-0.7319901985110517,-0.06697117546586305,-0.004218258367843772,9.182562633492267,33.570076,-2.4858777116799446,60.012867509646725,11.934279380871077,-19.74962078119639,-46.56601692430894,2.2996540000000003,31.61000000000002,1
0.6096643452630667,-0.04653785011651952,-0.7291617559342984,-0.01816969112830363,-0.00364412408234533,9.17041531953771,33.570206,-1.7924785674395327,57.60782493057375,12.505239674887243,-18.985112779643895,-67.29159044924921,2.2996539999999985,31.60999999999999,1
0.6147261150892678,-0.04711067692070502,-0.7327909115019778,0.07078915975534861,-0.004357410285826054,9.169239488457695,33.570736,-0.5094689262851658,65.68540858368267,9.280698091475864,-15.68852334743347,38.74702105548485,2.2932590000000013,31.610000000000024,1
0.6214225885096023,-0.032317092862864535,-0.7164236024378756,-0.03609734095929348,-0.003735189861976052,9.172901625319605,33.572983,1.2737344979393839,64.33217334622857,9.032526834024198,-9.91280826747791,-3.378654052196053,2.291980999999998,31.610000000000007,1
0.5918395088246978,-0.009182706130443035,-0.7345279028278552,-0.10101836002914995,-0.0038299597403578097,9.15330405980255,33.56899,2.2759031489789274,50.32828072358496,11.745798496328348,-14.230931352550536,-0.15063695548714073,2.309886000000004,31.57000000000003,1
0.6130020479649388,-0.04817872116691035,-0.7281790697444955,0.09064026898870939,-0.004415397432332041,9.129803777649512,33.571247,2.2460576275558206,66.89402938423767,-0.4261630085939095,8.866996136574206,-72.12391767427532,2.331628000000002,31.569999999999986,1
0.6009932773213663,-0.06393539999835428,-0.7330974277415081,0.07070495049923398,-0.00393052089063176,9.131455459464865,33.56697,2.9731066349668422,61.828677041188584,-6.863890555634984,17.04868574214921,-9.368605855879952,2.3853430000000047,31.570000000000036,1
0.6006589145803372,-0.04493804511723003,-0.7366716014013004,-0.06559462936492409,-0.004239741675465276,9.121701964474774,33.567688,4.335059892263218,57.402104260488,-3.6284449392532614,24.283754446962455,-7.066225780730704,2.439059000000002,31.56999999999999,1
0.6108704114663143,-0.04473990286176029,-0.7304926435107743,0.04641023016935843,-0.0039137417680676625,9.10970974457343,33.56286,4.537474351019708,59.89856882058984,1.0026144000627015,20.019131678263204,-38.56960001839272,2.3891800000000036,31.590000000000032,1
0.61022731080259,-0.0505437270770659,-0.7286592055357087,0.03969234107098476,-0.004408890997751555,9.119821612380385,33.561913,3.026034806711613,59.665664176198646,0.9361407453722839,20.508106698320326,-26.049343382304155,2.359765000000001,31.590000000000014,1
0.5996742435407993,-0.05537961185543417,-0.7401716489391343,-0.09806139743256824,-0.004241188770242242,9.120474809172446,33.560665,0.9788011959002964,60.26632004688526,0.8542503628039622,19.599113459655214,134.9757763221453,2.346974999999999,31.590000000000025,1
0.6041129695945316,-0.04486525546882365,-0.7369134867475022,-0.0020394246924529255,-0.0038080543893286756,9.109918035410782,33.56479,-1.5763312737643485,59.02012962889371,-0.19558540236249217,21.68090949286863,128.70398815454607,2.340580000000002,31.59000000000001,1
0.6066442029886411,-0.04586804352081309,-0.730551953181459,0.06581988718055988,-0.004408292432305878,9.117007235195816,33.56496,-3.9604749544399307,60.10718773375198,0.9985555716159562,20.044545116411367,-51.49856933327017,2.338022000000002,31.60999999999999,1
0.6069971243224068,-0.03813231915128487,-0.7330566164542188,-0.062347134977161045,-0.004202780772729556,9.11859006729327,33.561516,-5.051582951478255,58.98843122658792,0.2735705256032002,21.468543670755018,-28.33664213141418,2.3316279999999976,31.609999999999996,1
0.6060596239949285,-0.05083024729167567,-0.7329727669205133,-0.029496974205941103,-0.0038134484341914073,9.104210231250464,33.562805,-5.006104977657461,60.15261541357943,1.122441101362551,19.780806760978013,-31.332835298733723,2.327791000000001,31.610000000000017,1
0.6083723988260902,-0.042235976576341004,-0.731461448215037,0.08420421021534027,-0.0042569744566825045,9.103561461359442,33.55597,-4.585336113463697,59.56176893892336,0.688202868195485,21.129149587869644,-20.09611272655643,2.320116999999998,31.609999999999996,1
0.606055076242472,-0.045035870563977724,-0.7342498196854612,0.0019300512818359278,-0.003940669718399788,9.112266396798423,33.5606,-4.033305612001877,60.698714966531476,1.8613826990704898,17.656182724220024,62.79130661180734,2.318838,31.569999999999993,1
0.6046620922694514,-0.04245346807981869,-0.734219825778546,-0.064906719680873,-0.004275800584958525,9.106662779621573,33.55586,-3.031905245747439,60.18523646939325,1.891912577030941,17.218183424521474,39.66151394361007,2.3137230000000026,31.57000000000002,1
0.6046238358820334,-0.04568313995212497,-0.7342783369925654,0.03928974526823529,-0.004285560579403382,9.097891034344425,33.560406,-1.6476626827609648,60.63742029831443,2.14935818762498,17.72374663941351,-23.88740160094097,2.315001000000002,31.569999999999986,1
0.6060270863204718,-0.042793838017196696,-0.7326127882848669,0.06065717512696341,-0.003791778619225995,9.101673169216424,33.56021,0.02338432558769003,59.78085672744521,1.82340058893299,18.450335987509074,31.81097877064219,2.307327999999999,31.56999999999997,1
0.6019536082453735,-0.04676586087074301,-0.7347843452180093,-0.04429985441264196,-0.0031793619872851125,9.10087876441938,33.558456,1.6801926627134798,60.24125347795489,2.2143234919677868,18.12178763185301,50.8330604108787,2.3047700000000026,31.59000000000006,1
0.6029305205728658,-0.04265733003240319,-0.7348248855080554,-0.03496506942884471,-0.0044941845665887326,9.088520534573325,33.556637,2.832798030105756,59.526607769216774,0.8480560336351439,19.91467105195471,1.7087034229113263,2.2945380000000024,31.590000000000014,1
0.6010071623672589,-0.04942474247111086,-0.7371017327269251,0.06291124153984391,-0.004143545456875718,9.081942812562124,33.55212,3.0582852212504643,60.27854092003928,0.7763523401782948,18.17661128160391,-18.586597351218664,2.294538000000001,31.59000000000002,1
0.6047737802608172,-0.04340858900610793,-0.734981728064797,0.0052466459038819835,-0.004471728043414398,9.087161610331998,33.55746,2.2836508438427394,60.76474719216197,1.0717884695358078,16.025498348368206,28.03061795184461,2.2907020000000027,31.589999999999993,1
0.6019625952598798,-0.04151752007779284,-0.7369449449576886,-0.0808706874522453,-0.0036382346531193535,9.080669972836679,33.558865,0.9330906543124384,60.46575055963716,1.0099104913922505,17.424117085025635,2.985257109874521,2.285585999999998,31.60999999999998,1
0.6054174472201855,-0.043065847596975224,-0.7342299105461796,-0.010013710667395858,-0.0037151242422805387,9.069224312013661,33.555397,-0.4460304144707615,60.777792493848324,0.97087317092302,17.210208689825183,-22.533819808306166,2.2830280000000003,31.610000000000007,1
0.6052267670889414,-0.041809954805711626,-0.7337913509344207,0.08182926895609524,-0.004278300291180586,9.071004364536126,33.55829,-1.2454562001870015,60.555399045566226,1.0272485394736985,17.673150861322153,5.5861074991410495,2.272796000000003,31.610000000000042,1
0.6050318413167751,-0.042613691426799744,-0.7336199596221088,0.009176931747745495,-0.003004170067745665,9.079852166936924,33.55827,-1.342089159435161,60.325607890247596,1.0630966281565084,17.772274419083995,24.57376264470702,2.266402000000002,31.61000000000002,1
0.6050685660419759,-0.041293101883415735,-0.7365870758226623,-0.05390034842497887,-0.003993129714411177,9.075525100085704,33.553818,-1.0582416635166825,60.348591499701534,1.0752592567207173,17.7006540648724,-29.762598282281562,2.266402000000003,31.610000000000046,1
0.6043876499857649,-0.04242039149120353,-0.7357527026695977,0.017864539130928486,-0.0035468960342182167,9.068127258929694,33.555813,-0.7723351208803126,60.26609538710638,1.0076917375910905,17.991221254818292,-28.052551950722005,2.2676810000000027,31.61000000000006,1
0.6027116751767753,-0.042508182288772504,-0.7365355790444151,0.070895255079994,-0.0038283363579739863,9.071468614603258,33.557415,-0.24093392121934742,60.27823879886039,1.4402930019579414,17.899964334565247,15.613430349638824,2.2600070000000034,31.61000000000004,1
0.6008147117468372,-0.04345696101474746,-0.7367417871951085,-0.017003962043051383,-0.004191430003520517,9.077469275135226,33.555355,0.8114069804582413,60.24815344816379,0.8134834257776113,18.13555794579994,5.55341422320313,2.2574490000000007,31.610000000000046,1
0.5984238384601026,-0.043051784885137466,-0.7374614624600039,-0.06538218101639917,-0.003911723676804735,9.069378080620345,33.555927,2.068732234020594,60.48268725226001,1.3113740372002638,17.86103021387488,-23.37656927806082,2.2536119999999977,31.59,1
0.603590100974174,-0.0435221503667266,-0.7351372600129691,0.03459107337078403,-0.004038988645895435,9.060046083957515,33.55671,3.192543019536634,60.04976339001281,1.04079478156714,18.143215934357276,-8.028980002243753,2.2497749999999983,31.590000000000032,1
0.603283533637268,-0.04329098562716301,-0.7356164922582915,0.05208521677005126,-0.00424590052226987,9.064938509009098,33.55807,3.4820088907885234,60.348386580806064,1.1765386737411327,17.85010511822932,19.004176440164937,2.2472170000000014,31.589999999999996,1
0.6059068276624986,-0.04287061373795428,-0.7327614801881435,-0.06474528201769855,-0.0037638307639415195,9.065313550265643,33.554176,2.6942218708343293,60.20521873944882,1.1476634042903164,18.162590066707644,1.7951339838055338,2.240823,31.58999999999998,1
0.6054319337189007,-0.044095779247949274,-0.7332502490750874,-0.047932256172561145,-0.0039824475597375385,9.052870923763674,33.551014,1.542584303908488,60.332475907095166,1.0841222340186538,17.784542090215666,-15.883976907297207,2.238265,31.610000000000017,1
0.6088639736654947,-0.04353958067338746,-0.7309221434170826,0.04366442996064059,-0.00392685703062088,9.04563718746946,33.551537,0.4811172929791086,60.242569956516434,1.0642565912568376,18.01010693845734,5.467844467021513,2.2293120000000033,31.610000000000017,1
0.6064873665619249,-0.04160229898506694,-0.7325420635746767,0.03887322704242765,-0.003928699333037189,9.048636023245795,33.554703,-0.3026221155935381,60.543857269171355,1.3148028458406218,17.59697389985375,20.55246594845974,2.229312000000001,31.609999999999992,1
0.6086010668330465,-0.042697212037042305,-0.7312997920196076,-0.06809133222938814,-0.0040161873272693185,9.044533846206182,33.551952,-0.776714487664057,60.4408524496891,0.7915698591299202,18.12147242339662,-13.70537138479076,2.224196000000004,31.610000000000017,1
0.6069849278990394,-0.04262688600589369,-0.7338473201531261,-0.01832658662214368,-0.003822928308164856,9.031369715505653,33.553444,-1.155474548542289,57.72087703753195,0.4968727653523247,24.37930220821066,-26.696950605073354,2.221639,31.63000000000001,1
0.607054441306294,-0.04433261516098148,-0.7327286120020828,0.0658093761568099,-0.003823812493002033,9.027946418194057,33.549603,-1.2508584824360476,57.382976018980905,-0.22512510045383166,25.660260984272735,3.0880615799245192,2.215243999999999,31.629999999999953,1
0.6045474329392826,-0.04396087795410223,-0.7349286635498012,0.04009976996221636,-0.004351710682633281,9.031408495577264,33.553833,-0.8770926086669392,57.94529874350206,-0.5978238036620381,25.38108386644183,15.925280931881607,2.2088489999999985,31.629999999999967,1
0.6011918140239104,-0.04337371190696626,-0.7374691282500466,-0.0745052360247043,-0.004048989237540667,9.027966621871542,33.551468,0.19978643753151382,57.62711998257604,-0.8652598060867945,25.51704406986923,-28.581739514333318,2.206291000000003,31.630000000000027,1
0.5987532549902638,-0.04381503188595215,-0.7389552077367985,0.0007549031610022891,-0.004127444899337921,9.015618403723263,33.55198,1.361845035140312,57.90519926508839,-0.6966416606207246,25.597406957868465,-50.13127870482758,2.203733000000001,31.610000000000014,1
0.5999112208367642,-0.04443849573763075,-0.7359197023235814,0.06969273766817514,-0.004199688004424446,9.017516942373513,33.55035,2.2845130070875346,57.055610890612414,-0.8009054400709107,27.153079088267543,9.95254203202966,2.201175,31.60999999999997,1
0.5975328131696858,-0.042621304279885634,-0.7403792766821438,-0.010947975254501347,-0.003755803910846898,9.020307201325688,33.54975,2.858078497795892,57.019403430029726,-0.885173280661496,27.234762592409727,33.792993638754716,2.187106999999999,31.609999999999985,1
0.5971866892735065,-0.044399276310975275,-0.7423214663364933,-0.06565733654140105,-0.004308633027890915,9.010127268983942,33.547325,2.5371906563540345,56.76741627028966,-0.48867195882444836,27.168340125501697,-13.504809629100377,2.1909439999999987,31.61,1
0.599162993195921,-0.04267814286766321,-0.7402046429794524,0.058457595332937796,-0.0034957393006076368,9.001107835889743,33.548798,1.1760168364275114,57.31822507791942,-0.5638789455090165,26.6562700539018,-22.78646017675126,2.1871070000000015,31.61000000000001,1
0.6034741392333173,-0.04403466177584569,-0.7349576188748979,0.03336912743572536,-0.004229239780073845,9.009107404324192,33.547688,-0.231733393958947,56.84618464154776,-0.4574803820833346,26.98324877580848,11.662680923629411,2.190943999999999,31.60999999999999,1
0.6030934842410488,-0.0439071296835589,-0.7375515044411279,-0.06291721136613074,-0.00458181686142436,9.006777969981261,33.54865,-1.1055203601045311,57.569912133461735,-0.27309628398689667,26.35294828732716,26.59897909537452,2.1819910000000005,31.610000000000007,1
0.6063198339543827,-0.044015137426486196,-0.7331244043268855,-0.021509262981132617,-0.003937063369958773,8.997404230818713,33.546635,-1.7905227473998289,56.70919339812273,-0.4807012357719062,26.881408127105665,-7.15186639527239,2.1832699999999976,31.61,1
0.6064815689770313,-0.04346474637032731,-0.7332431328723796,0.07483246368550396,-0.004096472957448034,8.994747053692349,33.54619,-2.2517714724592466,58.34970161959992,-0.042399742453224976,25.42111226325307,2.854792414533503,2.1717600000000026,31.61000000000001,1
0.6065969149778003,-0.0442012294660684,-0.7324413914011845,0.00662459231968895,-0.0040320271637378675,9.001881725219341,33.54431,-2.2413996790077855,54.842159955280195,-0.4866808927108651,30.536059197323336,18.666983807701676,2.175596,31.61,1
0.6051778624372051,-0.04256038445610223,-0.7359752431444562,-0.082827260884224,-0.0048317192491496505,8.996232336555005,33.546555,-1.9711924797763862,51.04310387744742,-1.0218321978182963,36.50543590065318,-1.5762435473272476,2.170481,31.60999999999998,1
0.6045759505621873,-0.043311165543932446,-0.7349843581464709,0.010311776166350898,-0.003962463925459893,8.987392312296635,33.54335,-1.422610320240942,52.526668544850885,-1.0992331885753082,34.96414479384735,-17.783143788185825,2.1653649999999995,31.61000000000002,1
0.6015771034680998,-0.04886269864168888,-0.7370277045011807,0.06716816390789024,-0.004000662942681057,8.987413627754023,33.543407,-0.3477691042789245,51.74349883382384,-1.130090574494351,35.12711597809319,17.240453853905127,2.162807000000002,31.63,1
0.5998613082133623,-0.04518335353469022,-0.7389475344281636,-0.027432621525584823,-0.004109746150274665,8.99314697857766,33.540146,1.1201159865922203,52.171173384814324,-1.3929640472944917,34.89978869718695,13.917734900192821,2.1576909999999994,31.629999999999978,1
0.5938451853066667,-0.047068634194019056,-0.742989824703532,-0.058401096339207204,-0.003877220966717371,8.982546768723882,33.54521,2.4569340842876204,51.878579616775745,-1.537527959642655,35.08967040197482,-3.729261612997657,2.1551330000000006,31.630000000000024,1
0.5991644474031016,-0.04836873063313515,-0.7378319314862819,0.06937765668224075,-0.0039180059816297085,8.974811205305745,33.540375,3.194164052482617,52.0866551306378,-1.356987164382628,34.89089529635839,-12.021099998839368,2.148739000000001,31.630000000000006,1
0.6007968154591776,-0.04695635694153489,-0.7381550046104274,0.028892661643204195,-0.004058844980727173,8.97837922706672,33.543003,3.1961592265907783,51.94814154786405,-1.6399026711736515,35.72780846119953,13.22844804473577,2.148738999999997,31.60999999999998,1
0.6026284224608484,-0.04798114757291874,-0.735721681424634,-0.06294865961325431,-0.004118824299014768,8.9716830947027,33.544704,2.170779142821362,51.810247857215955,-1.993055563732558,35.94825733123971,3.676798705033471,2.144902000000002,31.61000000000002,1
0.6020394300515864,-0.04586756465450092,-0.7378464712058992,0.004534570551360835,-0.004281047371010513,8.959563674783592,33.541447,0.546060729194774,51.589116664270335,-1.4456001963161764,35.84231400368838,-10.309714844977735,2.1449020000000005,31.609999999999964,1
0.6072108710734655,-0.04706672195820755,-0.7321758688211675,0.07183233853127392,-0.004352539651508787,8.960178344492183,33.54054,-1.1615723803490081,51.546921747714585,-2.275400022362545,36.53448534019027,-0.5002469741984694,2.1397860000000026,31.61,1
0.6011219802101446,-0.04532822647025785,-0.7379617698902281,-0.04033447052361578,-0.004449706521716602,8.963950978403076,33.543224,-2.459967803275058,51.58811058398358,-1.687034565588269,36.06436448492551,17.495663200933013,2.137228000000003,31.60999999999998,1
0.6042858013466228,-0.0419203269470756,-0.7355209037524685,-0.07223623927459558,-0.003905761424137152,8.952518613282788,33.547268,-3.1585129163268513,51.20945095371525,-2.153327663542471,36.64122729147619,-6.6036977792071285,2.126996999999999,31.610000000000007,1
0.60425125711841,-0.04527798449803264,-0.7357344380841572,0.028074956803244636,-0.003960176445372868,8.941335630596857,33.543804,-3.2594215055842675,51.07266612840851,-1.8663471659661852,36.46934745555858,-3.0594484886176314,2.132113,31.61,1
0.605405917938945,-0.044167639869129756,-0.7344516376212271,0.059724289978764146,-0.0037607749009503006,8.944011408825748,33.545143,-2.978380635953349,51.17147870237114,-2.120218420003561,36.46787113489895,7.75494314967054,2.1308340000000032,31.60999999999999,1
0.6030947426396785,-0.04432411278221328,-0.7372240785513241,-0.0548630101477224,-0.0038372856413993427,8.942962579907357,33.544437,-2.3951592291067887,51.21116289339856,-1.8903459566308016,36.65803827358625,3.0652349556213725,2.126997000000004,31.63000000000001,1
0.6046960378012534,-0.04638683395584649,-0.7352823792717192,-0.031667785769829024,-0.004863650102985845,8.932209523746787,33.541546,-1.7606194982039656,51.392533113772636,-2.100064370697591,36.49870765562489,-18.88344710938595,2.1231600000000017,31.630000000000027,1
0.6025073533200082,-0.04637438926187827,-0.737938873114414,0.057584851300392696,-0.003911530573930367,8.927961179750255,33.543896,-0.921839205761529,51.36747745857492,-1.9101872066311847,36.45188131831236,2.082534748622681,2.1193230000000023,31.630000000000027,1
0.6005267000283067,-0.04838795053392873,-0.7386105320716779,0.061334356723197994,-0.0045221924240581215,8.932124538172413,33.54601,0.31156189746566054,51.372363695167785,-2.0775290878552872,36.55909775806551,15.274404123085267,2.1193229999999987,31.629999999999985,1
0.5904285376222306,-0.050662558564625614,-0.749038993710015,-0.06294387155056257,-0.0039391309815147045,8.929812215321274,33.544426,1.7713654718885354,51.40193260183439,-1.7824152394959412,36.25947971935274,-1.2551948594182907,2.1116499999999987,31.62999999999997,1
0.5861681388239066,-0.04942790265517746,-0.7487958802866277,-0.023658719443124258,-0.004295511986882011,8.917885332963975,33.545273,3.13102547557398,52.46423817112399,-0.32809387559385644,35.25218668610638,-20.861663017267034,2.109092000000001,31.63000000000002,1
0.5885557126962419,-0.052273307404360855,-0.7464047449699639,0.07546149896744749,-0.0036685295867909633,8.914276226765896,33.545704,3.930677574028987,54.51258749927803,0.7733849798730245,31.126839199396365,6.5926614934341785,2.0988600000000006,31.629999999999967,1
0.5970091861174783,-0.0465884284651276,-0.743818614735233,0.011212492305818033,-0.003860507081671116,8.916630365549105,33.54573,3.8563619400416274,56.0422356584892,0.7215653088288266,29.501465207202955,9.173534933649872,2.093743999999997,31.62999999999998,1
0.59512524481242,-0.04975596513884659,-0.7419532434073142,-0.07660623384742393,-0.005066220118136879,8.908761408741453,33.54738,2.5974459514512174,56.77402967205565,0.6555598036797593,28.528863413415404,-1.9337823912333512,2.089907000000002,31.61000000000004,1
0.6030169814642323,-0.04501197065696666,-0.7368256825223869,0.02516797432012676,-0.004144230433774452,8.899995044344363,33.54855,0.6084399961249592,56.866058113263,0.9481110079884337,26.804112591146193,-7.75378765796204,2.0873490000000023,31.610000000000014,1
0.593039810324198,-0.04003555440093046,-0.746078651659991,0.05221397468627265,-0.0043173260593892294,8.90791193191134,33.549614,-1.0364455901195697,58.680484778264905,-0.10919234248447733,24.204594202586605,32.89647113729303,2.088627999999999,31.60999999999999,1
0.6014846217543263,-0.0481373711221532,-0.7371883208315338,-0.05760452544153104,-0.0038728152459751993,8.9111862260999,33.54689,-2.0437541740175833,59.36318618101989,0.756270552026598,18.783119944295738,17.15944340101126,2.0873489999999992,31.609999999999967,1
0.5993708885425733,-0.046308240336084085,-0.7420574201225127,-0.02555168088341519,-0.003656523796388873,8.903888063687509,33.549557,-2.7803196392301475,62.79449105574871,1.5148216785455593,10.443651489970447,-44.350745366226704,2.100138999999999,31.630000000000052,1
0.6085416205765538,-0.04206076144888908,-0.7288330635584921,0.08313136052145796,-0.004070672068725414,8.90588451374926,33.546913,-2.967226334638061,62.33733681492081,1.569258991633451,9.493240856683556,-25.080612548285387,2.1167649999999987,31.630000000000045,1
0.6033345633889436,-0.04631205366925682,-0.7365491633596677,-0.015042800548628733,-0.004134313972309917,8.91355733029112,33.55219,-2.591817927049856,61.991421059619405,1.2813122950933697,11.21134221872806,24.144637494150984,2.118044000000003,31.630000000000035,1
0.6008075422184082,-0.0253920791256611,-0.734666328103587,-0.07092578866408411,-0.004000926552119949,8.902677759121662,33.544983,-1.8931718085650495,62.05686720039964,0.7604900257142001,11.722550654104053,-0.25507768706817197,2.1244390000000033,31.630000000000027,1
0.6148109472941891,-0.0392722650380427,-0.7286228287836306,0.06806294904131191,-0.0040055909750737004,8.898735597199533,33.54786,-1.260466843761214,62.5192860355555,0.6089358969024578,11.197908272144572,-5.268052839922667,2.1282760000000005,31.629999999999995,1
0.6144642630307354,-0.028582082411126735,-0.7269163412127502,0.005891696759191994,-0.004238253148705585,8.907034210061164,33.550102,-0.6657367793236869,62.32318493843749,0.6161346360855147,10.98296335866708,43.0757505123523,2.128275999999999,31.629999999999978,1
0.6208694962279642,-0.029948603512143818,-0.7202214371365429,-0.08102864538401884,-0.00376428305232974,8.90122971117984,33.5491,0.26698621326599736,62.2866659206401,1.1228035505633316,11.220987467505719,29.760382961781414,2.126996999999998,31.62999999999998,1
0.6140017709874876,-0.052053501033313826,-0.7234751830914211,0.0697047409302181,-0.004004470557563601,8.891133325672493,33.549953,1.6322591058896727,62.14987198087878,1.324107084910407,10.761525771608452,-19.488753024984927,2.1218810000000015,31.63000000000002,1
0.6142428361800845,-0.04359640162436487,-0.7245155740294971,-0.012112038414014177,-0.00453516060646969,8.895980531979195,33.553947,3.048801383872069,62.25291404256983,1.403088830328308,10.843272572936954,-32.13657320740071,2.1218810000000023,31.650000000000013,1
0.6108796600838503,-0.04722753571401595,-0.7259265853852559,-0.06010227241630253,-0.004044441357291799,8.881465779429238,33.552948,4.409597695276033,62.10705167787412,0.05457316194786611,12.04744767915402,-2.6211729112540993,2.1218810000000055,31.650000000000002,1
0.6058249837317456,-0.05220760375206474,-0.7342353392621455,0.07029160165710567,-0.0038579674033636705,8.868394811646034,33.55391,4.952421852817511,61.48001540032988,0.2646724264697026,12.44298653242689,-8.105689216807823,2.1180439999999927,31.649999999999988,1
0.6126398713170079,-0.05376266583080937,-0.7287092171984206,0.023982483248678316,-0.003993003941624466,8.87155742148908,33.552467,4.063544851790581,61.62570308971868,0.10858476537006416,12.454883654664348,-18.865226208842106,2.1142070000000026,31.65000000000003,1
0.5871542883501056,-0.050343109614247934,-0.7522745057062512,-0.06815425189633532,-0.0036288981531641808,8.863443097208208,33.55302,2.10498064117768,61.81298404861434,-0.19149849802674404,12.155584151517472,6.1417502875281444,2.1103699999999983,31.650000000000002,1
0.579782435165452,-0.05203303131993429,-0.7563421338154309,0.04888253804742696,-0.0038843549443019266,8.847332606253147,33.55751,0.02805915566746684,61.79491645181292,-0.07390116749712768,12.176579768529544,-19.08850308334619,2.1103700000000005,31.650000000000038,1
0.5992231504272192,-0.04874321509875356,-0.7381767108472527,0.040698732597254546,-0.004282252626057093,8.846042651055257,33.555355,-1.798940388936177,61.82208023399783,0.41761660786626514,12.007672813286021,-15.683117794574274,2.102697000000005,31.65000000000004,1
0.6126603239079194,-0.08394389158027149,-0.72981073789356,-0.06395668489836226,-0.00423850024314084,8.84497941278066,33.5545,-2.948757030159934,62.25001518274135,0.5473669736576168,11.365060227752448,2.107509401365298,2.101418000000001,31.649999999999977,1
0.5991452564649656,-0.05966256796025356,-0.7381943003473954,0.0014708548191476867,-0.004293506105395838,8.832386675430115,33.554745,-3.5181531023975197,61.64599788416775,0.8667178568250381,11.65814729609136,-13.786983915136831,2.0975810000000017,31.65000000000001,1
0.6116367143704778,-0.05764868284394362,-0.7286139923535826,0.0640695321036811,-0.003247052743949323,8.831318107187702,33.55386,-3.5144264946596993,61.903141297963465,0.3216922166970592,12.339636068387088,-12.386387363044257,2.0963019999999983,31.650000000000016,1
0.6036537969899352,-0.05912690959091463,-0.7400729400390262,-0.05148599060055155,-0.004401309551200549,8.832524138176819,33.550373,-2.9012204277261167,62.103991067937535,0.25883357488666064,11.82869140141451,21.572889765275807,2.0899069999999997,31.649999999999977,1
0.6014482810866439,-0.06198190257323959,-0.7362394113236701,-0.05224912526920508,-0.004129621584761531,8.81875916451816,33.549843,-1.954723842578848,61.844548165993636,0.27808089468847585,12.138504415404727,-3.0289825144409104,2.0886279999999995,31.64999999999998,1
0.6018203260391173,-0.06544334300268835,-0.7386054573764887,0.07043299555962061,-0.004179550624696992,8.815956516873626,33.549,-0.6255111254533374,61.910626590358355,0.3013000888058662,11.874786091472457,-13.602010913182799,2.0873490000000032,31.66999999999999,1
0.6007342032648617,-0.05202167393536311,-0.737382576573687,-0.00502825211759392,-0.0047249582021368,8.820608033321623,33.540257,1.0188705569900838,62.01146040674729,0.12773702784916505,12.118868177122538,20.366747331918628,2.0847920000000064,31.670000000000016,1
0.5982866391318812,-0.06504062484016286,-0.7383099241920708,-0.0704523613559997,-0.0042086624911273985,8.810631500089567,33.54576,2.450836279147762,61.85260597126835,0.09306892958823822,11.883107740673141,11.64503094945995,2.080954999999995,31.670000000000012,1
0.6055111208203616,-0.059797999102152236,-0.7359198972746643,0.06075008301326612,-0.003746265892632245,8.801148508680948,33.544613,2.8768679250563847,61.719650110074106,0.3913929547821123,12.127073426724483,-15.303231966209742,2.0771179999999974,31.670000000000012,1
0.6070284174388494,-0.058206595953794855,-0.7322582967532935,0.03615073635676861,-0.004112574153669883,8.806859958844143,33.547306,2.104141270784048,61.97628355958998,0.09803729163656445,12.0617713742709,12.121460310774731,2.075838999999997,31.649999999999984,1
0.6119162396685938,-0.06043472334663686,-0.7283955171251495,-0.0685435354071123,-0.003678096262490574,8.802008271541135,33.545498,0.888861117295916,62.028961104496226,0.057754045798586534,12.179262087548539,16.526858102077657,2.075839000000001,31.649999999999988,1
0.6137003365192802,-0.06066051251024954,-0.7261011500244557,0.01015636153646063,-0.00395500860503563,8.792130684777854,33.548622,-0.27168480932468936,62.037695847489765,0.1918745455079698,11.98910738858557,-10.008262706200751,2.07456,31.650000000000002,1
0.6158710344485031,-0.058931881367182054,-0.724804324644881,0.07661934393542581,-0.0038532183161877256,8.792584852153507,33.550655,-1.0600929421764222,61.917141591008935,0.22230853779013496,12.14449178674513,-3.754385020706672,2.0745600000000013,31.650000000000002,1
0.6137597040533121,-0.061002245360389826,-0.7268358866735642,-0.0414521700702015,-0.0032886123402847676,8.794271521556434,33.5462,-1.4574396468300332,62.03461679783444,0.40663696247628506,11.864773646787986,16.911623067032092,2.075838999999999,31.649999999999977,1
0.6152103916683077,-0.05995251353199125,-0.7253387159028347,-0.07062394588757621,-0.0043845890228502715,8.781168228500311,33.54726,-1.5029175821557932,61.9884824849697,0.3334670692904463,12.139140003333436,-6.478072258700809,2.075839000000001,31.650000000000027,1
0.6165706250508315,-0.06031580155602782,-0.7241079888130956,0.04390541457632121,-0.004172081789006555,8.769587672261363,33.54984,-1.3301576472860777,61.90476424431333,0.3083354666039778,12.150343006895813,-14.790065801915874,2.075839000000002,31.650000000000013,1
0.6167351180543298,-0.05646434716641699,-0.7244079104778066,0.053789842856401496,-0.0039566726414371495,8.773367993006646,33.5535,-1.0759800909850683,61.81924131675119,0.060178901743296764,12.965413456441498,14.55148984882555,2.075839000000002,31.649999999999995,1
0.6143687509910796,-0.05974716927561164,-0.7249962518040867,-0.07407098130889095,-0.004350483802172806,8.770080757903521,33.554775,-0.8166414674248212,61.8975108661073,0.03886263633729216,12.607671030550131,13.588473146246285,2.073280999999999,31.669999999999952,1
0.6126541349791601,-0.06362889177308859,-0.726755626195777,-0.028674294359363382,-0.003472441463257558,8.758865636255011,33.553444,-0.38077223646386715,61.74516766644073,-0.015511971864261108,12.974927726967218,-17.464296675522554,2.069444000000003,31.670000000000027,1
0.6040289857888712,-0.05080785813624319,-0.7354332673730679,0.06529775071729993,-0.004154001928369745,8.760775975027963,33.555206,0.36315082641131285,61.74864808995045,0.06223381532307779,12.735305405679089,-8.288432623529822,2.066886000000005,31.669999999999995,1
0.600621591474312,-0.03435328815193145,-0.7378093329441885,0.018910953206405155,-0.004593615966487197,8.770499353268754,33.55844,1.3687238142604132,61.27848565763607,-0.6038119527697865,13.597492840732524,8.86444753418938,2.0643279999999984,31.670000000000023,1
0.5938129026377383,-0.01978420804168594,-0.7454787097127406,-0.07684676877034202,-0.004188405099502254,8.766434338613042,33.557358,2.434669248062548,61.749980649064824,-1.5695875744734569,13.575131278639386,13.739511366497945,2.059213,31.650000000000013,1
0.5882250202845734,-0.03757568419646139,-0.7478230420393592,0.046350759953720545,-0.003849736163429498,8.757571383109328,33.561363,3.2389827880387245,61.578835605256174,-0.8259680433522049,12.837387774420161,-15.887725127790516,2.057934000000001,31.649999999999977,1
0.6009398948076435,-0.024092016345770437,-0.7395898690244388,0.06785150083165921,-0.004164590421234241,8.771698179319287,33.558525,3.8156386814084415,61.692763444944376,-1.4248175584970726,13.179454674304573,9.382175020359028,2.0502599999999984,31.649999999999967,1
0.5936584568761932,-0.02866979719718434,-0.7427985750297618,-0.07077900441222988,-0.005129089690725194,8.769495259659026,33.559242,4.161027377338878,61.529096542948444,-1.3252415821411645,13.317506622152962,5.288980390641673,2.048981000000001,31.649999999999977,1
0.6006430712583456,-0.03432940477168805,-0.7385491590590039,-0.02849148320920442,-0.004574810501044136,8.754001319690241,33.56069,3.9576507180054072,61.3853771846426,-1.279009412385025,12.889885976189781,-9.648448900677757,2.0438650000000025,31.670000000000005,1
0.6057772838826614,-0.029732225027018444,-0.7316410421470573,0.07946197678115094,-0.003520027558567589,8.752642806291476,33.55626,3.3899024131588535,61.77472511610937,-1.6896491495139006,13.260159014752713,-2.7441145479455886,2.0425860000000005,31.67000000000003,1
0.605995419455241,-0.03210441785044601,-0.734396567881206,-0.047023391023219015,-0.004504072581986248,8.754730778228266,33.554264,2.8606020539947807,61.88473932521951,-1.0899820738834385,12.794403357682068,17.968930345559123,2.0387499999999994,31.669999999999966,1
0.6039182227137546,-0.034493252881933785,-0.733297688130911,-0.04588249318924037,-0.0036432969778947433,8.741017165122324,33.562294,2.387713476563393,61.71928480705107,-1.3562635172446922,13.280156737933432,-3.116961530566515,2.0349130000000004,31.669999999999998,1
0.6088593224028247,-0.03237069485639039,-0.7326278862353617,0.07429126785851337,-0.004159475715363878,8.734131493463984,33.558693,1.9498156991602946,61.807769047281965,-1.061112476005846,12.850440527041625,-6.933931481337362,2.029797000000002,31.669999999999998,1
0.6016914794910992,-0.03527890703611283,-0.7323965508067763,0.016555990023854748,-0.0041022313477025426,8.73794231187925,33.55773,1.591990655135564,61.76165220634463,-1.4762239104757768,13.388542867395469,3.8005676678311078,2.027238999999998,31.67000000000002,1
0.6082171398545588,-0.04169582759923217,-0.7286631708759528,-0.07830316005127066,-0.004217510254875607,8.727585487078827,33.55976,1.1321834223897418,61.42067315657645,-0.7926005765175208,13.136444354440977,6.869841532865784,2.017007999999996,31.669999999999995,1
0.6156103925810287,-0.021793333540785484,-0.7257036617451574,0.053435286403283676,-0.004265326509918308,8.71874653095386,33.559322,0.0808549718843929,61.62817172160219,-1.2681943876724995,13.783512370749321,-16.21086918051868,2.017007999999998,31.67000000000002,1
0.6100832173531062,-0.03297065219429491,-0.7261232688332325,0.04827222354976645,-0.004216859698257244,8.728335809146463,33.55939,-1.6671236346174536,61.173134881704414,-0.58816346579769,13.906360631811138,4.25111271148699,2.0157289999999946,31.66999999999998,1
0.6305219766237079,-0.03874727672637846,-0.7120189905269269,-0.0609358952269179,-0.004229884440303507,8.72957680975472,33.557663,-3.192325491747139,61.35584095153681,-0.5976217342853734,13.995011292667112,8.171124971884025,2.0157289999999968,31.66999999999999,1
0.615370805535869,-0.03461780343270017,-0.7236293528923252,-0.011088897628036328,-0.004467089618907068,8.721722479312447,33.556995,-4.096222406007642,61.47048485801531,-0.29497914626397187,13.882935369952358,-4.900139070569262,2.011891999999999,31.66999999999998,1
0.612159884904693,-0.05255265663448708,-0.727760573445707,0.09597003143101604,-0.004190339315226701,8.721194603771506,33.55768,-4.9608208155413935,61.07930934750683,0.08232089921433178,14.149977889698354,-10.823949897051829,2.009333999999999,31.669999999999973,1
0.607010964045578,-0.03253718398980421,-0.736744266579152,-0.01573127552828749,-0.0036428323537142874,8.729303768657195,33.556747,-6.105637238389267,61.893154345825444,-0.3522689716317185,13.957290469457158,17.323576293382764,2.0054970000000005,31.69000000000001,1
0.6090350111523517,-0.06905580845854997,-0.732979654812819,-0.07409833605604707,-0.0037212792687625245,8.71872898196537,33.55594,-7.178090567981522,60.3824575639886,-0.1857178226934759,17.42344795170482,-0.9532728527559922,2.004217999999997,31.689999999999976,1
0.5944928995701286,-0.08314726734656484,-0.739601830201873,0.020456375718738422,-0.004009345953047055,8.702961463813764,33.554035,-7.430024747387396,60.27989282062073,0.46673992899572064,18.203599950169686,-9.496724701910637,2.0016599999999998,31.689999999999973,1
0.5963341675488664,-0.05375430582626861,-0.740472167498585,0.05348154371855544,-0.004469433500933176,8.699754220599152,33.555164,-6.958368002097988,57.738104190436715,-0.5420227846615853,24.925933861255228,5.76734090918433,1.9965439999999974,31.690000000000005,1
0.5996794830156977,-0.05369099191532961,-0.7439735685223843,-0.0592194752125605,-0.0038239679387949733,8.699226737421467,33.55577,-5.701799562790851,54.79339446587679,-3.203996919607247,30.347729498896438,13.017959495781815,1.993987000000002,31.710000000000026,1
0.5918509439548083,-0.04959970011793417,-0.7458746739588894,-0.02156086718598106,-0.0041701527836580385,8.687064237158332,33.552917,-3.788299305718919,57.61293254393523,-1.317636033545207,23.632674653656167,-24.110640739094904,2.001659999999999,31.709999999999987,1
0.5967418843147979,-0.0513852548980581,-0.7449455199959063,0.08800470272795446,-0.003532017455987669,8.687095883217888,33.55618,-1.6377764198271332,63.11824437962528,-1.115614050474814,9.129265823035428,-13.87961849137287,2.015729000000003,31.710000000000036,1
0.5907678298829021,-0.06358749470201523,-0.7479266627445481,-0.005520806915069359,-0.004207304361010211,8.691609786986842,33.555035,0.4110146512369481,61.64243555576277,-5.38490044959369,12.58916547097945,-6.70460261758223,2.010613,31.70999999999998,1
0.578906147202269,-0.06867570343026609,-0.757161792104492,-0.062224095017830085,-0.004224245173045324,8.679490162577473,33.55813,2.390289621799031,61.242037993870326,-0.6274223574507677,13.413071221117153,16.421632497531082,2.0118920000000005,31.66999999999999,1
0.5942374721653926,-0.05452370580947941,-0.7423775350015825,0.0774276839422949,-0.0045486080496276345,8.670428278832265,33.555786,3.8811290481124465,62.59943243774614,-0.21239005238430247,12.240632178072978,30.978892977295367,2.011892000000007,31.670000000000055,1
0.5889083889187274,-0.05842537536222073,-0.748433064071306,0.014850392853639004,-0.004678360834359322,8.677676581491347,33.55765,4.717561857572352,61.3249091448795,6.605880248325026,10.768406981074401,25.740753674723397,1.9965439999999997,31.66999999999999,1
0.587341901502307,-0.05625259280025724,-0.7511088740290754,-0.07104205641762688,-0.003924725907875632,8.66872552523331,33.556133,4.643822024049353,61.39956296657539,8.781486467268671,10.77958881570267,30.504909269710982,1.9543389999999992,31.670000000000027,1
0.5933288860231756,-0.0553567602472213,-0.7466561966533456,0.06121294274717149,-0.004204737586669305,8.66378415128972,33.558586,3.2564894640366364,61.62378131693054,9.01774344889392,10.797767739207963,40.97803548365451,1.954859000000001,31.669999999999977,1
0.5929427043910027,-0.05813099973476241,-0.745260015680861,0.023465045758264868,-0.0037917536971744906,8.6735864337253,33.556866,1.3523867628482393,61.54038442615743,8.686522937072642,11.17181066328291,-15.359323416652357,1.9510230000000008,31.670000000000034,1
0.5947672297547048,-0.056310496641463134,-0.7454332234380516,-0.08112470092406014,-0.004802752278870922,8.66938221903003,33.56006,-0.17058936608941988,61.45804310936394,7.827402202493186,11.710482489232982,10.054443083369195,1.9446280000000036,31.67000000000003,1
0.5984078213243226,-0.056567886642514185,-0.7404479985636119,0.028092105489244217,-0.004131846475839761,8.659899741526868,33.55676,-1.4007295281193077,61.36513350170243,7.621551623009968,12.546763629327412,-5.934427632991173,1.9395119999999995,31.67000000000002,1
0.5978194319937205,-0.05426184202505619,-0.7422152621718174,0.03494095374999022,-0.004297978837376399,8.666963547587558,33.55738,-2.218873258576962,61.02266408981602,7.140404635477859,12.993161937949443,-13.042713467965834,1.940790999999998,31.709999999999972,1
0.5986787913790509,-0.05463471118630275,-0.7395075185142969,-0.08205803195155019,-0.0034000107802731293,8.665296225906852,33.55501,-2.3949266670182467,61.060062126382284,7.09794131396203,13.182790878628907,-17.512842789656858,1.940791,31.710000000000004,1
0.5977344362516934,-0.05695874221159942,-0.7420851346227642,-0.0021066720421589152,-0.0038273407844875307,8.652830282087132,33.556175,-2.0961069412357363,61.04601855613953,6.931446005335246,13.310232859459331,-50.80460885968654,1.9356749999999978,31.709999999999976,1
0.6001356756271297,-0.05431928241511027,-0.7388615163549449,0.07011001519706701,-0.004286631342524256,8.655038496110961,33.556175,-1.7074030687592507,61.04486508597799,7.063433554304129,13.600945149163925,-44.038808503637604,1.933116999999999,31.71,1
0.5970916633193268,-0.05705193616838436,-0.7428874175755216,-0.056465706312068716,-0.004204974062269697,8.656926644942937,33.556934,-1.1664484313371803,60.922900739157825,6.937893161535051,13.326232778896735,6.210530716859191,1.9305590000000004,31.710000000000022,1
0.5974545964268263,-0.05457445041294313,-0.742967657219263,-0.0435830761493346,-0.003976228650540012,8.644557766161203,33.55862,-0.47464360419007107,61.181487349799205,6.962760503614848,13.851110392920843,-6.900370800541267,1.929280999999999,31.71,1
0.5942560427012379,-0.05666880082286769,-0.7460954800057353,0.0763204047536607,-0.004753014623163188,8.64067649892784,33.557274,0.40132334858010843,60.9560634770273,6.352948722044893,13.410185270849013,-18.042928563627466,1.925444,31.71000000000003,1
0.59195888529824,-0.05537775350839319,-0.7462530336646661,0.012370432847201808,-0.004192016145295168,8.642727786677378,33.55873,1.5230582933690435,61.078418766908484,6.2550636833671565,13.864100450869978,14.140123890523208,1.9228860000000005,31.710000000000015,1
0.5842539661404914,-0.055289935885241205,-0.7545614602634629,-0.07132277813050075,-0.005180182435845775,8.63349872340696,33.557564,2.7727538501999867,60.89962357842557,6.131804832998789,13.935396279437807,2.657234060005251,1.9190489999999982,31.670000000000034,1
0.5894578771949459,-0.05487864535676196,-0.747528365628234,0.04858034284612155,-0.00491827216227352,8.622975450796188,33.55734,3.9193823743249543,61.13131992238655,6.044883333076864,13.903493370963831,-23.22827562028183,1.9152119999999966,31.67000000000004,1
0.5873595564487863,-0.05678261525149836,-0.7475724064752369,0.05032154893025387,-0.005005153672194671,8.628317485293122,33.561165,5.03637078021067,60.85951571853333,5.934269916950314,14.21944819349775,2.5080161068459823,1.911375,31.67000000000002,1
0.5968755764213759,-0.05522411795432704,-0.7425765733179028,-0.06904872658121147,-0.003484774842190196,8.621014681386745,33.55954,5.542887276238449,61.34227412836232,5.720047423018041,15.015863699412249,13.792120790205026,1.9100959999999987,31.669999999999963,1
0.5941568603948896,-0.05601415666330521,-0.7452765211935464,0.0302523345493988,-0.004253521611551211,8.607023102658559,33.56339,4.616423673264376,59.501080206931825,3.3444575823497686,20.181458843444133,-13.74220645274194,1.9088170000000002,31.690000000000037,1
0.5985494747923794,-0.05475635198515248,-0.739433092487741,0.06293874359607768,-0.004458847424694382,8.610843296675215,33.561176,2.6056082988650964,57.36334537755441,1.5017984360477947,26.875436037373802,-6.822477937834752,1.9011439999999968,31.689999999999987,1
0.5892690030952218,-0.05477616159466744,-0.7550397502210929,-0.07353172181167544,-0.003357616833218784,8.610534778030114,33.563416,0.5473906694163263,52.909223210058364,-0.17956758256218155,33.302381266385176,14.134732079683058,1.899864999999999,31.689999999999976,1
0.6005046214709762,-0.05881360840561655,-0.7363551990050448,-0.01113023815572104,-0.0037487889661547147,8.595324507219496,33.55896,-0.9792472393697969,51.781860507371725,0.8746139770478251,36.056387400312644,-19.482196668002842,1.8947489999999956,31.69,1
0.5987358128012699,-0.05160805425900083,-0.7429634919165471,0.08006003556963874,-0.004294156770031834,8.599461673688028,33.56112,-1.9763668177894456,50.2041326173629,-2.013092139395266,37.31377857584514,-61.21790909603631,1.8934699999999993,31.690000000000012,1
0.5937461032076371,-0.057017743205013766,-0.7432626631646844,-0.040657229990872124,-0.003718064627415096,8.607605240450129,33.56404,-2.3632029924747697,49.440355045128335,-3.0593656590283924,39.17644233589295,-17.574684235663177,1.884517000000003,31.69000000000004,1
0.5738120390391241,-0.04479312760921678,-0.771989828714445,-0.05556873117925296,-0.0034300604358265675,8.599443139638268,33.56036,-1.9899065611566176,48.08523219129016,-2.439007488441859,39.693587581227256,26.65947371494896,1.8909120000000041,31.690000000000033,1
0.5678886753428368,-0.04633346321062321,-0.7588579396932236,0.07627569026190459,-0.0041737831023627835,8.596187494851439,33.563034,-0.9683722063186211,47.04439587741981,-3.1364331559580427,40.9581796912225,15.769800513348546,1.8896329999999975,31.689999999999955,1
0.603034477932133,-0.05811368347714218,-0.740183225103113,-0.017525768477156665,-0.003965961982779247,8.597399283204476,33.56243,0.21500190360399374,48.46894624167763,-4.539302768137573,40.09556924618964,46.39723350072732,1.8857959999999994,31.690000000000055,1
0.572570979484559,-0.047664263443066,-0.7630804033819601,-0.06075701761456498,-0.004878153943508286,8.586771310198971,33.56276,0.5937794961709256,47.19309063917378,-4.844694620529351,41.4178854585654,33.39237536762259,1.8794020000000018,31.689999999999994,1
0.5883823606504265,-0.05047193935372834,-0.746622150835237,0.08902061819787559,-0.00436363552167536,8.582080133656774,33.562134,0.8629663928947893,47.10093605270749,-4.750430841520906,41.319732240732584,-20.285033126588424,1.878122999999997,31.689999999999994,1
0.5847510446602892,-0.04599868697428197,-0.7547768860728447,0.004349391220235566,-0.004061265009694222,8.585569844548926,33.5648,0.9062841134186902,47.22339138893813,-5.271602227413449,41.34393838872511,4.2614153115747975,1.8742860000000026,31.69000000000005,1
0.5891017943844628,-0.047560767575275255,-0.7493265748446996,-0.06446384815660401,-0.0039412907774315055,8.573468921758566,33.564354,0.1993347441591152,46.84715487488545,-4.636191707487885,41.807736542894695,17.548359816961582,1.8704490000000018,31.710000000000026,1
0.5896763159600674,-0.04598239336924813,-0.7498606546693799,0.05834496939508653,-0.004572257874082836,8.568467313832192,33.56702,-0.8741990555323825,47.204333387116826,-4.781256379027749,41.76822002521338,-11.336415624007222,1.8691700000000022,31.71,1
0.591674317276283,-0.045742106741926095,-0.746115186935486,0.018832749714040236,-0.004204532295211567,8.576110570694736,33.56527,-1.6992149379894268,46.54395407949552,-4.107416745692891,41.77114202022792,19.277722805996287,1.8640539999999968,31.70999999999999,1
0.5894380105805272,-0.04684021203791545,-0.7509523323594416,-0.08235341882639148,-0.0037946500317939057,8.571129084635764,33.567368,-2.0129548867873877,46.75517152257282,-4.063741978792671,42.21392348917377,15.763454314452478,1.861496000000001,31.71000000000002,1
0.5924331025940358,-0.04429141398954189,-0.7477915142485025,0.026163185397624765,-0.0034358833390291635,8.560329274675828,33.566757,-2.0549846855662044,46.33222913548904,-3.9075815893511017,41.95090565825908,-1.0901539822737043,1.8563809999999998,31.73,1
0.5929443992622067,-0.04890582162464147,-0.7462120117090595,0.049282618987268795,-0.0038280190304707494,8.563520235840448,33.569508,-1.621454900946275,46.46605650670285,-4.102282875319516,42.10276838972321,6.368178175704473,1.8576600000000059,31.729999999999976,1
0.58851395242055,-0.04920380661769336,-0.7496681817581324,-0.0794010271074982,-0.0045529638731256926,8.56186794003866,33.568985,-0.5158933738793858,46.48648887329252,-3.893639278538942,41.88427065314869,35.37397946064769,1.8448699999999987,31.72999999999998,1
0.5849032271334699,-0.047963854368737464,-0.7542080693456985,-0.010831869760762364,-0.004318366790680733,8.549612592219818,33.56977,0.8928928893134753,46.674661812650626,-4.108091472953232,42.12336821451273,-17.558190847661418,1.8499859999999968,31.730000000000036,1
0.5827716753868372,-0.04752018108988651,-0.7533735658063676,0.08168738251829898,-0.004584204968584562,8.550634634711408,33.57118,2.105028532832259,46.62959309398461,-3.8912723808297813,41.8705138780495,-25.808314013155066,1.842311999999999,31.710000000000036,1
0.5780483157992987,-0.04962622866468965,-0.7564141166560694,-0.016116623700315594,-0.004038988834047843,8.557973633104341,33.572403,2.99546697565034,46.9170010910746,-4.108799384873065,42.13522655815509,11.114992061656316,1.8435910000000002,31.709999999999976,1
0.5798274136564351,-0.049254006011916436,-0.7545746086969332,-0.0515141690471048,-0.003710260462888329,8.547772011510627,33.571392,3.6138912233771374,46.82646963564311,-3.891462251135219,41.85867020410959,-1.6169773832358345,1.8384749999999985,31.70999999999996,1
0.5877382505397098,-0.048566863317286976,-0.7525000319276409,0.07163774468230008,-0.0038833856679858104,8.539620734890114,33.574303,3.595498195676479,47.04376116502477,-4.108021048599339,42.149007362047854,-18.89373572502511,1.8359179999999977,31.71,1
0.5900834321363841,-0.04780131816567336,-0.7475677397313119,0.03288831935144463,-0.004424780221102233,8.54240457963615,33.57263,2.7402917783965983,46.761928841984,-3.8927767077739746,41.83734992375803,12.447151357084737,1.834639000000006,31.730000000000025,1
0.5900471107626839,-0.050349994826253124,-0.7479791121126595,-0.07698676007400768,-0.004967035215061828,8.53869985921282,33.57545,1.168729420837519,46.55267422104531,-4.106009853413045,42.23503236981924,7.107587894058692,1.8295230000000002,31.729999999999965,1
0.5926346510442388,-0.04812936930566114,-0.7483993806187709,-0.01296471227707688,-0.004398027361669807,8.528035062706516,33.57514,-0.6842226664053768,45.85038893838716,-3.8959253023313347,41.92381140241191,-12.876763330216672,1.828244000000004,31.730000000000015,1
0.5921360271830535,-0.048133448970650264,-0.7473756584279485,0.06566807123374774,-0.004481716995487427,8.529269095534211,33.577927,-2.167080172316541,46.15817866534122,-4.1007471368682955,42.09982359391757,-3.368800965774554,1.8231279999999999,31.730000000000004,1
0.5902627453702531,-0.04848436253340556,-0.7484629691305267,-0.03084366725942733,-0.004411819714368993,8.53373232964415,33.57266,-3.0171674682386596,45.84350939977638,-3.9056407215045232,42.00032010507726,16.717057804821867,1.8231279999999974,31.749999999999982,1
0.591466999799148,-0.04681160851706627,-0.7475472944501155,-0.059261900013536595,-0.004141512291166033,8.524496099565328,33.57189,-3.246908144541412,46.43590796802381,-4.079414571610983,42.502902610536914,-11.31247866066361,1.8180119999999997,31.749999999999993,1
0.5919943925204598,-0.04743423506784712,-0.7466253994551815,0.03602238250975761,-0.004735578556897497,8.518125297498807,33.579533,-3.010851716660338,46.0705715880891,-3.980716065775691,41.86210930815163,-14.600010739942194,1.8167329999999962,31.749999999999936,1
0.5930981824497721,-0.04740622761492132,-0.7453022378971509,0.07185180135339099,-0.0037263329338579265,8.521319236880567,33.576874,-2.5449894232425097,46.42752083433241,-4.315725335650692,42.18613986105823,18.774303039137827,1.810338999999996,31.750000000000007,1
0.5909661299884131,-0.04730356480292274,-0.7471430036131702,-0.047084446748013084,-0.0035064857079811526,8.521999385428316,33.575874,-1.9204549476610795,45.96759573225223,-3.9555723069528828,42.271041193555014,13.395818458164563,1.812896999999998,31.710000000000015,1
0.5921340665009497,-0.04712028184105639,-0.7482718469594162,-0.03418465702978965,-0.004277002989936004,8.513027077793618,33.577255,-1.206615623020206,46.48422403326334,-4.390113709511943,42.32243468754873,-20.351190581292894,1.807781000000004,31.710000000000022,1
0.5894367932244129,-0.0474575040031756,-0.7496082739300726,0.05283630235912827,-0.00427278267919096,8.510301111807266,33.576042,-0.5540539571945676,45.83814740051836,-4.012406733147333,41.9540123725614,-4.018872808702202,1.8052230000000027,31.710000000000015,1
0.5867568497179324,-0.04697567722616669,-0.7512777954200515,0.03365024046882473,-0.004536075202677201,8.512643748228763,33.576824,0.16021688184240881,46.599160139299556,-4.292178562368981,42.45488765493509,12.821327029608833,1.8026649999999957,31.709999999999944,1
0.5824447766485255,-0.04870901579827494,-0.7557800740087799,-0.08716673358748228,-0.0027737167215333407,8.509531365100091,33.57531,0.9824389676196191,45.85978946248948,-4.110282207705578,41.78990528669789,-0.8900534339027225,1.8013859999999977,31.729999999999986,1
0.5801900344090377,-0.04742106452555521,-0.7569108689148029,-0.024735708918748146,-0.003043152318042562,8.493827166659266,33.57748,1.941078188979234,46.54367209915011,-4.28776788739969,42.24250373042041,-16.88537026414226,1.7988279999999996,31.729999999999997,1
0.5811209285974095,-0.05200626861463064,-0.7521270835636775,0.07952820520257901,-0.003852018908868381,8.491702382921165,33.578957,2.7708525426806743,46.49230229425647,-3.9481540827747,41.43182587216293,5.467485410062066,1.794991000000003,31.730000000000008,1
0.5843013337141415,-0.049780825086869,-0.7540990097787127,0.00818046150737515,-0.003812850137862098,8.492157763416897,33.58307,3.3585097384887077,57.08311926054165,2.754228747105605,29.462302250547562,13.808692294112904,1.792433999999997,31.729999999999976,1
0.5797308958389439,-0.045329742844007904,-0.7581599251827463,-0.0692563125863249,-0.003857232786931921,8.483827113688186,33.5791,3.0250641894358354,56.296893205334484,7.702045607004657,25.72312731550135,-3.966242905239132,1.7796439999999942,31.729999999999976,1
0.5886625762396804,-0.049198192262826096,-0.7508150765418116,0.03719358408453532,-0.00399942007188566,8.474607919085765,33.581078,1.6277176699634164,57.26883475492715,6.3472506505112705,28.00389346880864,-14.5092774608897,1.7758069999999975,31.729999999999983,1
0.5873452042710299,-0.04594494542068557,-0.749591110155441,0.04719340209167099,-0.004044632339439553,8.478028657219465,33.58313,0.17104792116998468,55.58373889310646,7.595285437851135,26.205210620158137,18.23273875452019,1.7617389999999977,31.73,1
0.5931973444429319,-0.048245070900810226,-0.7454184344888007,-0.05582965335490075,-0.004290161022022648,8.475071660088759,33.58333,-0.9698948703641671,58.012042480727644,4.428352765955703,28.297078681087147,54.509494548554116,1.7681339999999948,31.729999999999926,1
0.5903282624712035,-0.05046841618820968,-0.7485475928501932,-0.025815208886819378,-0.005176532931847314,8.465277280171376,33.584763,-1.6515115637856632,52.41890087960158,-2.457032194903152,30.405889925899814,26.967296977179902,1.7706920000000028,31.750000000000053,1
0.5969640158940005,-0.05155990364105697,-0.7436162189134086,0.08529222646496312,-0.0040711920581407235,8.464482381620456,33.583885,-1.9941463973571136,58.540047387917404,-5.947262451582132,41.36163019327817,-24.438825535605158,1.7975490000000005,31.749999999999996,1
0.601315397787235,-0.07204662590149206,-0.7415293323366255,0.014674673056137734,-0.004480100543955797,8.473965084396523,33.586212,-1.7721308980468746,47.250391403246795,9.511913894894645,49.34880810155599,-14.844444166729799,1.8205700000000007,31.74999999999999,1
0.5932231372885424,-0.06109900849527666,-0.7451484574878829,-0.08181699777001301,-0.003917926783226802,8.471769686384366,33.58457,-0.4706385730912471,6.39436526148256,30.965482065145984,40.62030573896078,-40.6707202379754,1.7949910000000027,31.750000000000007,1
0.597744479647678,-0.06803037715436656,-0.73637023946028,0.023746737140751633,-0.004050477932646392,8.46015032812788,33.586292,1.2487085667340525,15.837427764296368,47.31570036350871,42.150534515409575,-110.33923578175438,1.7783650000000006,31.749999999999982,1
0.6063914720806486,-0.10512504818578412,-0.7354323809799217,0.07947657598438528,-0.004817723291568017,8.469367980253995,33.58529,3.4520558166890254,-12.840470394284532,51.21847591369837,33.75206748628657,-39.25946873497157,1.7694129999999986,31.75000000000002,1
0.6049159898981403,-0.07916746987581237,-0.7338960517685997,-0.0387300962931894,-0.003949329380996345,8.47480216547244,33.58488,4.980192658727832,-14.79340103556925,51.95534907120722,34.2762582279798,145.68331775176554,1.7502279999999972,31.749999999999975,1
0.6058986223032393,-0.08509871186499501,-0.7356590334811007,-0.02802999292257993,-0.004055300111747159,8.464817643925823,33.584084,4.678586177319284,-13.627732850627691,52.55006712229127,34.23624826471373,69.8562606557154,1.7297650000000013,31.750000000000007,1
0.6077582941540538,-0.07945791933301828,-0.731834656545406,0.07075567726725424,-0.004703607732462699,8.463680642722046,33.582108,3.3826178956165474,-15.028929698129664,51.04333050840618,35.754657830787075,-45.492527139589775,1.7003500000000067,31.750000000000014,1
0.6071487444218392,-0.07897425446744538,-0.7336148184180321,-0.013238683534134698,-0.004473497711125746,8.467688323193682,33.58578,1.854101657830353,-12.92686651875537,50.68635781276025,36.68453443440996,-93.62214244143033,1.7041859999999964,31.749999999999993,1
0.6050466562675177,-0.07739878479192941,-0.7344536665886764,-0.06979291325303112,-0.0035712478708026366,8.459520824212824,33.58393,0.44456453146396013,-19.962003998935536,49.08677082008143,36.19298133297587,33.86485255297023,1.701628000000003,31.749999999999982,1
0.6085389959344697,-0.07575614781723497,-0.7352672354761198,0.039909608512607844,-0.004102380534055469,8.451552221049068,33.583115,-0.7525506187262893,-18.300417894247456,48.314902587614895,37.740213056980075,3.803184468141171,1.7003500000000005,31.750000000000007,1
0.6042645351608579,-0.07339054746240116,-0.7356227728899511,0.04209460991314074,-0.004105560067979823,8.453973544137908,33.584446,-1.662589150205844,-8.328402908174722,48.93207671278664,39.641322605468616,-16.074974279487183,1.6965129999999995,31.749999999999964,1
0.6001304928393122,-0.06337655026997603,-0.7392200541389705,-0.06929082620117867,-0.004202284691641545,8.451389618590175,33.584595,-1.9550221548986189,5.204153288086723,48.650289233367225,41.082453411598784,22.479291458886287,1.685002000000002,31.749999999999993,1
