chest_ACC_1,chest_ACC_2,chest_ACC_3,chest_ECG_1,chest_EMG_1,chest_EDA_1,chest_TEMP_1,chest_RESP_1,wrist_ACC_1,wrist_ACC_2,wrist_ACC_3,wrist_BVP_1,wrist_EDA_1,wrist_TEMP_1,label
0.8951283860824422,-0.0727052836169903,-0.20681389319922647,0.059109043206350284,-0.0028799259757483955,12.973178156311484,34.20377,0.4138285872277919,49.82903331843285,-14.064720006563377,34.82751620115918,32.35473738442393,6.156928999999998,33.09000000000001,1
0.8976033127318096,-0.07532188114507325,-0.20859000178074869,0.030604299541696953,-0.003007290789426747,12.989485934841747,34.204834,1.964145867775361,50.40936992848667,-13.957775836490125,35.04555576217138,13.27738296535836,6.146694999999998,33.11,1
0.8944761049045136,-0.07460987380438397,-0.2118504263062737,-0.03666353538789149,-0.0030099583444619356,12.979811894110876,34.20325,2.9860103687469293,50.02427137143878,-14.02014977236468,34.827412512219894,-4.541726805782126,6.122389,33.10999999999999,1
0.8981051655109126,-0.07547148478254902,-0.20735574084099012,0.021367160345978364,-0.002808388814945512,12.970525071901182,34.207157,2.724857572307927,50.33011738344796,-14.001104949486024,35.05030928626622,-0.35424875036178904,6.080173999999999,33.11,1
0.8990837848644291,-0.07428294070772552,-0.19372051188522538,0.054589252403096325,-0.002973523933491461,12.982354143436813,34.205284,1.962532159167854,50.10908807596197,-13.978082598509726,34.8521136525104,25.937413249949806,6.084012,33.10999999999999,1
0.89900062096764,-0.08018573124288607,-0.20019266843570396,-0.040642965967552444,-0.0029424924843496434,12.976025188148173,34.207016,1.4300370221863077,50.47687275026211,-14.04276761099269,35.03492054186934,0.5836811122669764,6.077615000000001,33.11000000000001,1
0.8997186280861936,-0.07745349933695267,-0.19143981457569786,0.004203926120614977,-0.0025746292653896284,12.965014486280948,34.20796,0.9698238433115234,50.251436971184475,-13.93580972710247,34.671586461265235,-11.198941140030492,6.066102000000001,33.110000000000014,1
0.9002452738251358,-0.08061426822503916,-0.19003010783298407,0.035629292927495726,-0.002746072573115278,12.978639952624329,34.20878,0.770153541236962,50.59073086899866,-14.086950880697557,35.074548545554954,4.415858985528992,6.054589000000001,33.11000000000001,1
0.899447349664251,-0.07662674470890442,-0.17772782579397003,-0.02440517095527028,-0.0027812168174170208,12.971502141143386,34.206314,0.5087837851630801,50.2787710005068,-13.886733586074982,34.8645459421272,5.4030250383776055,6.030282999999998,33.110000000000014,1
0.9044150623752469,-0.0744085499546372,-0.15565668726091472,0.0074138625309893265,-0.0029128391523296905,12.96571148517751,34.208427,0.17731375541610467,50.12370549926839,-14.166046280033017,35.168442574958966,-19.723998711015508,6.076335999999997,33.089999999999996,1
0.9138169522872348,-0.07522207184236475,-0.11255686215666176,0.013800443050791773,-0.002878429269245147,12.978359651827457,34.208958,0.009457119465012343,50.18524314361328,-14.730732069500363,34.436084164891774,5.682012688250977,6.0724979999999995,33.089999999999996,1
0.9163349474025174,-0.06311882768497123,-0.11427465405487333,-0.04067761992264796,-0.002979042739219981,12.969784912826528,34.210583,-0.7978114570157782,50.009398900480974,-15.498572981412503,34.570001930777806,4.757855050682495,6.052030000000001,33.089999999999996,1
0.9146227303261919,-0.0356126723144939,-0.08897488683871457,0.009819615665926183,-0.003009864437898163,12.967649206951911,34.211628,-1.6309154598954028,50.91062494458923,-15.943070893707384,32.56918736749895,-13.558945282629923,6.045634000000001,33.089999999999996,1
0.9256055190868475,-0.044207470352378604,-0.1046274259946282,0.006105089534558198,-0.0030044873854188823,12.975271707514759,34.21064,-1.442767309833024,52.50599312902169,-17.7628857736141,31.12106129936101,2.624409707691943,5.9855089999999995,33.09000000000001,1
0.9014473368543832,-0.08013782410236889,-0.10461322536665366,-0.01995356138875298,-0.0029304143142385502,12.959164609519537,34.2113,-1.000818482633457,52.626949015052865,-18.360707994625923,28.253372820835676,10.567005203510435,5.957366,33.09000000000002,1
0.9012130243124092,-0.10633278414505075,-0.10974102387372696,0.01271475033332153,-0.0028681900702832745,12.960851706637147,34.214233,-2.1924904027714094,52.54500400788293,-20.151838781572337,28.82989214207956,-11.587429851469876,5.912591999999999,33.09000000000001,1
0.9175111128547271,-0.15959435536783972,-0.1378417522756303,-0.007891438660839935,-0.002901410051922039,12.963415218093578,34.209087,-3.767206798555452,54.08280669195368,-17.260877577080937,28.238106223943145,20.813534493752524,5.917708999999998,33.09000000000002,1
0.9001726759455739,-0.10024357182657562,-0.17420469223304627,-0.04650902417321349,-0.003032878476554428,12.94809017746463,34.21201,-4.0563955608916356,51.7645813417842,-21.186237218192918,31.4738270367003,-7.22878443389653,5.936897999999998,33.089999999999996,1
0.8987170983163012,-0.01067555554363259,-0.13384224265333913,0.06617480160055964,-0.0030314472653924693,12.949264047146233,34.20829,-3.3394720977154,62.82636798345881,-8.46015448666166,18.236256551416627,-20.866868765495557,6.031562,33.089999999999996,1
0.9173378101056495,0.028451061174123368,-0.14398900472400167,0.02085274852508647,-0.002848272851042012,12.957179076715503,34.205734,-2.0188562082033314,46.935710264320065,-9.401262967863017,35.05199948185103,2.1963636015060306,6.068660999999999,33.089999999999996,1
0.8978866722368712,0.04150177433912615,-0.15210054533236775,-0.0483127343887183,-0.002848240999940198,12.946058805837614,34.208427,-1.1842189915544568,29.344853246911914,-14.617365311997084,54.28243657941356,-16.57719772212186,6.1799550000000005,33.09,1
0.9140266249041507,0.005319212900202903,-0.1426511375444308,0.010892414313849498,-0.0029653505459280283,12.952190525707117,34.20755,-0.8809928477159247,44.32077512391627,-3.9980488608141016,44.10338854476218,-17.557835754019077,6.1876310000000005,33.089999999999996,1
0.9048486146104064,-0.02911712088229075,-0.148050560360918,-0.003855087921443944,-0.002796830895236784,12.963028296885387,34.205395,0.6071795995839255,44.36579199335933,-5.175382100515763,43.85700568511173,88.5080376901145,6.177397,33.09000000000001,1
0.9036293805199508,-0.06425438997315866,-0.13315214680154566,-0.03096424233934254,-0.0027672910020234125,12.952395221652225,34.21095,3.030509428506958,48.03018360411754,-7.654653527811781,40.34830256731597,65.98124171190739,6.168442000000001,33.089999999999996,1
0.906749085450459,-0.07830847942470588,-0.13921842856832858,0.04032875027593025,-0.0028075921891584058,12.959086659424226,34.204105,4.8500169450192265,48.57095379162879,-8.399355001437442,39.6499051133856,-110.53609129152854,6.1505329999999985,33.09000000000001,1
0.8996086351044678,-0.1001222031204962,-0.12846296553221342,0.003328628749419239,-0.003056198330942447,12.962360693871137,34.20093,5.011432693711278,50.322575903405514,-6.337779026482972,38.73856470391619,-14.775720450447697,6.145416000000002,33.09,1
0.920114278710366,-0.08697683955714927,-0.16735884601214726,-0.006638853946317906,-0.002960815021119636,12.94699090267393,34.21041,4.22696351859985,48.61961384173533,-5.445725154067197,38.44528270386725,1.5588504968383505,6.13774,33.09,1
0.8958904585064886,-0.05215999301442584,-0.17351680136762135,-0.004610845323088779,-0.0028977479807025222,12.95961382260821,34.20503,2.7987021119142796,51.38446043467302,-5.475845309468448,36.64531546457616,5.8577344242621745,6.131344000000002,33.09,1
0.9056672973215567,-0.06438620771385616,-0.18584531312035368,-0.003229961972821583,-0.002912754251454275,12.948532088956961,34.204346,1.2064056706383268,50.82551327682106,-4.5047415622503975,33.97027256634696,24.634462938844297,6.135181000000004,33.089999999999996,1
0.8967085490089781,-0.08767723164886591,-0.18451128004588005,0.02116181880001004,-0.0026391372401058195,12.947716639752665,34.209675,0.9525851914831072,53.57895251599625,-5.537390495479572,34.74901569521353,29.94946207298911,6.153091000000001,33.11000000000001,1
0.918392898398847,-0.08581707401246733,-0.18528492295196355,0.012482216626130607,-0.002957824553737179,12.957687974172558,34.209274,1.8381569259840507,51.12974407710314,-8.246076104522503,30.573545240349016,77.89190852246507,6.167163,33.11000000000001,1
0.8666940452887328,-0.06769057393841707,-0.15715349089374278,-0.029151097906475167,-0.0030362211197179144,12.944986948805141,34.205753,2.5170364362765696,57.54329407839201,-13.129055713917413,27.884058871400924,-28.491620128526833,6.171000000000002,33.11000000000001,1
0.9112935379848016,-0.02817436715255756,-0.17096442499062076,0.04519434952358539,-0.0028816739709402444,12.948570619490251,34.20747,1.668819839220686,59.295533855269085,-14.66889668912139,21.343152412626935,-13.631476572536625,6.186352000000003,33.11000000000001,1
0.9236733397476617,-0.010583045672003289,-0.17179287333735646,-0.00548124592318895,-0.0029113649081076963,12.94923495531452,34.206455,-0.4174731130754031,55.53072691195366,-12.673874661961401,26.114921746695277,-46.8250150767204,6.174839,33.07000000000002,1
0.8955865183180696,-0.007091645814267082,-0.12911761718143397,-0.036642720962169806,-0.003082579189527489,12.935218068325064,34.206917,-2.996770916162809,51.154705574418735,-14.758589773785879,33.60912379261815,-73.26155034740613,6.2029819999999996,33.070000000000014,1
0.9182092720951389,0.006553350213167004,-0.12997246384324676,0.04418689220068507,-0.003016355262466019,12.93217370261382,34.209896,-4.690257420783122,50.27800036400323,-14.924331668638176,33.48320404034188,-48.682144838393,6.195306000000004,33.07000000000002,1
0.9028199129355277,-0.010867933024629496,-0.13828495154259113,0.042715205161235476,-0.0029902301270217898,12.942431041183232,34.212,-4.944043915663522,49.275996017248595,-15.450337063269965,36.14220390641236,-0.09739349897627601,6.192748000000002,33.070000000000014,1
0.9069233140423236,-0.015752126832408016,-0.14372511879082175,-0.05190652190189418,-0.003082355911020749,12.940495231100988,34.209087,-4.653361930915774,48.53491630285321,-14.823937457220865,35.89892764041239,-70.18299098599844,6.188909999999996,33.11000000000001,1
0.9066330640408962,-0.030474431607452338,-0.13530892783121898,-0.0057535678285659244,-0.003029002844076521,12.928853408183665,34.208645,-4.179554984702291,49.583329131523,-14.874533709725196,35.769227360912055,-21.57975683511221,6.162046,33.110000000000014,1
0.9078907410696849,-0.006180235676858021,-0.1412779683618387,0.04529328354444947,-0.0028696111327362024,12.93672938344828,34.210976,-3.3529443801431476,49.661872913302766,-15.381381721205974,34.3788852847946,87.66459107795465,6.183792999999998,33.11000000000001,1
0.902258434312533,-0.02745517890584159,-0.15649119354493718,-0.03837622956857174,-0.0029442130268188243,12.931462023850752,34.207153,-2.309146523779426,50.678685384429585,-14.173897584146223,34.710609500794654,49.56988640070811,6.202982,33.110000000000014,1
0.9065064115607414,-0.0318483658167259,-0.16251356418607657,0.008200665690807936,-0.0027412429491550016,12.92433958231626,34.210907,-1.5700474525167456,50.81380656558027,-13.583099583927748,34.11814392103261,28.270114193595866,6.204260999999999,33.07000000000001,1
0.9062582395059997,-0.038877508556973306,-0.14024590101067155,0.00018701429631477564,-0.0029072675175127634,12.936397637965449,34.211567,-1.235500814516957,51.76017145249075,-13.102949313965315,33.95792775942621,10.965564266438937,6.210657999999997,33.07,1
0.9070682530128055,-0.031034601380690634,-0.15897412604743774,-0.053941466642483726,-0.0027286251968901346,12.929536264527355,34.21108,-0.3705271470301172,50.891367990282845,-13.818510034781093,33.62441133306219,-1.783895820384743,6.211935999999998,33.07000000000001,1
0.9038753994160166,-0.0273543270977059,-0.14479168492490602,0.0016775541304156064,-0.0029270845909800595,12.935567924463658,34.21203,1.3146153671556222,51.0726515165419,-13.928005068427494,34.22167487827191,-11.234184579014673,6.220890999999999,33.070000000000014,1
0.9095398052126225,-0.031150966116093016,-0.12305607371421189,0.003632088396368491,-0.0029802326545241564,12.962639760926637,34.21172,3.540379261206424,48.94182187484137,-13.472060799651826,35.94611767142187,-1.6642698724432148,6.224728999999997,33.09,1
0.9120243963384754,-0.020346718134281568,-0.13094773001896817,-0.035088658272580904,-0.002822251469834313,12.969328565854365,34.209175,5.264482154234106,49.73336861620023,-13.819101691557997,36.19750189234831,-11.215365848087517,6.261826999999999,33.09000000000002,1
0.9038327280989391,-0.013281629483295561,-0.14862516472801338,0.023193872741042253,-0.0031558913482240053,13.00210135745664,34.212444,4.9521613313288935,47.740324608155134,-13.587343023192576,36.941146131222176,-35.53525962176441,6.309159999999998,33.09,1
0.903407397257721,-0.030296439958225067,-0.1468299342885279,-0.019506285291023714,-0.003206721935934601,13.026606352453047,34.215908,3.5241180030028643,54.521759056431264,-15.400166404257517,35.30398914700491,1.1831100844812892,6.366726000000001,33.09000000000002,1
0.9059496049319151,-0.024079507502374843,-0.15967813706507666,0.004128649391668763,-0.002708941157334768,13.029803227412925,34.210316,2.034496517296127,51.42537136698865,-5.378407051613112,30.171347432798157,-7.207683159563682,6.394869999999998,33.07,1
0.9043425255067168,-0.014334119922952627,-0.15139322257823354,0.04236951103718636,-0.0027017642233261576,13.052827619703281,34.211334,1.3885358172956044,55.65665166107021,-3.004706054023787,24.552681054222393,-35.392511352141796,6.3756809999999975,33.06999999999999,1
0.9070975415202492,-0.03899657897132276,-0.14764549752346462,0.00201916319983059,-0.0027764699551675724,13.058768559751199,34.210415,0.6633308796002653,61.81161386081115,-1.6630253837558833,17.663099142207145,71.94173922581315,6.365447,33.07,1
0.9057163187639311,-0.02911131406756774,-0.15107423153163743,0.017327125046875017,-0.002621094474634205,13.06052713630202,34.207905,-1.023761141643837,60.43523235585971,0.1056541939880168,16.001348471261352,74.4167640064505,6.361609000000002,33.06999999999999,1
0.907027163448966,-0.021067363729796427,-0.15349332877068772,0.044565120890535125,-0.002808473787520015,13.071803429211013,34.209156,-2.4752002949945275,60.82481713518051,-1.8638522252199186,16.290553496326837,158.6290383022883,6.374401999999999,33.06999999999999,1
0.9017122377226409,-0.011247140919729106,-0.17650618202068408,-0.04579447846294848,-0.0028617014871122086,13.060682162567927,34.20769,-3.3745820626559704,60.12942089080877,-1.6711816159291129,18.795107187157424,-89.89310682543382,6.316834999999998,33.07,1
0.9014662003301229,-0.029758994399913915,-0.1928190971389618,0.0035483068467506047,-0.0028113081964216474,13.05481081359298,34.20428,-3.7964868244228587,60.16450505975175,-9.320106364014643,19.395192608535545,-149.06258180886942,6.237521999999998,33.06999999999999,1
0.8972157869817512,-0.04078523390380518,-0.1852012044848722,0.056337773794404813,-0.0027667953772682837,13.054322456149686,34.209873,-3.454651027323798,60.43823537817039,-7.2652631842668285,10.094305997547849,37.32529977487446,6.223450000000002,33.07,1
0.9030247350869149,-0.047809547500966505,-0.1704171907392282,0.05700364659254879,-0.0027738413924999314,13.063853133886987,34.209938,-2.6667915946720546,65.01897534468826,-3.4702862469600615,-10.882043408750055,123.92146269389643,6.113433999999999,33.06999999999999,1
0.9058355603475734,-0.04258784241891412,-0.1561937422854945,-0.029630749565458945,-0.0028203387193293395,13.06710791726837,34.20992,-1.3838464931306518,61.97440895100842,-3.4459819881604354,-5.716891728807594,-23.173138671929053,6.043076,33.069999999999986,1
0.9059176436497576,-0.032097285845975154,-0.14924196365597056,-0.10822332711510443,-0.0029737490583564476,13.056317787402326,34.214493,-0.19906942819009624,63.003624516442684,-2.499330790838537,-1.8384986464663668,-19.53303623537279,6.008535999999999,33.06999999999999,1
0.9101086487882512,-0.028460173335849326,-0.1551498407678021,0.046013081867670724,-0.002923885735150208,13.049207212052238,34.210297,0.9571028820347756,62.43678272474799,-5.375600637744705,5.798114773359581,-282.39951653913977,6.005977000000001,33.069999999999986,1
0.9057949868155952,-0.04245085343415166,-0.15227738864213952,0.038351217248964876,-0.002928796175262789,13.06035289043216,34.21251,2.4450683063712666,62.55846862019654,-4.225789210074312,3.7160760597086138,7.724150062022543,6.007256999999999,33.07000000000001,1
0.8998668087421897,-0.036832675792259816,-0.15578516497362055,-0.03742004631593113,-0.0029603560969339096,13.060433255162724,34.21096,4.087735500573949,63.96689880847821,-6.562773873578122,5.775035414748452,125.49076898628127,6.0174900000000004,33.07000000000002,1
0.9052385558170967,-0.051699900255480366,-0.14859303860480078,-0.029089880203197045,-0.003082783067410249,13.04433907955978,34.217422,5.265676079316711,58.56222570573373,-7.657724909982133,17.933831238942457,13.283223630754755,6.011094000000001,33.07000000000001,1
0.9091078529178974,-0.03363058218233295,-0.1379832402550026,0.08291969051809071,-0.0032186289601775575,13.040522618844987,34.214226,5.465385569149741,61.35029531678094,-4.8833356846676566,16.304057315138405,19.587726464020157,6.078895,33.07000000000002,1
0.9010699841168407,-0.0014420333948131016,-0.17414709940040918,0.012574599168915877,-0.0029214427368533767,13.044792137810237,34.2144,4.342923985289856,63.24586121198182,-8.55169556724438,11.86212717006592,16.032216982375992,6.016211,33.07000000000002,1
0.9039512652229601,-0.040202255028741814,-0.1782160770991118,-0.07176251012099541,-0.0028291714721946134,13.034317560164904,34.217216,2.1650687568924503,61.25962318655735,-3.7870459012496096,18.877398881531725,-17.588070478150595,5.962483000000001,33.070000000000014,1
0.9037743926395129,-0.039442716822363104,-0.17674448847807755,0.01907941257261636,-0.002852159453490927,13.021947270875113,34.214825,-0.33293453823081776,64.89105860840381,3.092010324321208,8.348689726232287,107.4864811361463,5.950969000000001,33.070000000000014,1
0.9011986547161425,-0.02917276275430367,-0.17440637676236975,0.07775099793483752,-0.002919989762561446,13.033665372388581,34.211246,-1.8362722857322666,52.973043350808304,7.005477817724381,-0.5930703974596565,-30.67516463223187,5.961204000000002,33.070000000000014,1
0.9018085732977944,-0.04543091909952456,-0.16891831573087013,-0.021493577460187596,-0.002985233338179278,13.039308041251983,34.217453,-2.3385137760871553,67.08104131260528,3.9878821771994586,-7.081278590283172,-99.03834620145712,5.869097000000001,33.089999999999996,1
0.9048870788440924,-0.013617833892746482,-0.17189387073792625,-0.07271828500085326,-0.002968852987933967,13.029544362059521,34.22204,-2.718021569236627,64.68207554618641,-4.976492517205099,9.137367854622164,120.22003930534267,5.8703769999999995,33.09000000000002,1
0.9000847298830209,-0.0240794363406063,-0.16456234858489993,0.03113144235603416,-0.0027207321527253927,13.027367703837948,34.214546,-2.8710646606504606,53.330551548181916,-5.311249808981645,26.478002167178126,-47.04997589585547,5.904916000000001,33.089999999999996,1
0.9140484218800554,-0.019336875298660416,-0.15691364885480397,0.035313216970917126,-0.002776489687371718,13.03605657933982,34.220604,-2.6333884311765776,56.97902166264405,-4.685881328668537,31.871245350758308,-60.22587680842593,6.020048999999999,33.09000000000002,1
0.9063579421224832,0.003788919138694603,-0.17086200224095816,-0.06616634912503061,-0.0029669879920736246,13.034925970855394,34.222317,-1.9456138360013346,53.24545436790792,-12.75226518474506,29.938997505745768,2.8656068094715694,6.073777999999999,33.09000000000001,1
0.8997391892749556,0.023646035232825244,-0.1887283966178363,-0.05596200970500812,-0.002973721769406736,13.02242000656679,34.220478,-1.012192843514668,51.2159437917997,-21.62720384740113,31.011634911769505,53.552351585329376,6.0814530000000016,33.09,1
0.8757646280174282,-0.040291925523687454,-0.14392286131797172,0.06504032603107061,-0.0028481835367127743,13.031099955667827,34.222527,0.522841101405304,52.73046445624542,-16.15666812099432,29.617730925619245,36.41702596163703,6.055868000000002,33.09000000000001,1
0.9160312514033875,-0.08320674938272281,-0.12475707114690308,0.01612166125233736,-0.0032161996106199135,13.058087635248206,34.218826,2.378928025249989,53.652932329434094,-18.515186599706823,27.012618323460156,-109.25793263691035,6.037959,33.089999999999996,1
0.9233089156396161,-0.09405524492389081,-0.13819088164989224,-0.04073287242147206,-0.002535285948247032,13.059644612328562,34.22139,4.038483665456269,55.948024256421455,-13.259246791470666,27.091179593781703,27.37956804034375,5.939456,33.070000000000014,1
0.9065191710724755,-0.06830520743491612,-0.10810798658141046,0.03732409669343006,-0.002999922082806163,13.050539549549713,34.22567,5.302984445664798,54.63433724427101,-15.10009740620136,26.452268100158527,51.321877720181476,5.9036370000000025,33.07000000000002,1
0.9153942628553968,-0.06461379186714179,-0.12959067691116083,0.052440624179150255,-0.002881931509632153,13.060699958130078,34.2202,4.766788873255722,55.382807802916055,-13.473226714894023,26.90347309722657,-6.961434794738122,5.880610000000001,33.070000000000014,1
0.8999707299136206,-0.06386950821822229,-0.13629618963837387,-0.04558376297661807,-0.0029450609401343165,13.052472841713131,34.223106,3.876940443084623,54.21606042185614,-14.850756365217604,27.511953669374616,-27.3434892634435,5.875493999999998,33.07000000000002,1
0.9144974982371487,-0.06657041095411216,-0.1421536572774223,0.0215748596829256,-0.002778836544535369,13.042859696391657,34.22498,2.9529276149028503,55.01252074241728,-14.186624044606646,27.72907943608948,-3.6280901261764402,5.879331999999999,33.06999999999999,1
0.9035355211624626,-0.06196792399555546,-0.14332663777606142,0.02863838149842508,-0.0030402515615981962,13.052812503554357,34.221725,1.3234852121147205,53.83730070076929,-15.149829457296264,28.159813499049296,0.4245216770473702,5.881889999999999,33.069999999999986,1
0.9097707751917652,-0.056500571249153184,-0.15603695416360855,-0.026614717321147542,-0.002879869410373024,13.040527757118257,34.223938,-1.0003276461517876,54.43458872219761,-14.557095662633708,27.85384024513133,-3.848279214222509,5.838395000000001,33.06999999999999,1
0.9025122640672956,-0.056895383739356965,-0.15450004321551014,0.010245949720929622,-0.0029187314042001316,13.036988082077228,34.222412,-3.6141373248907116,53.64973438879484,-15.404129078718105,28.149519638060752,-15.338735610289737,5.857584000000001,33.069999999999986,1
0.9091616271293669,-0.06643079024990674,-0.15642765445840298,0.005586432374972835,-0.003168365731447177,13.042772911906635,34.22605,-5.264624667674643,54.53978374722244,-14.599105602333466,27.83773238269201,10.494159638814647,5.851187999999997,33.069999999999986,1
0.9022742304635254,-0.05786610622926179,-0.15949597696140697,-0.0372547759241783,-0.0027533449800576128,13.028639876771337,34.22398,-5.803821392302365,53.68666391155967,-15.423927292173367,28.580855965907638,13.678037536334406,5.860142999999999,33.06999999999999,1
0.9078431645943649,-0.058483459641462364,-0.1601948037460646,0.041661295025230256,-0.0030121197739960285,13.03354387502265,34.222134,-5.817011746243768,55.7830734772276,-14.14323504872846,27.411595292134944,-11.7525108844697,5.851188,33.069999999999986,1
0.9052668231968816,-0.05887689790401571,-0.1512554511725711,-0.015374091732639712,-0.002932584727357002,13.037774115646846,34.22385,-5.238910907813974,52.617300905989495,-14.791590242656861,29.231814316837983,21.131769260013662,5.970157999999996,33.06999999999999,1
0.9104678220559721,-0.06593923443647823,-0.1468663558931012,-0.0621993814757112,-0.0031026518902207848,13.030725409092772,34.22014,-4.33728496175044,54.870046953153604,-14.046749840379354,28.25359935323888,5.657658940563417,6.054589000000001,33.07000000000001,1
0.9048369350142571,-0.056662779365189535,-0.14007159160541324,0.02255035214700771,-0.002997168609082838,13.02998520717455,34.22696,-3.0193650377376287,54.29129859399852,-14.59532249007842,27.58145066245276,-5.908088338799583,5.994464000000002,33.06999999999999,1
0.9104571905518252,-0.06487424713152344,-0.14475951205966736,0.03064051035532962,-0.0029023069735195895,13.045282249785924,34.22433,-1.1936365967524833,54.59270945919611,-14.05221220054473,27.874966965777492,26.823073914200442,5.966321000000001,33.07,1
0.9036474188680059,-0.06395571801774938,-0.14637670833038316,-0.02893356545849595,-0.003054946199859397,13.042369021454125,34.224285,0.8741745329620599,54.48585088867233,-14.730792410113992,27.80301926495485,32.82696547422514,5.936898000000001,33.070000000000014,1
0.9103011533008224,-0.06451782326482684,-0.14207185199418704,0.027660288616102868,-0.0027296501585768163,13.030290637787088,34.22592,2.513485966423737,54.88242435355788,-13.89027698185701,27.791192199328332,-6.728791325981202,5.924105000000001,33.069999999999986,1
0.90337271739647,-0.06581740853041583,-0.15539667481748853,0.05299310977550928,-0.002812787530159352,13.038158173162467,34.22604,3.198329084665817,54.30117894769841,-14.273371016560993,27.85172424746715,-22.18001305932733,5.912592,33.07000000000001,1
0.9063683366669927,-0.06621494791200297,-0.1660508525119145,-0.02324233716875591,-0.0030837529732134503,13.033040686617912,34.22574,2.848262257071374,54.81708615957715,-13.49249208137598,27.423366215206947,-31.652386898650146,5.913871,33.069999999999986,1
0.9003229195859617,-0.06520529590309299,-0.1715741779747499,-0.013948334451685716,-0.002899530010452173,13.018271108160976,34.225876,1.3774433801416572,54.27606557429497,-14.376645041189802,27.212808009479833,-19.01680026373725,5.959923999999997,33.07,1
0.9074621498840982,-0.08077738785552814,-0.1674573964512854,0.04876621702246707,-0.0031312292891157766,13.022882254607879,34.229454,-0.4144751799710233,55.812020366255844,-13.323981982670684,26.163457987831055,5.610687648032062,5.910033,33.07000000000001,1
0.902668877839333,-0.07512619175302614,-0.16304987076306424,-0.03090981581020214,-0.002948109755808334,13.026018330468677,34.229942,-1.7471199259880947,55.41347036589152,-13.94767362938803,26.257126823476444,17.152635153470758,5.880610000000001,33.07,1
0.905978036168394,-0.07631829241672514,-0.16744418904865388,-0.04594463595389133,-0.0028703591805238396,13.012234252718809,34.22734,-2.4617530771914797,55.82196395902738,-13.331421405395702,25.809580187690887,-13.31594982536398,5.861422,33.07000000000001,1
0.9038851227573154,-0.07418569668165398,-0.16460426149125165,0.03650101842886402,-0.0029936113951166657,13.009455056743683,34.227295,-2.6322902379779762,55.349699881907796,-13.910012907130874,26.172336704378722,13.717443115444315,5.8511880000000005,33.06999999999999,1
0.9060751646729438,-0.07701232194668711,-0.16077094581303975,0.027229679828294252,-0.0029736504080480606,13.019938187478798,34.228336,-2.237078206932533,56.207521368950104,-13.42400652630413,25.836566134615442,33.10873927121356,5.8447910000000025,33.04999999999999,1
0.9052051178399998,-0.07776243318185806,-0.15315706492316208,-0.0720424457609522,-0.0029911689479549144,13.01568751042585,34.223248,-1.5840636538919972,55.40644127373897,-14.012965559830526,26.15670551459576,-28.59479100058116,5.844791,33.05,1
0.9090206007156736,-0.07054304199789833,-0.15026912865459144,-0.027488226434400756,-0.0028371420136263123,13.004645746642012,34.226948,-0.6342994807605685,55.97888754707259,-13.567555414167456,25.859260365441674,-24.47139134353376,5.840953999999999,33.04999999999999,1
0.9068707021059916,-0.06686541078784661,-0.14052301601630088,0.05911330296637751,-0.0029414937838344096,13.009720393313312,34.23168,1.1591038624628276,55.15588107723692,-14.131592039298285,26.31939736209686,4.5249700153045955,5.834558000000001,33.05,1
0.9089874429594919,-0.07047574445355281,-0.14494817407783492,-0.01064361093104197,-0.0029637804867657675,13.022156718138305,34.22887,3.6928145236070864,55.69964796922683,-13.842456873707132,26.061098162585264,-3.0384093547059137,5.820485999999999,33.03000000000001,1
0.9048591461859343,-0.06884382894353853,-0.14089507215613964,-0.030925907131272957,-0.002945111337931751,13.010572503635569,34.23203,5.701948494361779,54.94286278708767,-14.160566071114886,26.127376075931277,-15.485644106627236,5.825603,33.03,1
0.9093993119268465,-0.07043892418217165,-0.13824057994352104,0.057152188107274945,-0.003002567514337303,13.006559529143397,34.229134,6.534247832455809,55.71359487237659,-13.846690426256913,25.855379875233684,5.014076295732146,5.807693000000002,33.03000000000001,1
0.9070279554499939,-0.06941246875927062,-0.13928774570449565,0.04624976085242581,-0.0031504835048759253,13.01718956605173,34.230778,6.3594562715216165,55.44497677469528,-14.025250855934953,26.22743541068328,11.906930575953028,5.808972000000001,33.03,1
0.9073011138251362,-0.07013564309856893,-0.15247829141926142,-0.04480697010859604,-0.003102049464048703,13.00841207277035,34.23106,5.151862383415692,55.78485023485773,-13.481091053404947,26.011947268576083,-5.379745507932108,5.797459,33.05,1
0.9055853240072665,-0.06980316773942188,-0.1533833240400093,0.019933456347801796,-0.002833112707324863,12.996637972799913,34.23332,3.135256651766363,55.36736089757504,-14.147450733736614,26.159422841248865,-10.162395927099427,5.794901000000001,33.05,1
0.9086012806284066,-0.07266493492513813,-0.15254897865076913,0.04262956098993651,-0.0030549468573170292,13.008512873295585,34.2331,0.7832637016029041,55.94493556510031,-13.841866339939454,25.85671803918121,19.508591170775073,5.7859460000000045,33.05,1
0.904169438356078,-0.07265674586765215,-0.15645756077585213,-0.03190747804816035,-0.003247272714534738,13.007910957456133,34.234108,-1.101857153235514,55.72598121117443,-14.090054365779942,26.139315964476665,10.536555348034499,5.771874000000001,33.05,1
0.9069848906112769,-0.0746236705060407,-0.1597802689173192,-0.0479323337297179,-0.0026796893298630517,12.99943457470511,34.236317,-2.485359256324259,56.111679349415276,-13.352000810451589,25.862943370317794,-13.939638150229664,5.7718739999999995,33.03,1
0.90430327476903,-0.07247775686306142,-0.1551968276760313,0.060614925429308755,-0.0029143865290627937,12.998251739748698,34.233658,-3.032571959578648,55.61992976014833,-13.738183063723767,26.135110566250095,7.6732968068090734,5.768036000000001,33.029999999999994,1
0.907806850150159,-0.07297327908311921,-0.15401720720916942,0.015317301977886404,-0.0030550133594162312,13.012320745658238,34.2362,-2.943025558623192,56.255697910531445,-13.664869259852923,25.866954346580222,15.390093194730605,5.768036000000002,33.03,1
0.9040924439726484,-0.07224930069146134,-0.1547037809673926,-0.028353442448872238,-0.003337152211133797,13.006715999905042,34.23408,-2.64191823265922,55.762220511523985,-13.600421301446334,26.13058275017561,-13.818817808911144,5.764199000000001,33.03,1
0.9084284675303711,-0.07520156685515983,-0.15408810952302737,-0.0646328868794664,-0.0030751263936129028,13.00031822468309,34.235527,-2.4104417261136293,56.20947401767711,-13.486270290672236,25.872629023170607,2.233224733386276,5.770594999999998,33.05,1
0.9051437588406913,-0.07110267006983816,-0.15180807815961567,0.05841162522280863,-0.0031569346423640492,12.994035055761906,34.23917,-1.9976228539481946,55.65037152669281,-13.680496288817166,26.12275324691719,12.250800465917616,5.7680359999999995,33.050000000000004,1
0.9086558520638108,-0.07242632831622549,-0.14852578453291154,0.03521510201210209,-0.0026943769228699797,12.999795767229578,34.238045,-1.5069080429184984,56.16797826732795,-13.485708778180165,25.884900993218324,-0.7507147489066934,5.773152999999999,33.04999999999999,1
0.9063019070389586,-0.06873557850498614,-0.1427483902294617,-0.004668779288483057,-0.0030781122947534083,12.998740629542159,34.23602,-0.9214605806001912,55.4100943059402,-14.190008558103468,26.09844526783517,-15.260866218655165,5.782108000000002,33.050000000000004,1
0.9108788065160605,-0.0667142545369549,-0.14025420846786085,-0.10300597471695097,-0.0032023600579883732,12.987493383706406,34.237053,-0.32676771233495033,55.689817279938225,-13.836173151352362,25.989723468983748,6.190313472723409,5.7795499999999995,33.03,1
0.9065768704534589,-0.06248202721924377,-0.13856183062282662,0.012421638649959658,-0.0031439818954593656,12.977744895370261,34.236687,0.4867561096117347,54.9153681235976,-14.153638531066077,26.39760782039256,7.886254995308172,5.783388,33.03,1
0.910778264907596,-0.0646847644320787,-0.1413779093757331,0.053260895013840945,-0.0028161477221874836,12.982366344544769,34.237793,1.5894973585368113,55.32615769321097,-13.851865654101926,26.11714858696355,-2.0177319883996905,5.769315999999998,33.03000000000001,1
0.9028359947834422,-0.06234276517429204,-0.1460850250622552,0.0077180677844440005,-0.003006599516120757,12.9908966045377,34.23659,2.7222486002642805,54.96317070008716,-14.144628008741037,26.45008246348941,-16.202480980296173,5.770595000000001,33.03,1
0.9088775399902865,-0.06588957644964437,-0.1475801551318469,-0.05289322019250899,-0.0029562684408103034,12.977221730331594,34.23746,3.571853164130857,55.30903211079553,-13.857989613799516,26.039313387683276,-8.0969659752198,5.762919,33.05,1
0.9055578285178776,-0.0632129855146136,-0.13735700447262997,0.050914368708558096,-0.002935321416815694,12.965751171173462,34.239872,3.640334270116442,54.87696162243065,-14.138070975028624,26.37364412551718,13.975956335658715,5.762919,33.05,1
0.9153773903925849,-0.08235943342798027,-0.13965948235124753,0.07273404273040328,-0.002820111522142129,12.976338789341384,34.23623,2.8779141659438685,55.58828718228909,-13.930192470002401,25.95272351171632,3.8612589167896965,5.746289000000002,33.05,1
0.9035972834989952,-0.08357126479795282,-0.14157317036257597,-0.01676455988099215,-0.0027325102567303775,12.98051199700902,34.240967,1.7183990625418606,55.09428801212462,-14.836406778522221,26.666011098709536,-6.683179451458178,5.743731000000002,33.05,1
0.9217607730858823,-0.08086593770485492,-0.15827261544570312,-0.05963224981515556,-0.002702648994064561,12.966568747220611,34.242107,0.26552697742473347,54.55154283475663,-16.04987760227726,27.777398388519867,-12.678645651648113,5.750126999999997,33.049999999999976,1
0.8785664598832063,-0.03567570488451749,-0.11580338428990848,0.05377819220118394,-0.002938103417022557,12.957265693396723,34.242363,-1.7848455444680253,50.6540853583406,-20.083854717938664,29.859900305947384,14.60666097456257,5.792341999999995,33.049999999999976,1
0.9103906251577969,-0.013896320424710793,-0.11095291144636375,0.047648999926754414,-0.002711032592507534,12.96383526262345,34.243824,-3.7857254887529344,50.34819294357322,-20.49044245446862,30.793263097433528,8.994937256650468,5.83072,33.049999999999976,1
0.9222628465420928,-0.027680881873737552,-0.1166871205928476,-0.052170556780448525,-0.003328026169651862,12.960986627509765,34.24056,-5.031393587112006,50.742668837330974,-19.406334588771006,31.870297056633323,-3.7653574404248906,5.894682,33.049999999999976,1
0.9103953753861067,-0.002463777826029711,-0.11009081520897626,-0.052085225742161796,-0.0031957383246160186,12.949789370278149,34.245914,-4.2708941020971745,50.454572447565184,-19.695818897569566,31.339161918349202,-14.273132030053738,5.929222000000003,33.03,1
0.9190590975595385,-0.03083798424735224,-0.07668710321865463,0.03624568929479473,-0.002793423874894901,12.951245585182436,34.241455,-2.081264882048258,50.05570238217307,-20.413154606708623,31.29985384141628,3.624125931034475,5.927942999999998,33.030000000000015,1
0.9074389945150534,-0.006814777739123174,-0.1152517490841755,-0.025424124359075963,-0.003055174997079738,12.967101292766023,34.246014,-0.4409677108098411,51.15927106524782,-19.564116204790942,31.070908325274758,31.252186255278293,5.944573000000002,33.03,1
0.9102274520349608,-0.018513132953878055,-0.11821321526594547,-0.055983116415821176,-0.0034981924993044457,12.952248752280598,34.24675,1.3762612931851768,51.04527700380746,-19.664075927876294,31.182973380394532,18.962391286961832,5.935617999999995,33.030000000000015,1
0.9091699265608444,-0.023296784023538502,-0.11678203168841772,0.043244139155738895,-0.003159412017238366,12.948602530613922,34.247776,3.075901014333076,50.921518655585615,-19.87701193845183,30.931029778195725,-20.57058715706768,5.940734999999999,33.00000000000001,1
0.9080036395263418,-0.018025126522169654,-0.11987926076979437,0.0076685389511171485,-0.0028314362541839084,12.961571194515592,34.24407,4.218546101277173,51.07052607489124,-20.082915698771913,30.745063725444034,7.856691247497144,5.939456,33.0,1
0.9077557396329196,-0.029442752300985423,-0.13356127961651018,-0.0636774450020178,-0.002771046183441366,12.94570507776956,34.248966,5.119067955619066,51.26871207452564,-19.94336815837764,30.104731465455725,-18.109256799532844,5.948411000000003,33.00000000000001,1
0.9083137049083218,-0.038745363610809665,-0.1273253541265126,-0.029761704568676422,-0.00296996212952977,12.946419354068057,34.250835,5.465639659898649,51.255109500812395,-19.86260574941326,30.31997308689803,-28.761334863948303,5.939456000000001,33.0,1
0.9085723969658059,-0.04724910239581487,-0.12553791184214944,0.026350967345170975,-0.003145532422753135,12.949396931049323,34.24946,6.175534017308309,51.816504634163785,-18.927169079534035,30.392114478275605,2.120311049917018,5.938176999999999,33.029999999999994,1
0.9103894329548196,-0.04526813615060477,-0.11605461426514044,0.09573071091554862,-0.00342146534471039,12.92798215065229,34.252914,5.789340937166826,51.35085318302463,-19.072983528167683,30.800125639322207,11.836436307528594,5.936898000000001,33.03000000000001,1
0.9145790629732169,-0.0405484271457114,-0.09124528255333911,0.08705972003540763,-0.003440793187205651,12.940228666292091,34.25571,3.710908207876944,51.65888530606119,-19.125665434419865,30.60775893941646,-6.553783267714439,5.930501000000001,33.029999999999994,1
0.9115144294037525,-0.03739877788135589,-0.09499313559449385,-0.014021433287208807,-0.003801422878464562,12.935291325406096,34.256943,1.202883730449085,51.119892512134484,-19.530171920147467,31.127545223396083,11.742511129754408,5.924105000000001,33.03000000000001,1
0.9135706488747217,-0.03911562649849888,-0.08869093022208147,-0.0035265017889586233,-0.0026594124476606354,12.92318906875553,34.260365,-1.2431612963402277,51.408200150731425,-19.12193589658878,30.596948636260592,-3.026874369592531,5.913871,33.03,1
0.912864047456719,-0.03966349026754405,-0.08774377775870452,0.00440845674955345,-0.0034114769422544265,12.936183685518325,34.259148,-3.35451999654388,51.36300019290872,-19.268029945314726,30.28797281119201,-11.979023430931694,5.920268,33.03,1
0.9119413131217102,-0.04340723649418937,-0.09631334919224455,-0.05070708246330891,-0.0029159683943106238,12.927393300817181,34.261578,-4.9191532938472955,52.06377763773303,-18.857289729836904,30.056399311140765,-2.028769513866068,5.91643,33.03,1
0.9132167110653581,-0.04134934108421842,-0.0962358618837531,-0.03970049810721593,-0.0029533677413948935,12.915134767174605,34.262623,-6.074457783504638,51.34289751604557,-19.127730984435523,30.825854224050595,-12.61894307054089,5.921546000000002,33.029999999999994,1
0.9123377462587312,-0.04018040500045383,-0.09600062210119994,0.06123982239884977,-0.0035147250392594787,12.910720990613827,34.260666,-6.663561696671794,51.79144732985293,-18.881903469880545,30.593043937802886,-0.594410629818858,5.910033,33.03,1
0.9120484770171923,-0.03967257686920512,-0.09842292840638864,0.03729507377350206,-0.002426863777051536,12.921826549937682,34.26531,-6.61950637166511,51.759669833826344,-19.104424191133273,30.69319937686843,21.281508317140403,5.915149999999999,33.03000000000001,1
0.9113559282457964,-0.048611280986378805,-0.1060518441375944,-0.016857840519746183,-0.0030492076495187365,12.921007485063372,34.265102,-5.8431294563480884,52.0840216103073,-18.759515042524757,30.149163223437462,-18.98468068871392,5.902357999999998,33.03,1
0.9116708070437974,-0.0490774622048142,-0.10898820190753956,-0.0857582047983523,-0.002724894277419007,12.909132141982255,34.264175,-5.025531892883833,51.76856101357694,-19.12983650420724,30.63715856382714,5.896761611578822,5.904915999999998,33.03000000000001,1
0.9126944767240166,-0.047310336952304737,-0.10584771458657585,0.039036656501927225,-0.0028219488740118892,12.897857577389525,34.26661,-4.11601174680951,52.06572300907135,-18.87830703673527,30.42335702423833,25.479077576634044,5.893403000000001,33.03,1
0.9117921328374848,-0.04775354448806464,-0.101816898289926,0.046444492846637785,-0.003020343408162278,12.906614646829349,34.266136,-3.1457275788928842,51.83490416568387,-19.118205244151646,30.757965873345157,13.89394673085707,5.893402999999999,33.03,1
0.9118519953954846,-0.050706116026824934,-0.10368429892329674,-0.003007677307133454,-0.0033798241280171303,12.909171921147317,34.26707,-2.202564057686607,52.16661824893492,-18.883388854275253,30.56569622123871,-25.789636120134585,5.8882860000000035,33.03,1
0.9115122339981937,-0.049164433706272825,-0.10496657978121768,-0.07916546135747714,-0.00242245546282776,12.898864293613533,34.267853,-1.2818260055331432,51.83383133920491,-19.117102396143864,30.7737150782668,-2.948753192977337,5.879331999999999,33.03,1
0.9130805301944468,-0.049389151591374574,-0.1007202082971792,0.02074744945393294,-0.0028456060856579977,12.888913828099739,34.264957,-0.47606917437983476,52.16858375834043,-18.87558573959994,30.480266165186706,15.629175759587616,5.880610000000001,32.99999999999999,1
0.9123639897220734,-0.04735776469907088,-0.09772150232755873,0.05923663991248414,-0.0030910251687716593,12.891293194706668,34.2654,0.25366191471188193,51.75892007792584,-18.98347029426594,30.951164372862337,3.097131923965487,5.876773000000001,33.0,1
0.9127943397118612,-0.04865310245148104,-0.09766215536705516,0.0023222935550884557,-0.003101084282064334,12.897792266739218,34.265682,0.8002592799028321,51.85571119939308,-18.909813980936867,30.196433020224635,-11.277274018787981,5.874214000000002,32.99999999999999,1
0.9110589768881865,-0.04623431904909966,-0.10289579446359062,-0.07339799773640486,-0.003113078380069709,12.883575903843377,34.265846,1.1986521531331324,51.57599389510748,-19.095119346916157,30.68266041188596,-7.745535822821198,5.862700999999999,33.0,1
0.9134593353752857,-0.046222556941478476,-0.1000786803489329,0.017906183805436147,-0.002889480861369384,12.874473380461918,34.270687,1.276575599116687,51.87367112661827,-18.90392690242388,30.507099428168807,17.721885184119813,5.863979999999997,33.00000000000001,1
0.911858118924347,-0.04379969063229944,-0.09775940247317538,0.05710215051215251,-0.0030316349935012505,12.882568564727856,34.26572,1.258617988805104,51.55067265163709,-19.09599128088916,30.627680859305006,3.7820962261936018,5.855026,33.0,1
0.9121510423323196,-0.04666093339635333,-0.1025905542571287,-0.025908135190995895,-0.0030511170638009627,12.884098858256223,34.266098,1.4139237335686041,51.81594708587107,-18.904490922065058,30.425376538165896,-11.919838626612068,5.820486,33.00000000000001,1
0.9114662618128763,-0.044603044578667435,-0.10438802715373642,-0.018132842130133702,-0.003078273152132949,12.867926361736302,34.267864,1.356445940043037,51.68259802019311,-19.0948397030742,30.767623327513974,-12.10445085774802,5.8422329999999985,33.000000000000014,1
0.9126156150267482,-0.042995690272836784,-0.10093614895011821,0.040854461761811164,-0.0029814523472910283,12.869795244646921,34.26689,0.9844070182003448,51.69865878052337,-18.90592871032592,30.615669976988155,10.565738423365387,5.838395,33.03,1
0.9111461205660529,-0.04346479237359574,-0.10503019898545647,-0.018251017326173253,-0.003274430116658188,12.872730102382175,34.267735,0.8955056904577487,51.623852615471364,-19.093243795984204,31.045995753966707,6.964321453398751,5.835837,33.03000000000001,1
0.9115368253793636,-0.045848315221351854,-0.10837673835689171,-0.0312275548439081,-0.002974302463732208,12.856611398446091,34.265194,0.891401534579946,52.05338768168181,-18.90762538773103,30.438282157922636,-8.527980228935965,5.8217649999999965,33.03,1
0.9114950816125839,-0.04530547758398784,-0.10395913125254677,0.045552420869944224,-0.0030774054459680278,12.854735252641486,34.26713,0.9622967381051292,51.56567305055412,-19.09146803701419,30.433206696478415,-6.563535903163476,5.830720000000001,33.030000000000015,1
0.9128073815748452,-0.04657711166984543,-0.10119943166196986,-0.006978621968422307,-0.0030129875719289334,12.86369336901177,34.268723,1.0086038906311434,52.11269581442876,-18.909481873704678,30.362341284844195,6.588678764463898,5.8281610000000015,33.03000000000002,1
0.9114728321816974,-0.044994926626910306,-0.1021005549084713,-0.05328340932241142,-0.002845012437121712,12.851094160309316,34.270016,0.9739364879721365,51.64035675881154,-19.089507404895468,30.452844178623504,-4.574818580925154,5.8281610000000015,33.030000000000015,1
0.9137320074909399,-0.042336937977526835,-0.09408065481212574,0.017932407985044176,-0.0030836943279544306,12.843962015153366,34.268665,1.1354622061989759,51.96526466970527,-18.911599279667715,30.329146361973788,-4.579836834084588,5.817927,33.03000000000002,1
0.912243140497405,-0.04202436014464684,-0.0914033591548961,0.02970805105638705,-0.0029380742586659165,12.855585245009332,34.269264,1.8385425092817014,51.64108977687616,-19.087129594385004,30.585334132963627,5.716701683813097,5.816648000000003,33.03000000000001,1
0.9126925104867522,-0.043371267333490914,-0.09813691779947273,-0.04165700106700225,-0.0030089121836974256,12.853573602940097,34.271534,2.8360869903974186,51.829382415435184,-18.91444794740453,30.236060241256336,-0.7477820164436714,5.810252000000002,33.0,1
0.9107048369815772,-0.04325700999108934,-0.09928855905351751,-0.012556899542269687,-0.003118568682419289,12.841403184256583,34.2712,3.4872378388682908,51.451780685261,-19.08333432685314,30.57612558795189,-11.639462092112348,5.820485999999998,33.00000000000001,1
0.9121830168144548,-0.04414244095715426,-0.09321422658077347,0.06366443557210716,-0.002893181987912902,12.847185466500736,34.270702,3.9008382169381854,51.644708466719756,-18.920493400855758,30.754435728126676,5.660264249869815,5.814088999999999,33.0,1
0.9119138877624702,-0.042284921528749714,-0.09589659722838241,0.013434551694557081,-0.003217377568985436,12.853689017660864,34.271774,4.130751253113469,51.41940398207476,-19.069842177483316,30.668817257330286,5.475425134434942,5.8115310000000004,33.00000000000001,1
0.9122958593231865,-0.04262879221252799,-0.09612862147092055,-0.024544921122826396,-0.00294711515860531,12.841095410597815,34.274025,3.5429960751731153,51.4403560631472,-19.01928630107139,30.6912624935696,-10.506014759738662,5.806414000000001,33.03,1
0.9132434241276569,-0.040759632371532316,-0.0907736663859679,0.04470248973468118,-0.0031263759188214562,12.839417797911514,34.276333,2.195605865764028,51.45675950126101,-19.132833599821424,31.06607827100449,-0.9669542723263089,5.792341999999998,33.03,1
0.9139655919766771,-0.04265517223363144,-0.0897974964978262,0.014954210893077921,-0.0030483296566032156,12.850203236538423,34.275417,0.6851720539372258,51.6014090106773,-18.88340129080374,30.57742279632273,11.10312863807983,5.798738000000003,33.03,1
0.911938081396812,-0.04171989846240091,-0.09758221955044383,-0.035392242834041514,-0.003269605246771695,12.842503852264104,34.276276,-0.5890169352764739,51.47396631297668,-19.131560590042795,30.8113246449726,-5.718389481561963,5.7961800000000006,33.03,1
0.913307637999031,-0.04210025391766108,-0.09541875732606445,-0.04437191688573469,-0.003129451061807856,12.832124688957702,34.278008,-1.6002503305306122,51.62810346613025,-19.021830206322587,30.561504427515843,-10.218842364622665,5.797459000000002,33.030000000000015,1
0.9123185630639377,-0.04100461760644987,-0.09282485805291303,0.07153908286390015,-0.0032059086838223992,12.829145095037944,34.27936,-2.2134278544396113,51.543742759063036,-19.06603174908739,31.02140469002341,10.937858212028623,5.794901,33.03000000000002,1
0.9132672699360783,-0.0432053505257358,-0.09056795156291947,0.013257545279453742,-0.002990828143238886,12.842007111245781,34.279575,-2.3302622928799184,51.74961183283228,-18.92556342214855,30.592103996458775,6.768914563973827,5.793621999999999,33.030000000000015,1
0.9111940076068533,-0.04275079816651027,-0.09517861668823124,-0.037737618908198586,-0.003421694543087211,12.837857635630854,34.275078,-2.0880304053760264,51.51418713983935,-19.07701468323145,31.057363158230313,-10.248963864691365,5.783388,33.03000000000002,1
0.9132706232201717,-0.042767044013092025,-0.09863650324460028,-0.06897580752297307,-0.0031054431114309095,12.823394127345171,34.28046,-1.7642900639972872,51.732513250174584,-18.922003494581684,30.862016399917767,8.326578226979352,5.787224999999999,33.05,1
0.9126177239034432,-0.04267115736315388,-0.09288929438963228,0.04158495967482076,-0.0032406888255749754,12.815759524568785,34.27894,-1.4178868317460702,51.16760601489398,-19.078356607794017,31.149311377893266,14.223552974959045,5.789784,33.05,1
0.9134571359973667,-0.04264303593486365,-0.09107548992591423,0.05091740454853949,-0.003001455392351536,12.82169810623413,34.28087,-1.16463709693371,51.70214043687655,-18.92156512051387,30.84680935981268,2.8890574037916488,5.782108000000002,33.05,1
0.9109953378712373,-0.041549488024221065,-0.09464929113922115,0.009233838286168694,-0.00289403674888424,12.832139307420857,34.283344,-0.9847868377154528,51.1189409507453,-19.07838128616973,31.154644799851745,-18.933776317011507,5.778270999999999,33.05,1
0.9123828449534589,-0.041337705632424754,-0.09950775261800125,-0.06653082698061867,-0.003163342154598345,12.821551455615733,34.28226,-0.801779150806666,51.37177978858926,-18.921725209620796,30.84618346749436,-4.475757605838643,5.761639999999999,33.03000000000001,1
0.9120360407689727,-0.04242994010328093,-0.0969078391744513,-0.006666013932763177,-0.0030225809771142606,12.816008078521024,34.282314,-0.7393194435134856,51.40322912706668,-19.078164211249398,31.14205147738859,23.242061298266123,5.769316000000001,33.03000000000003,1
0.9138201416553899,-0.04459061958150531,-0.09218891203797815,0.05466246469155092,-0.002987395417188001,12.815097230304032,34.28279,-0.5700429481983315,52.073194054666295,-18.921915719852926,30.659495728955505,11.355465769979443,5.766757000000001,33.03000000000001,1
0.9132839012393278,-0.0443847926745008,-0.08434264949113043,0.028550295437119583,-0.003485450843633311,12.82532176616765,34.282833,-0.21411689459079006,51.41238921723147,-19.078060493521622,30.93720163346037,-6.608971405891333,5.766757,33.03000000000003,1
0.9135664999409373,-0.04144397345815701,-0.08415876703571759,-0.048785369884252534,-0.00294924054215841,12.820337710556554,34.280136,0.39581983827642336,51.84248296332343,-18.921898270641282,30.715169937975052,-20.80844407140129,5.759081999999999,33.00000000000002,1
0.9134685467742522,-0.040929632228877716,-0.0845679385997874,-0.07303033686587682,-0.0029919086343201946,12.810134668943473,34.281914,0.9163863446344314,51.21525710008005,-19.078156066428033,31.071676845621443,16.15638602783987,5.766756999999998,33.000000000000014,1
0.9142304145048308,-0.038139637266504677,-0.08492638373009645,0.04870865703030484,-0.0031058055470482705,12.807806301549938,34.28144,1.5840802147899822,51.89916002251458,-18.922114454290053,30.845670952115203,10.410538204585453,5.755244000000001,33.00000000000002,1
0.9127173880741567,-0.03938401586598618,-0.08660432234273849,0.05453356439962987,-0.0031116037249717364,12.821421720330273,34.28376,2.5806007132029083,51.39332633306783,-19.074964838343465,31.156795276636856,-0.852260615378735,5.761640000000001,33.00000000000001,1
0.9108404659518015,-0.04437626049055583,-0.0930821170587657,-0.00857415495589122,-0.003074642779469143,12.823681342643262,34.2827,3.6917574080818123,51.56445987203994,-19.02687346875405,30.600304067407677,-25.688290374146835,5.7578020000000025,32.99999999999999,1
0.913433069067917,-0.050532733675954344,-0.09036237252509795,-0.02926564364697265,-0.0028828644811781465,12.804985750309136,34.285564,3.8960031661937027,51.63889278659685,-19.126968997710588,30.547626673700034,5.59359940983283,5.769315999999999,32.99999999999999,1
0.9132681069037325,-0.048280216886829916,-0.09728449626321573,0.060782831748864105,-0.0030073488209492907,12.80217093372125,34.285267,2.9398740118140783,52.23409325104693,-18.82386237672966,30.565159036801152,15.526165844802563,5.776990999999998,32.99999999999999,1
0.9100094673148412,-0.045276104166535394,-0.10571476489737437,0.05324221866756048,-0.0031739222423462113,12.815788703261845,34.285084,1.4326770262135018,51.283026402164936,-18.868892274033584,31.136408985702435,4.531310564966545,5.7795499999999995,32.99999999999999,1
0.9102777050807819,-0.04649836307296938,-0.1182380132858589,-0.04752310369056986,-0.003259354982484571,12.815451239181675,34.287094,-0.34660018144256577,51.911295595854654,-18.961781680548317,30.70617677787701,-11.301983370308257,5.782107999999999,32.99999999999999,1
0.9108192471311233,-0.04859253457621627,-0.11907315128650332,-0.04750086617936548,-0.002929498180875495,12.804187389372139,34.288933,-2.043372077463588,51.51340702556396,-18.92063575730118,31.24473208933186,13.411636657438136,5.779550000000001,32.99999999999999,1
0.9100814531976039,-0.04662580868351467,-0.11077969691066512,0.05399743611811582,-0.0029549490829972962,12.808313731516957,34.291058,-3.1121877583264372,51.91043751869123,-18.958530119978484,30.56951608576869,9.138114295078049,5.776991000000004,32.99999999999999,1
0.9145466135675261,-0.06766492504026107,-0.10006698971423,0.029646790355934986,-0.0030568952087929153,12.821037774042411,34.290333,-3.1303952335217704,51.70298779888104,-19.079602007040485,30.495563480533992,-17.71312562444763,5.765478000000001,32.99999999999999,1
0.9176132925433402,-0.059125617721054444,-0.0989165794663009,-0.0451898565986317,-0.0028907387163257785,12.816467422173805,34.291153,-2.782345137390995,51.497976288705786,-19.13123610059721,30.54141164398421,-27.08694348405365,5.766757000000002,32.99000000000001,1
0.9217516559305328,-0.03570007553608849,-0.08722502516165791,-0.05676185654755799,-0.002970351524475097,12.80435664316979,34.291008,-2.4595346420372546,50.4517387174569,-20.05268366908926,31.260355543827,-1.410651419691659,5.755243999999999,32.99000000000002,1
0.9109496136294511,-0.01739601442741312,-0.1048825580763919,0.05171758760517614,-0.002849210680642899,12.80568817625817,34.29636,-1.3533395303745055,50.56534604349259,-20.918120585683344,30.532135210701284,9.688971473896107,5.756522999999998,32.99000000000001,1
0.9056578746632405,-0.04163652727190426,-0.08181182744761828,0.0024343693102210663,-0.0031954909169246617,12.821519660236737,34.293484,0.75467006997061,50.82159741200547,-21.414886526096268,29.06201186503001,-5.536619561831423,5.762919000000001,32.99000000000002,1
0.9008986759225227,-0.05412857661132027,-0.102154193782889,-0.0577676792681843,-0.0028018294071073943,12.818068888399448,34.289223,3.1882848999496103,52.917539889102336,-20.703690959129684,26.137794626197056,-27.79201775538263,5.743731,32.99,1
0.9081167551812503,-0.08199504416890377,-0.09920406360662745,-0.0015445075271903917,-0.0032224403289984396,12.802924105792881,34.292442,4.8825482368790585,55.0894948715995,-17.771708255919542,25.134967039479058,4.031317138940341,5.706633,32.989999999999995,1
0.9221883722170695,-0.11842776932981418,-0.13172759594748423,0.07137686634215189,-0.0031945831326660955,12.815523335912843,34.289486,5.707659779748489,57.10862933947163,-15.4337824733862,22.2625131982732,47.599335973768866,5.576149000000002,32.99,1
0.9070141536302057,-0.10585041756065122,-0.12509286622208987,-0.020414521214032897,-0.0032342357052962062,12.82353950640729,34.288776,6.768414072548385,56.9389851840822,-14.854223676863823,22.34248769592189,6.322869815936876,5.522420000000002,32.989999999999995,1
0.9098281012340159,-0.09923243108928591,-0.09744887726297902,0.014289946351223973,-0.0030235415494884047,12.806854587982718,34.296505,8.016078093746499,56.9714227418927,-14.428018043403025,22.439812705016276,-19.89053933513827,5.490439,32.989999999999995,1
0.911711549877887,-0.08756507158547452,-0.10944023934691026,0.02413009536616529,-0.0026718426766240222,12.820000380232962,34.291107,8.050797603442307,56.796179660437836,-14.68352960268124,23.051182775852638,-15.096324752330434,5.4942769999999985,32.99000000000001,1
0.9099495614570443,-0.0960642731206565,-0.11326141597483504,-0.025648001756832874,-0.0033587525044871847,12.819383921593698,34.29141,6.514820582001039,57.115180727163946,-14.70497900733657,22.84454877922956,-1.3478374790704353,5.482762999999999,32.989999999999995,1
0.9113164913611466,-0.09252559518386443,-0.11339935992906586,-0.00531679744659945,-0.003053351669009746,12.805630793456775,34.28977,4.331151094280476,56.88820427433713,-14.947059021892745,22.903513442135406,-5.8749668184121004,5.480205,32.99000000000001,1
0.9114242220891701,-0.09799339819312518,-0.11003975620549143,0.016967512260214826,-0.0030339645002086797,12.817539100526973,34.29327,2.299535190156749,57.113267922913124,-14.86589960532668,22.004007141693627,7.721948106183068,5.464853999999997,32.97000000000001,1
0.9099654452336796,-0.09278749700043873,-0.11646967372513051,-0.03694084483193629,-0.0032954037251444524,12.80620629256157,34.292973,0.5946013200631031,56.884566160686916,-15.021336460517757,22.279888837769086,22.78175262052404,5.467411999999999,32.970000000000006,1
0.9117492897078765,-0.09617722123316487,-0.11144217862358603,0.02325253826246528,-0.003066904889619402,12.79726199140074,34.293804,-1.0405323333388847,57.11758751527082,-14.470256689676239,21.870499257649527,-12.64782486581522,5.466132999999998,32.97000000000001,1
0.9102767324020697,-0.09262339754674889,-0.11195773323669023,-0.008738470492870434,-0.0033172822107200473,12.80988697766769,34.293625,-2.331956339250054,56.88037386799131,-14.493385239527965,22.31163424383392,-6.7397052891191604,5.4597370000000005,32.97,1
0.91032960073433,-0.09752717739823236,-0.11941173343048986,-0.024804062823158616,-0.0031689980244069904,12.79439136416561,34.293182,-3.217873391963123,57.12170001401766,-14.288878285228424,21.78306462220772,19.255161098733623,5.463891,32.969999999999985,1
0.9094671195799192,-0.09361036669537126,-0.12153352394044648,0.022170035216436925,-0.00312781002731745,12.792224795950496,34.297985,-4.293185364401654,56.87536967441525,-14.110423033504846,22.21897949980679,-8.413971295435626,5.449819999999999,32.96999999999999,1
0.910489380468141,-0.09800316964293015,-0.12253762058328728,0.007025778117756007,-0.003225266986803104,12.8004766293804,34.295605,-5.311203556484638,57.13634514112214,-13.935591236855519,21.7765718786531,8.877732535477284,5.452377999999999,32.969999999999985,1
0.9083922311351528,-0.09395994655454425,-0.12861808070365047,-0.052539733162936864,-0.0031157181196711826,12.782864278089306,34.29554,-5.9123604523413436,57.083567965906994,-14.056988123414971,22.2283781998365,10.233311138318957,5.435747999999998,32.969999999999985,1
0.9120083268947096,-0.0958903868344278,-0.11974372709569682,0.041530142053916495,-0.003096749585640838,12.771817345866223,34.29607,-6.289890298674475,57.16466515052882,-13.946209335818482,21.766373823890937,-9.735680802054981,5.4319099999999985,32.989999999999995,1
0.9095707332741707,-0.08887227720711702,-0.12111284658930035,0.03092136538177695,-0.0032565286448420893,12.783400562992737,34.295177,-6.328695253941128,56.860208551014885,-14.051710283130616,22.239178768316314,8.064803667135603,5.421675999999998,32.989999999999995,1
0.9117237973915862,-0.09340186706369813,-0.12166026307774083,-0.02691354771332911,-0.0034729246021805863,12.778768660655118,34.294704,-6.036713935504737,57.136331194719055,-13.94978320811835,21.754929357192076,-0.9589264409615434,5.424233999999999,32.989999999999995,1
0.9086126263809136,-0.08904623515591376,-0.12533723820503867,-0.04401432973004498,-0.0030535623043772414,12.764222474331023,34.295357,-5.413256120355863,56.86415106875692,-14.051348562547814,22.25129372752737,-12.896995012310605,5.408883000000002,32.989999999999995,1
0.9132499007776352,-0.09414534169870653,-0.1135947984492491,0.07245673436435773,-0.0030664518622024266,12.761727971097727,34.2947,-4.461000867080588,57.13635027554267,-14.248077371229277,21.742419532312546,9.058475657355975,5.406324999999997,32.96999999999999,1
0.9062180417408331,-0.09019931602032612,-0.1289595289637183,0.01465117043285835,-0.0035124591037703112,12.776608653207493,34.29806,-3.309526073164925,56.86260105240142,-14.33456770411897,22.261776635464585,4.449975308442594,5.401208,32.97000000000001,1
0.9081328312571403,-0.09309625864313731,-0.13537825683081328,-0.019017796021328963,-0.003058634968324444,12.770318375382672,34.29428,-2.0240459578920293,57.13894837684284,-14.333238276375639,21.77972385169564,-14.730732220049772,5.385856999999999,32.96999999999999,1
0.9133804820619873,-0.09364465776363742,-0.10056427684871236,0.027730826235364648,-0.002999417756000828,12.751491142161104,34.29462,-1.3397710522248598,56.858801742736055,-14.211513808182533,22.70735857095685,1.973910573041325,5.384577999999999,32.97000000000001,1
0.9123549837542058,-0.09641186415150932,-0.10898237022685653,0.0480809088186576,-0.0030442734390736005,12.759815842225933,34.296032,-0.031836364198222354,57.14487204827224,-13.965813690688195,22.575407168482222,11.262695554526932,5.383297999999997,32.99000000000001,1
0.9101293972464445,-0.09371747481353229,-0.11026712045510324,-0.05563244567007358,-0.003037350521711152,12.760593843371906,34.29457,1.2289659717213337,56.845967210025336,-14.182446134199365,23.254232101387753,-0.22868394848865312,5.394812000000001,32.99,1
0.9093938577326204,-0.09712910640898295,-0.11901008436195955,-0.03490450190055611,-0.0030896850038222754,12.74312669276689,34.292713,1.4677530451377294,57.00371064932905,-14.056538795728342,22.73372883097365,-14.417448117577328,5.39737,32.99000000000001,1
0.9110513650547353,-0.09586817070581195,-0.11956188173656684,0.036530658337336215,-0.0030794961787800616,12.745191794565212,34.291935,0.712743658420232,56.48460349628664,-14.540993502689807,23.46053692656883,0.2714419426584967,5.419117000000001,32.99000000000001,1
0.9088847597839932,-0.10170659162644774,-0.1276328572122463,-0.008788723972001639,-0.003230660807001009,12.753512643004617,34.296543,-0.6612728362661718,56.6915153694394,-14.70590598017387,23.368565831824803,15.472345878303532,5.4293510000000005,32.989999999999995,1
0.9097071635446595,-0.09351474008622142,-0.13227749033526878,-0.05781613466329954,-0.0032867448809884912,12.737933068237417,34.29489,-2.209557730184342,56.06677036367195,-14.783093778999127,24.820528801384313,-5.427799205033182,5.463891,32.99000000000001,1
0.9127649638132922,-0.09214341916044284,-0.12796677795121314,0.03360022048726858,-0.0032979396114527154,12.726309495862271,34.295902,-3.5265978264650695,55.91037490907302,-14.951597592107396,24.83544486220121,-3.4590073161959536,5.474125,32.989999999999995,1
0.9057093826174967,-0.08195765777649822,-0.11572082756917404,0.04309230128215007,-0.0032627311353402495,12.735224447469555,34.29626,-4.2266639999229785,54.57349602741323,-16.173153246048233,26.265627657481755,9.724337008602681,5.500988999999999,32.99000000000001,1
0.9109787745703063,-0.09401402570795517,-0.11157771102423596,-0.025755603771380118,-0.003158708734055946,12.73587380517137,34.296654,-3.9433118702630696,54.82696301944085,-16.88775300973697,25.633390959024258,-4.405760528256709,5.5125030000000015,32.97,1
0.91152867060072,-0.07819565968865692,-0.11301693665070295,-0.046612584631612136,-0.0032043093657822177,12.72288874724802,34.29716,-2.968743456636225,54.08586246624779,-17.293961041955235,26.9598219542584,-20.07828025339877,5.531691999999999,32.96999999999999,1
0.9137372936741581,-0.07985176915371388,-0.10370894934704962,0.05860223761738103,-0.0028601158380142694,12.719793092158183,34.299343,-1.074780808632784,53.980964140428114,-17.725156580676792,26.541113775198447,2.6189715588844606,5.507386000000002,32.97,1
0.907653300595059,-0.06907231515202777,-0.10334436319554344,0.010055962186121183,-0.0033960583736486675,12.736248673532414,34.299652,0.9767232030756747,53.33964261973051,-18.3269737986915,28.01387652245742,-0.7665986030986182,5.518899000000005,32.969999999999985,1
0.9161740090368958,-0.11251797794829971,-0.0933267158439584,-0.03125428274313415,-0.003042385234292993,12.723356392237992,34.299313,2.610647757632892,53.35357431164956,-18.868268429443376,27.890055351436622,-11.471564328709588,5.536808000000001,32.99000000000001,1
0.9093157610815668,-0.06032065550005453,-0.06626354115964805,-0.00147996589880208,-0.0031460721833880367,12.703326166287818,34.30191,3.9134264851152607,50.68109993303258,-19.62869956125283,31.879637160480815,-1.5856712210280999,5.632752000000001,32.99000000000001,1
0.920271340146256,0.019739483117223896,-0.12038171083115815,0.022775653882134612,-0.0029707285318362037,12.718071326552495,34.30309,4.640380884172744,48.48942584028226,-20.697486135448518,32.815174328904234,15.427256739797645,5.66985,32.99000000000001,1
0.8985170633794873,-0.07128450646395143,-0.06262006548360059,0.03333043008215269,-0.0029663525332586983,12.703856437739116,34.300034,3.658727333088084,49.49927103582058,-21.202996146567074,31.502062814610902,0.19052794007066384,5.683922000000003,32.99000000000001,1
0.9210086157193019,-0.10383399818260924,-0.07825353076771699,0.005608488996724191,-0.003102694283275447,12.692004235485333,34.304264,3.06618013973062,53.02890068231113,-17.624989800785478,28.664698532782978,-17.639399723242157,5.6864810000000015,33.00000000000002,1
0.9230188180522271,-0.11978384589415675,-0.09419391022404647,-0.00689458015671168,-0.0030968753342702294,12.704042083269046,34.30454,4.234524962285691,54.494737746374874,-15.518144791803897,29.63809969145559,15.78669062931914,5.7056689999999985,33.000000000000014,1
0.906812925226539,-0.07654195550360847,-0.08424871201624212,-0.07992770154428953,-0.0032971349338536543,12.690785410097307,34.306427,5.868531096004972,53.40159168666013,-15.18355379258181,27.422679253746654,34.72564333908904,5.708228000000001,33.00000000000002,1
0.913510481103902,-0.07394287590836084,-0.10776655803347389,-0.009054699588216081,-0.00330534676746966,12.668886526450196,34.30678,5.523404531316749,55.122382792239144,-15.624820695333769,31.80706802340028,2.8042372307856858,5.705669000000002,33.000000000000014,1
0.9066029397860019,-0.057782410774459426,-0.1357529067431306,0.033398272325141996,-0.0031010147054826424,12.679956481372454,34.309242,3.2012943391673065,61.56566126326922,-13.124482335148917,7.20005976745119,4.226420029707977,5.682642999999996,32.99999999999999,1
0.905906097935347,-0.06716771258700693,-0.15713754791192125,-0.02844642309778513,-0.002607801187083,12.668059666041325,34.308235,1.424937829283293,61.66142820786552,-3.494459444023727,-7.655243390363925,-29.436264033921557,5.602050000000001,33.0,1
0.9071934488407378,-0.06241695064964534,-0.1492462883342335,0.028292575253771886,-0.0025613213657806983,12.653591238394245,34.308613,0.08460904687328749,61.109696789740454,0.5188733371624362,8.216205259182278,-30.377408981938817,5.567510999999999,32.99999999999999,1
0.9074489124383596,-0.0661130617079892,-0.16809080737242812,0.035799349269384446,-0.0029264896286801687,12.663026466702078,34.30968,-1.1809034046086924,64.86109263946763,0.5558617944408675,6.695918373282715,-9.965214698748376,5.596933000000001,33.0,1
0.8995045366964491,-0.04663682739704012,-0.18051371630985757,-0.04103413960203749,-0.003250057484648842,12.656788130051654,34.3095,-2.7973292182922336,61.74009023433237,-5.983836011366417,-8.945399495995074,39.05930752741211,5.593094999999998,32.99000000000001,1
0.8998107040203989,-0.05014629970176164,-0.1871625381873408,0.0011564459609038518,-0.003011654504010408,12.639606137416301,34.309032,-3.7958208795919863,62.24434387125644,-0.7267112878710259,-14.650411023119633,-19.55004237755236,5.595654,32.99,1
0.901815561084166,-0.045653270721350926,-0.17379478611130428,0.08102423111484151,-0.002791816400830331,12.648079995830948,34.311153,-4.028282329257149,61.24295278590255,1.8772466091416782,-8.609562798797741,-18.014761217249838,5.567510999999999,32.99000000000001,1
0.9049292312415386,-0.0626847322395425,-0.16855336685132552,-0.0295688729868496,-0.0029319194924811018,12.651098387417145,34.31164,-3.2226030249471593,60.65536494019507,-1.2351422318982437,-11.901987689899238,31.72871307128304,5.581582000000002,32.99000000000001,1
0.903256936703281,-0.07537458874545373,-0.17086779613035863,-0.03056758500569917,-0.002870851187153451,12.63570312073075,34.312943,-1.5668800472102866,63.59236428039253,-5.52745437557833,-11.415705999769676,-8.121702198498348,5.599491999999996,32.99000000000001,1
0.9068630152225778,-0.06891870684217123,-0.15947384935253306,0.05552753222390911,-0.0031064791864116657,12.642839031314033,34.311817,-0.5483500700083211,61.18227989139164,-6.675813521940655,-13.798521551249964,17.238569357627266,5.604609,32.99000000000002,1
0.905325466458228,-0.06033250194381525,-0.15883191394688828,-0.02333356161068871,-0.0026107061798715226,12.64426880795018,34.312965,-1.0778122824654774,61.754803740618584,-7.9916862177411225,-13.271457410422236,-5.984871264792703,5.5905369999999985,32.99000000000001,1
0.9058287089256912,-0.0591523748094973,-0.1597865492395077,-0.036813682949395736,-0.00308470714540102,12.629347907663016,34.313225,-2.660893466592016,60.29407795519157,-6.4493180384258615,-15.199617894833638,-7.588118567742026,5.587977999999997,32.99000000000002,1
0.9050334103871642,-0.05640200971741735,-0.15844958389610642,0.08712318800188001,-0.003399677009404663,12.640278109248321,34.31546,-4.033571419813841,61.623579765044866,-6.373482056439441,-13.077812173761359,-0.3978717585773157,5.579023999999999,32.99000000000001,1
0.9061173601774718,-0.056511479138724834,-0.1591465060657004,-0.06196863654106433,-0.002921381176281918,12.643210991908768,34.315548,-4.354490841160299,61.27867394387548,-6.542723294741453,-9.269359753057406,16.8141244995968,5.563673,32.99,1
0.9023407869404602,-0.059509706343303846,-0.16359433117488353,-0.03071324408315622,-0.002685828151681492,12.6254930089137,34.313137,-4.055845260314857,63.35576591332613,-7.36904687877084,-2.6433133701338125,-28.72163099355749,5.5508799999999985,32.99000000000001,1
0.9069738627574033,-0.06721066343363279,-0.16006879681030098,0.07817335352812767,-0.0035177840229692102,12.630575043575707,34.31563,-3.2181952770550937,61.028369919637875,-8.851613369092787,6.951576307327431,29.046981327594175,5.535529000000003,32.989999999999995,1
0.9059071197298447,-0.05500396538605179,-0.15642644661336264,-0.004264852731215769,-0.003247750669207665,12.640636936438034,34.313663,-1.9672534711894263,62.92877036437857,-10.161111270640998,5.591541208982172,-15.516717671224978,5.526575000000001,32.96999999999999,1
0.90618390643767,-0.06515674639850692,-0.15272424929275255,-0.08182704470140853,-0.0025202985391284166,12.625097678039415,34.31263,-1.143773841503522,61.84342988282045,-8.514860613341954,4.619721742932157,-20.826328344807035,5.540645999999999,32.97,1
0.9090849648406348,-0.0583937476086458,-0.14343204126435158,0.02696724230459529,-0.0029414473115849456,12.61638577027738,34.31429,-0.7703922309459245,63.51926751065308,-6.389809008011615,5.137904089635755,19.954163057197878,5.544483999999997,32.96999999999999,1
0.9071342942930672,-0.0730664035617139,-0.14253707587047718,0.015056787582098514,-0.003498245487651047,12.631108400288607,34.31731,0.3099808510242495,61.35496842592049,-7.878278793632541,9.002698285178694,35.40305585235954,5.536808000000001,32.97,1
0.9098681790052577,-0.0694018742050643,-0.14014352826098048,-0.034259673242736446,-0.0022493673726371095,12.626218372706022,34.316063,2.259821876878486,61.22922961535286,-3.4858326659132235,11.468894468358013,-30.345431285487766,5.548322,32.99,1
0.9050217052788737,-0.06330465299494507,-0.1524516617977114,0.038456967635699356,-0.0026342677198353667,12.615794427559367,34.3164,4.278074955507034,61.99512345706356,-5.9147662314272145,12.017876664935837,14.82858281955143,5.51762,32.98999999999999,1
0.9058187812674731,-0.08443179655740614,-0.1559588546103938,0.06751076886679895,-0.0030486154204749337,12.631094857392743,34.319027,6.110033679616007,62.5495820467567,-2.5371329236136417,9.150172842414069,-3.2446945500934294,5.511223000000002,32.99,1
0.9026253911001195,-0.0783293102530089,-0.1638080126487985,-0.02997588739843089,-0.0027593706390950006,12.632850209193878,34.31553,6.641078342000231,62.21248936695275,-2.985104000445145,10.568666061032161,3.6466068688965994,5.51634,32.98999999999999,1
0.9068429763582935,-0.08262974871238862,-0.16043163874855176,-0.012341487531595552,-0.002774998547107573,12.61921037404785,34.316837,5.133743699841177,62.38842092044862,-0.803829603788165,10.210490987914369,-45.953631373995066,5.517619999999998,32.99000000000001,1
0.9048656745885287,-0.05685948156849875,-0.16413952567882462,0.031084706649604436,-0.003176606314188989,12.626103581404394,34.314835,2.597175078197986,61.44910411126258,-3.642953297889234,11.287641200857852,72.90794264228832,5.529133,32.99000000000002,1
0.9056491863306468,-0.06743768883440833,-0.15804408707827938,-0.02938103815861827,-0.0038888267709531617,12.626111547893961,34.315357,0.26920388049043514,63.07198414349556,-4.219000806676687,7.487955818495929,106.62621832982353,5.495872000000001,32.99000000000001,1
0.9076354272042995,-0.05890538105740088,-0.15412051137701782,-0.023805067555226735,-0.0032717430960421297,12.607499271644446,34.314655,-1.1896765573715795,61.691053044970175,-4.75333961108159,9.68543844574647,-91.27719730387363,5.481801000000001,32.990000000000016,1
0.9063656677123721,-0.06016441960471711,-0.14873365545330097,0.05415768097645777,-0.0035326010129561503,12.612136704885613,34.313946,-1.9597222207785772,63.309417881039366,-4.073033911782814,7.158123135697006,-87.8545052677132,5.485638999999998,32.97,1
0.906111433972155,-0.07341673292202891,-0.15197392138243346,-0.012567634024122237,-0.0031376624747688395,12.61630103498974,34.316044,-2.074806782353375,61.26714177754659,-5.75791996258575,13.777998916323806,44.43769726347277,5.498431000000004,32.96999999999999,1
0.9079442188461471,-0.07737028760032705,-0.15610876728827983,-0.01770294072147229,-0.003244628235558792,12.601711026455785,34.313698,-2.074637184412249,64.90169410982548,-7.346820072714177,4.511713531242519,-82.82896729068882,5.522737,32.97,1
0.9048761495221773,-0.05574034142826137,-0.1582624223757545,0.03150500355121133,-0.0028611333675458268,12.60719731475989,34.31224,-1.8455703206248504,63.11480281715532,0.8053760893276899,-0.16267558326047368,153.46767075371736,5.673688000000001,32.96999999999999,1
0.9058560564857161,-0.0759282294762714,-0.15771260632330653,-0.023029084113083784,-0.003161764813953528,12.61556596803823,34.311493,-0.965020572142461,58.80824220481031,-1.6897752730547357,16.302334252202577,63.45475884865008,5.745327000000001,32.969999999999985,1
0.9077513548582246,-0.07778685385328325,-0.14676646218335182,-0.028605445276368106,-0.0031426070780384762,12.599344357791582,34.311954,-0.24661410646521842,58.08055743358868,4.8034018530527876,18.635509065386334,-236.94775413591148,5.747885000000001,32.970000000000006,1
0.9079534953960872,-0.06339658836857659,-0.14360516178880806,0.036633459490175255,-0.002559607729954415,12.602474362727262,34.31295,0.7467806403431991,66.8854410351328,-5.596890843666977,-7.454189047608255,-65.14841687217492,5.625077000000002,32.96999999999999,1
0.9081242660504046,-0.07364289096708665,-0.1430242550430062,-0.004962248736935776,-0.0032886082313941046,12.612881713885796,34.3136,2.262080639494539,56.75005860371356,-12.452613565832637,19.778417455155545,-53.6946398117756,5.635310999999997,32.970000000000006,1
0.9013715912817851,-0.07332734015113389,-0.1571298596127166,0.014942399123722451,-0.0025566605946295002,12.599656062134176,34.313595,3.521986961164948,46.58195708387549,-16.225637083197594,40.157572562511255,73.2381310942632,5.705669000000001,32.97,1
0.9113672589330652,-0.1012804873098394,-0.13790569066244374,0.029557010504252412,-0.002890533545421619,12.606360099943208,34.31304,4.6015207061637415,49.04028739081526,-13.221820408206014,37.091359979189455,180.68833270812328,5.732534,32.969999999999985,1
0.9175374539472404,-0.10092308121085314,-0.14254666194039275,-0.012711267707795886,-0.0033010795799348195,12.609051907372057,34.311638,5.073255178498259,48.72581365164232,-15.419967062922902,37.21592911194962,20.10548077296772,5.673688000000001,32.96999999999999,1
0.8977657034974412,-0.053040712293673686,-0.09855016298959021,-0.01972315588848727,-0.002464924191214124,12.589276912041448,34.31133,4.149734697127444,46.475013021857194,-19.454796399078102,37.050847605000826,-54.149285195774205,5.6545,32.969999999999985,1
0.9271395021729896,-0.018256959066591215,-0.09916874125329361,0.03407563819178726,-0.0030245104813962044,12.603862745276267,34.31312,1.308259167225136,44.45560621286765,-20.377401075603057,38.81396744459833,-26.005061420693167,5.651940999999998,32.99000000000001,1
0.8991270532591307,-0.04787898292131137,-0.09510868835610757,-0.02612380843282702,-0.0031400209660081848,12.603143142613675,34.311996,-1.4851290631535818,45.92035532822012,-21.047863765036162,36.303683915172826,-13.896539308946608,5.6468240000000005,32.99000000000001,1
0.8949265551683532,-0.09140150172064668,-0.12656118752194348,-0.006728022334858743,-0.002639588101547653,12.589055738176194,34.311672,-2.7897423359662588,49.58324581863462,-19.937714519175294,33.18236145131966,34.71270315152014,5.637869,32.99000000000001,1
0.922831658367389,-0.09894712500851822,-0.14684524500026672,0.023839279056995517,-0.0033931407244918465,12.601796772039568,34.310562,-2.525449602318601,51.91975663298709,-18.460966170990847,30.87430270838063,16.235844589066485,5.645544999999999,32.99000000000001,1
0.9131059517555846,-0.0669185891019963,-0.14606461936230905,-0.020862430696230304,-0.0026492652023631146,12.60173436416756,34.312508,-1.6678359408020758,52.03270978922197,-16.93352357858525,31.24597175553928,-30.78637261412743,5.660896,32.98999999999998,1
0.9060646180954114,-0.046481590697164836,-0.1257393580650705,-0.015982700968447068,-0.0031884290346048724,12.589690353566475,34.31395,-1.6193878192601232,51.74492671857437,-17.548697487512747,30.765980193163614,4.851339014948415,5.645544999999999,32.98999999999998,1
0.9141588302718008,-0.06443412357905974,-0.1017562267343517,0.03017383719340416,-0.0027488368687859106,12.595917786048096,34.310966,-1.9798463513624693,51.843065816966515,-17.074118230837602,31.59581945491359,6.564614656481438,5.644266000000002,32.98999999999999,1
0.9156136428413855,-0.08985359050826311,-0.09630274257774583,-0.05650607775654896,-0.0034962033037176086,12.596147095264001,34.311066,-1.5541251068734852,52.51836370219407,-17.625879542020037,30.017849618616992,-9.018699280775724,5.645545000000004,32.98999999999998,1
0.9134948163425044,-0.08568611787784816,-0.10709191378619853,-0.008591485282671701,-0.0033495788180532755,12.586866214430211,34.309395,-0.0761373997918544,52.296728051603246,-17.12038227324831,30.057733973660707,-14.82638878796179,5.646823999999996,32.94999999999999,1
0.908220161883359,-0.09442886403545013,-0.10808292128272058,0.04366358450615001,-0.0031640307511670955,12.596138923574355,34.307655,2.406304303244585,52.23696120439949,-17.67813218804205,30.105803177455883,0.18646351233518152,5.628913999999997,32.949999999999996,1
0.9114674946560242,-0.07648767895372298,-0.10643154353746116,-0.0033890772724952324,-0.002814003753555605,12.59832567814092,34.31216,4.594593703797805,51.90940130746282,-17.992157139167823,30.299937288072346,8.833742427270112,5.623797,32.94999999999999,1
0.9101164766633383,-0.06882225759730841,-0.12378819061565505,-0.005479670056719104,-0.0036499046534068367,12.578611653441707,34.313126,5.3540234920029075,51.98866335600087,-18.197241345956307,30.54946102488824,-16.48946042326026,5.619959999999998,32.949999999999996,1
0.9104689483242131,-0.06543368113039139,-0.12307233044345689,0.04421740683023659,-0.0028067595615524623,12.586062193072433,34.31024,4.461709256479881,51.90001762469785,-17.587219360484024,30.84754770561601,13.437655682037043,5.613564,32.95000000000002,1
0.9069236303464557,-0.07988730335040792,-0.13780155773118863,-0.019111673474418712,-0.0032323511467131664,12.585789851934155,34.31456,2.4789065830209625,52.286343528790496,-17.259573712634207,30.031320207187132,23.36845811951626,5.607167,32.95000000000002,1
0.908811450726321,-0.0789592714699278,-0.13987972516100486,-0.05030527287328218,-0.0028649124667634324,12.57108906699104,34.312046,0.08681812581065021,52.03272205499015,-16.890090459653095,30.124990721084764,-7.501554377386861,5.607167,32.95000000000002,1
0.9081859046927777,-0.07993872201572377,-0.13742074661196987,0.04593133928608142,-0.0033883894575617423,12.563692012781408,34.312363,-1.7953193312035407,52.26227114994082,-17.12180213147084,29.892349568830348,-16.7974279702641,5.596933000000003,32.950000000000024,1
0.9106125700393214,-0.0747492384272038,-0.1291278656793258,0.03782357427989329,-0.0025907010233571317,12.573953072964429,34.3158,-2.510654623174186,51.889647317720005,-17.292292159862082,30.201690402232835,22.570748931013615,5.582861000000001,32.99,1
0.9079981359551791,-0.07286202477488986,-0.14283476888476304,-0.019744190807752797,-0.0023077690941730278,12.568988798834853,34.316196,-2.397822322042054,52.08836867438541,-17.616090862359563,30.369660382889574,-6.661547045400733,5.575186,32.99000000000001,1
0.9076554362960032,-0.06912565670190682,-0.13687993731599235,-0.0654047434737153,-0.0031282315123827447,12.559604652359807,34.314278,-2.2037806568714533,51.92400571494199,-17.77610640969602,30.71089908267255,2.632816771070405,5.572627999999999,32.99,1
0.9080106604165996,-0.06936024846010154,-0.14369680470795196,0.05220096000168834,-0.0028081675242771238,12.55125623361846,34.315105,-1.8976624379989968,52.06709185572505,-18.01254385454562,30.08077147071751,15.753609783640314,5.576464999999999,32.99000000000001,1
0.9082683283015761,-0.07029564445333526,-0.13747595522477105,0.04577590454414231,-0.0032570567484967203,12.560631789784498,34.316677,-1.5153251694566858,51.93998931129473,-17.867806018691105,30.11860123586916,2.945589440993923,5.562394000000001,32.96999999999999,1
0.9084178044735748,-0.07528950356259244,-0.14206015777508701,-0.0005633640111902498,-0.003047207643628999,12.561931549695208,34.315536,-1.1664739074020731,52.05408425342355,-18.053976685184157,29.888389837673362,-23.112574537160707,5.559835,32.969999999999985,1
0.909483458129346,-0.07171519312388669,-0.1338653872364277,-0.09140763132353011,-0.0029768749799792176,12.553310381440857,34.316994,-1.006922747331109,51.95102082872584,-17.598679454141287,30.10082825018241,3.2743635185182245,5.543205,32.96999999999999,1
0.9105807719986257,-0.07165551982057121,-0.12534290687383381,0.01829787660172526,-0.003475939266791897,12.54554954312336,34.318356,-0.6526188661177983,52.044505519212606,-18.072105005289032,29.913975300776045,19.572966639112206,5.5444840000000015,32.969999999999985,1
0.9115575938326327,-0.06929379858967702,-0.1169646752423431,0.049629603693079664,-0.00306356076708557,12.551779086811946,34.31711,0.41248367092047794,51.95945372637003,-17.904542436830393,30.266018491185804,5.669177537827477,5.539367000000002,32.969999999999985,1
0.9104981371282124,-0.07208317997831765,-0.12024933641293829,0.013602855079728034,-0.002673114625452929,12.563895821542472,34.317703,1.875056236791142,52.03702692151721,-18.0854789605611,30.141718258120815,-19.676864594551205,5.540645999999999,32.969999999999985,1
0.9086482735370909,-0.06941118197392027,-0.12650190126025213,-0.07803565403114737,-0.002683789620252897,12.552514355817287,34.318634,3.339166462591376,51.96609844681694,-17.953621611282312,30.52922372478608,-13.99214636650474,5.534250000000001,32.969999999999985,1
0.909643172967817,-0.07025279286171818,-0.1197504863194443,0.01736515498044379,-0.003142336978680115,12.54148514633001,34.314686,4.218196752313614,52.03114728856088,-18.200369420520847,30.316456120086954,11.116927104544219,5.526575000000003,32.969999999999985,1
0.9116723238464233,-0.0681578253113318,-0.11192659051956212,0.07855071618457338,-0.0031634532205104377,12.548206703891621,34.317856,4.69485828333932,51.971235419807805,-17.873584634694325,30.611583147218067,2.492018253787911,5.51762,32.97000000000001,1
0.9106570881587682,-0.06974382532801499,-0.11255430052013882,-0.015555728979982848,-0.0035108412010962393,12.552346577491003,34.31774,4.315145426054103,52.02678431771622,-18.11261038817877,30.03178752872387,-9.559874353741588,5.526574999999999,32.970000000000006,1
0.9116696152175057,-0.07032945226166411,-0.11403834716826264,-0.0505435930965362,-0.003091593862418903,12.539247347404604,34.31866,2.7456987581279177,51.97471268666219,-17.894552964213894,30.42698799428025,-18.164502664734997,5.4933140000000025,32.970000000000006,1
0.9109904111293877,-0.07138712056802231,-0.1151872625480572,0.0386424509047694,-0.003139390401634019,12.538134600289983,34.317802,0.9100585373122879,52.024453823402276,-18.100118869025184,30.069855730996995,15.776467529317873,5.503548000000002,32.97,1
0.9104492722658201,-0.07166113283200841,-0.11868633036974284,0.04639113417072313,-0.0031930889908584783,12.548065971431905,34.315746,-0.6013253473772587,51.97529618026671,-17.905005872620933,30.040489704795025,12.690905451171908,5.508665,32.95,1
0.9093815908197221,-0.07359513502280801,-0.12934084579758892,-0.052202723740907425,-0.002907542819382199,12.543267741681253,34.32092,-1.8276729161966658,52.02719413802632,-18.088437994250793,30.0028468378277,-7.032079890678004,5.5035479999999986,32.95000000000001,1
0.9097532635153418,-0.07281482106680937,-0.12957275807742327,-0.03161935804107025,-0.003112590339506239,12.53084538139181,34.32142,-3.0570115111155194,51.96351213551066,-17.92439735516652,30.157530767744575,-7.245409681549366,5.507386000000004,32.95,1
0.9098541036048383,-0.07374754810358676,-0.1260894721399159,0.05403861989237433,-0.0028989286656825055,12.532581748627246,34.3217,-3.663374864450412,52.10594078542959,-18.002680416742937,29.896292947301355,18.82115718473425,5.497152,32.95000000000001,1
0.9099727005553504,-0.07331808670034973,-0.12462227722396156,0.01678991702273471,-0.0032405574062924648,12.541830718934172,34.322773,-3.3953273855751966,52.05262460492825,-17.844594290943625,30.09175247531741,3.1940118800377753,5.4997099999999985,32.949999999999996,1
0.9088520493270833,-0.07366668561638652,-0.130731464722156,-0.06816170438193316,-0.0032131279027952527,12.532484314127682,34.316357,-2.96400819183252,51.98195811274611,-18.04696002960122,29.914236309358625,-17.44066622342877,5.497152000000001,32.94999999999999,1
0.9095045979636879,-0.07362910844846825,-0.1283659408609711,-0.01753296503312283,-0.003163864472714707,12.520689715620989,34.316776,-2.661698393188035,52.01092852664626,-17.657685476443152,30.08192044741172,-2.409243596881071,5.499710000000003,32.949999999999996,1
0.9097615581591003,-0.07346168891561827,-0.12634406946914475,0.06448793708998365,-0.003399309529468651,12.525447029355504,34.319286,-2.222995039023985,51.99153611143191,-17.90094243593059,29.92071752141113,18.307103337015526,5.486917,32.949999999999996,1
0.9107843345085095,-0.07167675039552086,-0.12215844972505802,-0.0015893523146980075,-0.004401564136379111,12.530886267839895,34.320908,-1.5746123988992395,52.00756276933503,-17.911026741270586,30.077626091328266,-5.708587184971405,5.497151999999998,32.94999999999999,1
0.9105264306935633,-0.07096079517301287,-0.12162314688824456,-0.06958660445897474,-0.0023820319714347132,12.519894037549898,34.320637,-1.0499525591603398,51.99267041631005,-17.96436404162737,29.922878754802518,-14.999577515140707,5.490755999999998,32.95000000000001,1
0.9117340274921786,-0.07038182353098023,-0.11466056280662329,0.013544424454767369,-0.0037609708780093204,12.511087388607214,34.32098,-0.4652449406823166,52.00740165729643,-17.909957219320738,30.07856070776979,8.296571640475753,5.488197000000001,32.94999999999999,1
0.9116784704044194,-0.06879501345382688,-0.11454847209967829,0.05829960921526055,-0.002688326183858597,12.518791897847121,34.318344,0.8083844134006731,51.99240621655814,-18.090312396173694,29.91502933530265,15.276580494618571,5.490756000000002,32.95000000000001,1
0.9084532616156109,-0.06952883093527752,-0.12233908342434877,-0.03421978210927935,-0.002739892991721186,12.522859778468685,34.321167,2.295722214422313,52.00778589293188,-17.909537836570657,30.11913693227175,-9.777041506363794,5.485639000000002,32.95000000000002,1
0.9097863875550796,-0.07257823157587848,-0.12339464529244357,-0.011653438938380504,-0.002830215304008723,12.502822198341617,34.31854,3.2282524251428986,51.99212709394085,-18.09068984363603,30.03957779632427,-15.898039003379,5.495872000000001,32.95000000000002,1
0.9106836600794782,-0.07246793084418801,-0.11603674872006095,0.05100323880277215,-0.003166798559139501,12.504707100501406,34.322468,3.210691692490987,52.0077265906686,-17.908820143366754,30.029983470832725,8.435645504604508,5.481801,32.95000000000002,1
0.9108266564841767,-0.07253379893886076,-0.11662257133534039,0.010800078457377982,-0.0031794836799125077,12.511868705043925,34.32181,2.521427693356664,51.99286128187291,-18.092227648539392,29.960357943878698,8.647024618069269,5.485639000000001,32.95,1
0.9107505728510955,-0.07181283212611328,-0.11981994750665578,-0.036519357023523366,-0.0028834628264208487,12.497137391433148,34.319798,1.3287096227821609,52.00568462518751,-17.90542287474125,30.04276016426705,-11.699529638933214,5.484359000000001,32.95,1
0.9111671828758852,-0.07321070999404528,-0.11836420816127537,0.03669900714577946,-0.0035116824302504706,12.493698376721703,34.32123,-0.05051624157088599,51.997729846375535,-18.10121088879425,29.956084540925502,-3.7922077837505013,5.480521000000001,32.95000000000001,1
0.9107034687898178,-0.07313930134584819,-0.11874266016256055,0.012790942149634577,-0.0029741144811228112,12.501460519056847,34.322308,-1.1550161945697701,51.99287179072264,-17.855876504322897,30.044289533556103,13.91458916953882,5.471567000000001,32.95,1
0.9101621984027788,-0.0726720381839937,-0.12387539720522157,-0.03434364764978797,-0.0031694205978218984,12.490242707581483,34.3206,-1.734061438179888,52.058855597615825,-17.915685783306564,29.95565837920175,-1.0522671841622058,5.477963,32.95000000000001,1
0.9104660630332424,-0.07184595491713854,-0.12265745152857993,0.0014037967126526545,-0.003185110958141682,12.480164147246668,34.320637,-1.9781357092118768,52.10179320542344,-17.87057995803858,30.044314532561454,-13.855427640899055,5.474124999999996,32.94999999999999,1
0.9108390562617739,-0.07276385198489979,-0.12049567673304541,0.042381620143098084,-0.0031743564472110253,12.491415686405151,34.321278,-1.9650489456772708,51.949492463247516,-18.112674213159654,29.95560624734427,11.721294569996164,5.474124999999997,32.94999999999999,1
0.9098567275523427,-0.07197774756709695,-0.1216873924334117,-0.038545421382970006,-0.0038678292506292553,12.492193884652055,34.32148,-1.6791997799558613,52.04213357707647,-17.85457432773702,30.04480186074215,4.456340426243017,5.471567000000001,32.94999999999999,1
0.9100141778227032,-0.0724037211320373,-0.1233574642941049,-0.030186360903118506,-0.003486773363430282,12.477330169934458,34.321823,-1.4005984671435823,51.95927197288981,-17.988647110229206,29.954055608093658,-15.428027528372684,5.463891,32.94999999999999,1
0.9104039708121278,-0.07223001856718958,-0.1189003591276413,0.043131115205006135,-0.0032645041565019677,12.476994430232914,34.321564,-1.1066413045746917,52.04341811765035,-17.93744551511826,30.048876537496334,2.242761569427599,5.467729000000001,32.949999999999996,1
0.9106993224642482,-0.0727191680865923,-0.12015821884167699,0.02133826451500326,-0.0027611951470251903,12.485022740071665,34.32154,-0.7686438266055513,52.07132533564968,-18.082842064703602,29.94204306960068,13.610812854170419,5.4587739999999965,32.95000000000001,1
0.91127960462882,-0.07225106946886188,-0.11846236882470194,-0.053260769484539956,-0.00350334755832917,12.478729832590057,34.320347,-0.452744161373459,52.12443732739225,-17.823431309884228,30.14706636385122,-13.861033841629942,5.463891000000003,32.949999999999996,1
0.9120340697313929,-0.07162991973628387,-0.11343513083026671,-0.01110453170954061,-0.003242574885750529,12.468020637908438,34.321243,-0.16640038893795323,52.03266372829292,-17.90309283753543,30.003901840614354,-3.4603766305396775,5.4626119999999965,32.95000000000001,1
0.9121683227843668,-0.07029186301996777,-0.10921148155455435,0.05254541866382087,-0.0028177132554687715,12.473479874428005,34.32032,0.4728806924721454,52.00343604780464,-17.949946656328247,30.016629371758047,12.379000692661341,5.462611999999999,32.97000000000001,1
0.9097244463477874,-0.07031103280869197,-0.11892846674002085,-0.0071709362788842795,-0.003400838181487612,12.484779460438515,34.319218,1.6084969281598995,51.98794187962142,-18.055638577754898,29.978416120556936,1.0691853390884958,5.452378000000001,32.970000000000006,1
0.9091243379860763,-0.07099710268837654,-0.12143419428070176,-0.033757186888301066,-0.003097747446605599,12.473354639838098,34.320953,2.7435242767094894,52.01598064305143,-17.9428442417065,30.148435303167307,-17.39434520392761,5.4587740000000045,32.97000000000001,1
0.9107886115694767,-0.07139579197791827,-0.12000835244018006,0.0399575259871709,-0.0034636917677020097,12.467528045817271,34.31986,3.5139256311807667,51.98174730604153,-18.055681901814566,29.975846021720415,4.796840758249585,5.456215000000001,32.97000000000001,1
0.9111444826839094,-0.07161986386898643,-0.11514493243227254,0.03667929115394829,-0.00350125997888837,12.478223335116875,34.321358,3.391122835006423,52.01973078563616,-17.9519757124247,30.024339887819767,11.859553453410621,5.4549369999999975,32.94999999999999,1
0.910333112006352,-0.07349586324404193,-0.1199355354167743,-0.03701709893767234,-0.0023809444949861574,12.470488548636396,34.32126,2.3332934536177388,51.97927535008597,-17.998455859205528,29.975762461626175,-5.359461969794573,5.4523779999999995,32.95000000000002,1
0.9102319891958257,-0.07421783502830247,-0.12247658404037422,0.0024953822320369703,-0.003417058813546515,12.456998597806018,34.324326,0.758023849051094,52.02133390885163,-17.837398381294946,30.023965185915266,-14.261112659544342,5.444702000000003,32.94999999999999,1
0.9110018677541308,-0.07311326173471959,-0.11715321666072975,0.04021793336586069,-0.0030540412664154,12.464708590370563,34.319298,-0.7532737915003276,51.97848124585072,-17.99359189795142,29.97641308603888,11.39016653559983,5.445982000000002,32.95000000000002,1
0.9103139739828384,-0.07344762408069791,-0.11798038156705788,-0.02147043662366797,-0.0029788046408737966,12.466477102432524,34.32063,-1.6701611799988727,52.02103604577646,-17.740150435781917,30.023140377797656,9.197625132115812,5.440864999999998,32.95000000000002,1
0.9109316396286548,-0.07307434926145413,-0.12090031685127357,-0.0428531425385824,-0.002785756263405652,12.451858995531547,34.320618,-2.179820350034973,51.98092982214594,-17.992562745130872,29.977350922676912,-10.208274943799942,5.449820000000002,32.95,1
0.9110263697268772,-0.07243851636582595,-0.11672086273192972,0.04208235587147827,-0.0028131909884821604,12.44818005184742,34.32178,-2.2503327414901055,52.01194881280693,-17.84846155281264,30.022128371855022,-0.10209145110976335,5.442143999999998,32.95000000000002,1
0.9111272147823383,-0.0728759148721575,-0.11588690420806165,0.021395582425715147,-0.0030252579047912505,12.458435046517277,34.321297,-1.9542197242817831,52.1027889636429,-17.911169210132176,29.978411329516927,15.682687293214265,5.442144000000001,32.95,1
0.9104643530167272,-0.07411470279211607,-0.11773533324492488,-0.03150444895590269,-0.0029411471118768557,12.452152119242784,34.322655,-1.5734167017928624,52.18011097412961,-17.515934373337302,30.021037234563064,-11.72148069404386,5.429351,32.95,1
0.9106682385247019,-0.07344468080527695,-0.11798774727150714,-0.049119008607881744,-0.002807287588688094,12.438841087563201,34.3225,-1.3012339210887767,51.92822548776826,-17.655590436131313,29.97952074973186,-9.24780772389831,5.430630999999998,32.95000000000001,1
0.9117542595965852,-0.07323232438134511,-0.1120701785281906,0.05349352763561963,-0.003550124485404397,12.438164435646724,34.31915,-0.9616936848009344,52.09938696551494,-17.850380962518177,30.01991849528306,12.487557820661223,5.431909999999999,32.95,1
0.9124542089792531,-0.07243621899899631,-0.10515755170201314,0.011773627635099303,-0.003873478854347734,12.450151689330303,34.319298,-0.44453776919343574,52.060479467378414,-17.921495830716196,29.980642230786426,7.198220197219322,5.429350999999998,32.95000000000001,1
0.911796755616235,-0.07206818645993544,-0.10931784961704143,-0.029588109352837923,-0.002873233489701169,12.4449977605873,34.321453,0.26703767487100516,52.00950672847508,-17.793958674709454,30.01879918109569,-19.30452635930921,5.430631000000002,32.95000000000002,1
0.9113573213174283,-0.07092054265271155,-0.1141012873173401,-0.04736113605440844,-0.0033010077526858935,12.434742039735092,34.3219,1.206142065306435,51.97973116946174,-17.961062939381065,29.981755652217977,-0.30155345755531565,5.424234000000002,32.95000000000001,1
0.910520489141501,-0.07114721437324391,-0.10878051037729358,0.07160987622493543,-0.0034723989222378857,12.435612699849152,34.320457,2.402865348269707,52.024873211000425,-18.00095142913171,30.017694535460212,14.438774154286206,5.428072000000003,32.95000000000002,1
0.9111881370687708,-0.07142788323053943,-0.10657498372941719,0.0255145315934314,-0.0030229406780924103,12.449696473098452,34.319202,3.750279609190064,51.97218670864603,-17.982137321695895,29.982849235562945,2.462237099182319,5.421675999999998,32.95000000000001,1
0.911667475100087,-0.07190312838588488,-0.10816316047513569,-0.03803286907821799,-0.003407435035994516,12.442117891409897,34.31853,4.612970299290997,52.03031317626487,-17.871099717972804,30.016613890314503,-18.35898489394643,5.424234000000002,32.990000000000016,1
0.9124328840753327,-0.07275018191856449,-0.10165566726758832,0.0019296534555676887,-0.0029819410221893065,12.428937026290873,34.31803,3.9209299990648994,51.9669735287322,-17.899916667889084,29.98391532940055,-1.6454025280395645,5.422955000000001,32.99000000000003,1
0.913238864873955,-0.07284113984938062,-0.09328343798494645,0.050829870093538246,-0.0030489047304321547,12.436476397175518,34.32259,2.337228752519867,52.03670999410505,-17.857547057464974,30.015563823467478,15.601422072420998,5.422955,32.990000000000016,1
0.913029044648132,-0.07420502300414324,-0.10004068813968102,-0.037311927387321614,-0.0036448287051484233,12.432065875058655,34.32251,0.7493756991629513,51.95694346156479,-17.98769931903593,29.984947915756145,1.48803622418756,5.406325000000001,32.99000000000003,1
0.9119148850261695,-0.07378619071517759,-0.10843219159213652,-0.01303839782740484,-0.003310809720678231,12.415829949478134,34.323296,-0.7657181391598333,52.18418792848616,-17.75371533703198,30.014550264889895,-11.71445329796879,5.416559,32.95000000000002,1
0.912615464082345,-0.07418570818026074,-0.10557305832141077,0.03924532158315853,-0.0033418831052267396,12.420280515012351,34.314686,-2.102862782349954,52.06085495964264,-17.96832845954514,29.98594067767764,5.31233301917913,5.412721,32.95000000000002,1
0.9114125227067372,-0.07453508719032281,-0.10730159063570523,0.010330544893350597,-0.0034817294817445985,12.427058798862232,34.3204,-3.00830113765785,52.21092677910621,-17.90377000656755,30.013580442881395,14.255317244173797,5.412721000000002,32.95000000000002,1
0.9109327323129455,-0.07446644255879065,-0.11185471374224826,-0.04446536189933633,-0.00383240935339622,12.415309291337705,34.320866,-3.3482097310470498,52.42172824682616,-17.917328681905047,29.986884846935098,-9.907363203167536,5.408883,32.950000000000024,1
0.912011151422672,-0.07423148710392567,-0.10877902681700795,0.028889591048053796,-0.0038709768962295167,12.41163651223213,34.32075,-3.3820462833411877,52.145262733968295,-17.824473471389368,30.01266547150397,-6.360447802967139,5.408883000000002,32.95000000000002,1
0.9124997930033455,-0.07328315942741084,-0.10534231742024024,0.02725751303325564,-0.002919391300675318,12.423569168254827,34.319965,-2.9901100149204396,52.0066657981385,-17.93185879766416,29.987765874532233,14.302343064419633,5.407603999999998,32.95000000000004,1
0.9112564008672152,-0.07410216228475075,-0.11084048896479345,-0.03622726870007849,-0.00345726680502518,12.419401143908695,34.31854,-2.4035140854803028,51.97755169743761,-17.40563149729753,30.01182486962101,-3.4190069881784626,5.4076039999999965,32.95000000000002,1
0.9117050041716308,-0.07313136997599935,-0.10817792313164568,-0.029598289394659874,-0.0030729130642684044,12.402404518512158,34.31922,-1.8484258382524505,52.08759379288297,-17.846024161742175,29.988557029456558,-15.38786291597054,5.407604000000002,32.95000000000003,1
0.9137293038058707,-0.07211769839222447,-0.09972721032665818,0.042793613816973046,-0.0036611305531870438,12.410601720818354,34.319717,-1.3323759593029743,52.20296832499521,-17.942234221873004,30.01109596838244,8.956418589982617,5.399929000000002,32.95000000000004,1
0.9125976951320534,-0.0721698256925798,-0.1011888619204402,-0.019169136650863252,-0.002591970332087642,12.418514993826621,34.321136,-0.497312263343429,51.9943162600254,-18.06624884202078,29.98920507989101,8.384937320697242,5.410162,32.95000000000004,1
0.9115569704736385,-0.07122231285948298,-0.10816979578120132,-0.03189066928939207,-0.0034031386164356135,12.404028481509508,34.317333,0.7460298955884441,52.14482279502276,-17.934939477379423,30.010556520580565,-14.640631401369873,5.394812000000003,32.95000000000004,1
0.9112500889703185,-0.07116946504807162,-0.10704892282292773,0.024547620096477166,-0.0034776614934399585,12.401242701310746,34.31584,2.0842392549066586,51.93604423667469,-18.062577550894346,29.989593079083686,-3.2891954190244705,5.403766000000004,32.95000000000003,1
0.9108910622999962,-0.0721066673186843,-0.10429241438472452,0.040179927387530574,-0.0035811297917253404,12.415287867836897,34.31764,3.5470753706332427,52.04022634723736,-17.92546809356699,30.010389082515783,14.524586691189565,5.393532,32.949999999999996,1
0.9115815742795106,-0.07339812725852383,-0.1098258696047049,-0.02839460379784538,-0.003462373565401813,12.409570355737477,34.316322,4.426447606295578,52.01804221031199,-17.793020523020594,29.9894217580904,-7.26202114333641,5.403766000000001,32.95,1
0.911704772664022,-0.07450389899625295,-0.10633912549101232,0.030507906702916025,-0.0034698229507449385,12.398766009733844,34.319183,3.8151316737783803,52.13674364163361,-17.752617858747424,30.011118556790404,-16.036241764422396,5.399929000000001,32.949999999999996,1
0.912215360215022,-0.07548706329889378,-0.10742382029755676,0.018556298698230233,-0.0031611382647869827,12.412052896777153,34.315258,2.387847615010943,52.01515430902177,-17.8376051264264,29.987673802612164,12.35261760260432,5.392253000000001,32.95,1
0.9106006554860694,-0.07629942009739253,-0.11812184151363513,-0.022420774420073734,-0.0034382731779010987,12.40687787492146,34.31585,0.8734932793988771,52.286329458440306,-17.366704707814574,30.015068489522694,12.370058788235706,5.3935319999999995,32.990000000000016,1
0.9106668752483094,-0.07678232723907615,-0.12065553488607707,-0.002990200036278125,-0.004327499403705513,12.393756926912564,34.317585,-0.7775799845490465,52.556353499267495,-17.160368051932288,29.976961780498623,-10.499614922460239,5.394811999999998,32.99000000000001,1
0.9104507012667263,-0.07596403547400368,-0.11760152015079615,0.03952305467712169,-0.003457821124405956,12.401891767279121,34.317375,-2.2390641596880876,52.69101717644862,-17.00631183460173,30.105682651837085,3.466597205652638,5.393532000000002,32.990000000000016,1
0.9103671480115145,-0.07553902537931564,-0.12072265420425468,-0.03506835986296718,-0.0031364429910685494,12.402484405889034,34.31639,-2.853969342339511,52.742532918165836,-17.116452662348745,29.900494020269452,15.113878643413475,5.385856999999997,32.99000000000001,1
0.9101281857545395,-0.07583954259659605,-0.1225900243382224,-0.014686280368738073,-0.0033012861530469055,12.387057419935921,34.313427,-2.867293074646218,52.84589261532556,-16.902801280309493,30.02743363931861,-9.589734266773458,5.388415000000001,32.97000000000001,1
0.9113731267107672,-0.07362231468469649,-0.11773008408716075,0.03103526694561147,-0.004253308590173601,12.39284045260456,34.313187,-2.622177693202544,52.996370331176905,-17.08433632741916,29.651208396717713,-1.572105548407013,5.374343,32.97000000000002,1
0.9106734139833421,-0.07424025631453497,-0.11817316700090373,0.02186765954851983,-0.0036375142846134865,12.402355615983055,34.31806,-2.15783146456271,53.02553847403203,-16.935929600667993,29.93601533185587,14.095436955332659,5.392252999999999,32.97000000000001,1
0.9115332336553651,-0.07393141784957066,-0.11548283390761731,-0.06911705332737682,-0.0034321673385229287,12.392983201998476,34.31622,-1.6940669835655753,52.96274915314265,-16.88405410081797,29.98462882386566,-11.389831140884406,5.375623,32.97000000000002,1
0.9123572813602605,-0.07354563300352429,-0.10737214852919569,-0.004372385137855075,-0.0027045617915762983,12.381506590122125,34.31571,-0.9332755660054333,53.050403465494995,-16.817984479679385,29.720636213767,-11.965690841963996,5.379459999999998,32.99,1
0.9134412839251173,-0.07265098388527494,-0.09991310647854156,0.0374053140137812,-0.0032730438804400943,12.388882506624595,34.318558,0.6051895241603245,52.9098207596893,-17.142522904385576,29.937599664373778,13.94338884481637,5.367947,32.989999999999995,1
0.9108814204748215,-0.07269810881354245,-0.10396302767257812,-0.014189016339806421,-0.0030656378962362948,12.395668449500658,34.31139,2.441059370865078,52.93785799714993,-16.85076994375445,29.956459775093972,-2.1010119835060093,5.350038000000002,32.99,1
0.9109360647846759,-0.07319773334202781,-0.10615695293988917,-0.02481415257279502,-0.003106052057804204,12.378661411359555,34.314346,3.7124634467630266,52.97590511689901,-17.297994521276483,29.732458240434433,-19.403886068420114,5.367947,32.99,1
0.9127589136320804,-0.0729687418098385,-0.09945885300903679,0.04681941257352929,-0.0031549871717532615,12.3756056426067,34.312256,4.2057116320726875,52.714980173519756,-17.21952002779196,29.690167283922296,3.765549611369817,5.365389000000001,32.97000000000001,1
0.9124404504712837,-0.07270979869349999,-0.09945917396144618,0.022916840319137703,-0.0036031453884199445,12.385786519939858,34.315117,3.7303556096373915,52.74967308351468,-17.265788611844744,29.5851506139108,10.169782212431622,5.375623,32.97000000000003,1
0.9122053498637089,-0.07417328057043145,-0.10602617083914678,-0.04307787208237334,-0.0033569888979956743,12.372272766557833,34.317917,2.421333276050799,52.69766087444966,-17.157885656333377,29.36754898899212,-9.189052511862823,5.369226000000002,32.97000000000001,1
0.9116188329262616,-0.07306301512169111,-0.11146321842689948,0.004727406794444425,-0.0027481476913720246,12.36144143063192,34.313866,0.6888484072139253,52.962820255059846,-17.039128889439503,29.55669785997084,-12.845239846150331,5.370506,32.97000000000003,1
0.9116189071152816,-0.07466116355630828,-0.1095221500756839,0.0446011768718691,-0.0031005128389289143,12.369295675855426,34.31645,-0.816040577148835,52.89782174740482,-16.945251659861064,29.58241471814904,17.87978570158026,5.355154999999999,32.99000000000001,1
0.9110683024182687,-0.07526183484122417,-0.11596938408151308,-0.03139786145408571,-0.00344526013550642,12.368315635206347,34.31672,-1.8378590090091325,52.996209397084776,-17.060091573676583,29.43478909004438,10.420912341988227,5.366667999999999,32.99000000000001,1
0.9107296570359038,-0.07533335573629685,-0.1165777645348317,-0.029426455689059803,-0.00275194376869189,12.355276903033308,34.315342,-2.5131087760909776,52.908940116304976,-16.937619886146443,29.574669724154447,-11.331246497689579,5.3577129999999995,32.990000000000016,1
0.9112361568435884,-0.07388685309418051,-0.11358735739000571,0.038923215877015596,-0.0032336112599467785,12.354905494326005,34.31588,-2.7623866317771677,52.92649209928389,-17.06325560939241,29.75189090309295,7.072073362093447,5.369226,32.99000000000001,1
0.9107174241218144,-0.0744004940989007,-0.11415181969735211,0.016344917635261268,-0.0028766490820033314,12.364734821681816,34.314297,-2.515700390193271,52.91918187812832,-16.936751643089664,30.003529670776835,13.794002176792436,5.360272000000001,32.99,1
0.9108365463708563,-0.07351062765008776,-0.11814154551029966,-0.051638161683659235,-0.003233935685892239,12.357838093031164,34.31311,-2.0992518676136904,52.97485736580663,-17.062498192137127,29.75264708859723,-12.474861068573976,5.3692259999999985,32.99000000000001,1
0.9109327124617773,-0.07459325429034012,-0.11326054018365068,0.00844251184446711,-0.0031947974700220123,12.348594938546542,34.31136,-1.9443568584701396,52.87825027929423,-16.939104748436552,29.731408347785486,-9.57032952334452,5.364109999999999,32.99,1
0.9124408481800795,-0.07273512264430418,-0.10698597639081271,0.03498200086674269,-0.003296732788287323,12.359637595755245,34.314495,-1.4924704596400986,53.04061944059282,-17.057982393090295,29.49082792944639,15.18953234577485,5.365388999999999,32.99000000000001,1
0.911585812965433,-0.07224551928114563,-0.10728764802187149,-0.025014461013692944,-0.003350278863534511,12.363491917557393,34.315487,-0.5952786005660391,52.927747750089466,-16.947603985136297,29.64878906788781,-0.31001371921214793,5.369225999999999,32.97,1
0.9123014467236112,-0.0707974867926361,-0.11193585062969691,-0.03595432730496925,-0.003648421984386229,12.353058474007458,34.316822,0.5279827987327643,52.92958922960696,-17.038689182505234,29.45772104358312,-17.428924245012404,5.36283,32.96999999999999,1
0.9094925072701635,-0.07214394048994303,-0.10532001726572275,0.04761419323723634,-0.0029617585596986005,12.35454641309323,34.31657,1.8764198714986784,52.79069156046164,-17.097052237574204,29.709021005656034,7.174521259599167,5.360272000000006,32.97,1
0.911443011394102,-0.07215422257100249,-0.10326384916344863,0.017654899805208835,-0.003403308773082402,12.366034130145612,34.318226,3.2030886995037684,52.567921258945105,-17.347113536496202,29.784420740404038,11.66734602336848,5.352596000000001,32.96999999999999,1
0.9114906742628875,-0.07299767802006811,-0.10691441973505902,-0.02189221969649468,-0.0032656275877847875,12.35495914552,34.314674,3.707116890219175,53.01731071092248,-17.031902872694282,29.748092712930536,-14.621676533073963,5.357713000000001,32.989999999999995,1
0.9125078093952498,-0.07283602865122178,-0.10321249557334683,0.025423902744735268,-0.0030950290232538208,12.348272398013778,34.3156,3.07504543043522,52.80253241862903,-17.189013124555963,29.48920898054259,-11.691808836013262,5.3538760000000005,32.99000000000001,1
0.9118674231072131,-0.07218776142448649,-0.10658991992381124,0.013353585257048632,-0.0032399891662499973,12.360863752808,34.318165,1.7234817549083232,52.88915114646836,-16.898530763169138,29.47252640854209,15.967260918021529,5.356434,32.989999999999995,1
0.9113510494064321,-0.07258489232730332,-0.11332122370786511,-0.03063689966919588,-0.0033105159056663635,12.350764337759468,34.31895,0.27194258756044337,52.70380672358174,-17.09123220513712,29.85777790177075,5.3175067079020515,5.348759,32.99000000000001,1
0.9108111184508892,-0.07356838403726834,-0.11318656760975575,0.015772694343923484,-0.0032098218777051354,12.344436774621634,34.317146,-1.0288808065281172,52.95115496269767,-16.913216096179294,29.850955819920912,-12.123933637580526,5.351316999999999,33.00000000000002,1
0.9120465468578256,-0.07331022557848976,-0.11030271409293485,0.020558422100728457,-0.003352298408003951,12.35507255734794,34.32035,-1.800094100902394,52.69520151999768,-17.08406117372897,29.780608278082283,7.2014235455981295,5.343641,33.000000000000014,1
0.9099081744372165,-0.0742781212102784,-0.11714053959101409,-0.027114825665522074,-0.0033009286161425422,12.347149058878758,34.319473,-2.180576600992183,52.8589420586513,-16.917983398904312,29.684065133816343,10.07430899914735,5.348759,33.00000000000002,1
0.9110340543672824,-0.0727427484411467,-0.1151935950974058,0.01061512099320782,-0.003273992446475969,12.33758656564322,34.31754,-2.3507946737123837,52.9593296052704,-17.080165567196403,29.743782713259822,-14.515874749889504,5.3474790000000025,33.000000000000014,1
0.9115045046550293,-0.07415721770759827,-0.11116356422513965,0.01985461270247707,-0.003415128794432543,12.350634240759588,34.316826,-2.1375003000923702,53.001645275136504,-16.92188695092575,29.7190450136418,2.9334533676233563,5.3462000000000005,33.0,1
0.9106488899060942,-0.07294100505614091,-0.1164463542212562,-0.025226086236776406,-0.0031084146018751963,12.347967461105519,34.31908,-1.7441260494897126,52.85452676299557,-17.07528107558778,29.823503578175217,11.553449984453355,5.333406999999999,33.00000000000002,1
0.9111227391254897,-0.07348334375493124,-0.11533872797339931,0.009412975494708658,-0.003257037750378295,12.3396134565402,34.31895,-1.529794325368886,53.050250212931125,-16.92967318024315,29.72285624119229,-16.4249457038073,5.335965999999999,32.99999999999999,1
0.9125437792138192,-0.07228907506543435,-0.10703422807503578,0.015692019240135118,-0.00321595236120127,12.354588364501323,34.31878,-1.1315276530112195,52.96625853881289,-17.05832225920271,29.42008718964594,-2.9044745010586506,5.3410829999999985,33.000000000000014,1
0.9108955097987249,-0.0719451879208615,-0.11027653967747945,-0.03179755156611414,-0.003239344952376112,12.356852757178988,34.31971,-0.31510725095419956,52.893980456583634,-17.015168174764913,29.549046754958766,15.16135150477052,5.338523999999998,32.99000000000002,1
0.9132893309340347,-0.07035962319925619,-0.10955167280006563,0.0019419870507539562,-0.0033037268010190626,12.343776673331456,34.31894,0.7329250747927863,53.00954581754222,-17.133070748913077,29.961239691117484,-12.442919072055837,5.335966000000001,32.990000000000016,1
0.9109664229770987,-0.06852632705252493,-0.10957043835831382,0.012999957651036453,-0.0031030455430473766,12.35753622811884,34.319122,1.859547733610735,52.765424936017375,-16.983318527221304,29.911193975828432,-4.521832101389177,5.337245,32.99000000000002,1
0.9098456681906264,-0.06786397891642859,-0.11808082630390838,-0.01551318140250342,-0.0034132685194310287,12.361544752852414,34.32111,3.0834132846258724,52.35122633115771,-17.570943107135697,29.745127135096073,16.42971615636984,5.334687000000001,32.99000000000001,1
0.9096529442478671,-0.06939909964706296,-0.11630250896403774,0.0169416147213798,-0.0032087732205993286,12.348468207680751,34.32263,3.869225098875823,52.680402040100105,-17.088240935075603,29.85312983872749,-12.249931416726282,5.333407,32.99,1
0.9132233519149208,-0.06865801796728628,-0.10847599104889426,0.013711149768256187,-0.0034874675775043037,12.35842387297456,34.32113,3.8361709491022364,52.76962161362432,-17.22311009941468,29.996187686336135,-9.223546659440066,5.339804000000001,32.99000000000001,1
0.9098760208640838,-0.07282912655567758,-0.1106722016480582,-0.0168518213778095,-0.003224097057029699,12.348754345793942,34.322872,2.822832645955758,52.85001907325364,-17.003514926283202,29.638347982150876,14.604096194849753,5.334687000000001,32.99,1
0.9160758830047409,-0.0752532331778814,-0.11123372748912283,0.02279654900965407,-0.002977932901855961,12.338231510025647,34.324,1.325517185341439,52.82661985374052,-17.33850467425886,29.739303830996594,-5.112274822669256,5.320614999999999,32.99000000000001,1
0.9095796100530706,-0.07818048447862254,-0.11773705460504967,0.012381839965712824,-0.0031028879177421352,12.350373991288553,34.32194,-0.0072997194335071075,52.850521990173974,-17.3895948416415,29.861722160836923,-2.847863689040028,5.323173999999998,33.000000000000014,1
0.9051216658555964,-0.07564964783753171,-0.09139382043240014,-0.029239516155281642,-0.003340083992056273,12.342631196557445,34.322166,-1.1380078716358704,51.92907533954087,-18.078450907381754,29.8384042832323,17.04514651501739,5.324452999999998,33.000000000000014,1
0.9193490857727938,-0.07439013301683871,-0.11151209953674417,0.008472514465133908,-0.0033693552753444826,12.330989560018473,34.324146,-2.3238711139441652,52.41940305413083,-17.039572233801163,30.375006947936228,-5.917329971638758,5.3231740000000025,33.000000000000014,1
0.907011081506952,-0.06687471413289929,-0.12860838348012119,0.020593533855319916,-0.0031352090813188418,12.337837537625248,34.32575,-2.874783254841061,52.21909699418785,-16.87415798069844,30.25802414229764,-0.22065379070797736,5.323174000000001,33.000000000000014,1
0.9072666943409678,-0.054500463974397007,-0.1537815897347289,-0.03609866193097373,-0.0032580382777120747,12.330018219811848,34.328106,-2.6706207967546725,52.523343465920135,-17.075166909715225,30.111286301166494,9.182701445871386,5.318057,33.0,1
0.9068681507707976,-0.06040344255620852,-0.15442471920173087,0.0022137401675813907,-0.003134820370676899,12.313031524748865,34.32801,-2.398467407266331,51.94657469616774,-17.10990538438819,30.29272131188731,-16.188672862540766,5.3257319999999995,33.000000000000014,1
0.9081356132279536,-0.05670876977020856,-0.1522290798755108,0.038980207317697683,-0.003452839460191588,12.322613241727186,34.32606,-2.275343536010719,52.47023643244204,-16.637166660410752,30.057158506515307,8.777374637912402,5.314219,33.0,1
0.9048316841125262,-0.07333783977166841,-0.14517766189480102,-0.02424726954075134,-0.0032329666560878285,12.326286466297203,34.32588,-1.437724552552791,53.000236976020396,-15.97542730934508,30.006667626673377,-2.881448592132854,5.314218999999999,33.000000000000014,1
0.9087729453146651,-0.07343488224079942,-0.13942754528078785,-0.00439071109127397,-0.003236345992263707,12.31476653818971,34.326954,0.19711773266932786,53.023649329009444,-16.031299327811745,29.42391476888474,-21.054325640698963,5.310380999999998,33.00000000000001,1
0.908305470550029,-0.07301144257013627,-0.12850609091524678,0.031194973694056487,-0.0031070128764712525,12.327461971277568,34.32597,2.044177281119298,52.9647415737262,-16.238023165171658,29.36204791146515,4.613249571229926,5.321894,33.0,1
0.9092725490129034,-0.0730675375166232,-0.12312432764509532,-0.018976605686114284,-0.003443549908992919,12.337788416414254,34.32939,3.4145090248118803,53.04672972913247,-16.89091807578804,29.52377379228058,29.973208518432767,5.324453,33.00000000000001,1
0.911415541455097,-0.07404517971782197,-0.11253990056541154,-0.0037871152475224897,-0.0034139397767267536,12.325039567639527,34.328087,3.843701660900928,52.89290679212323,-16.950773164424383,29.601681098922832,-1.705304356497052,5.332128,33.000000000000014,1
0.9134316686485251,-0.06728723467740005,-0.1060353224465577,0.030031565709670142,-0.003360301625607652,12.331843521069834,34.330727,3.378833144655239,52.80952027619304,-16.91809777916664,29.55133346008604,-17.326911529412815,5.330849000000001,33.029999999999994,1
0.9099055731962943,-0.06268763199347684,-0.12357568517403392,-0.019327046409402953,-0.0032497216655518655,12.331746474598782,34.328247,2.1214545010415744,52.739966903841456,-17.060469359504097,30.021971104918993,7.315676244815838,5.3385240000000005,33.03000000000001,1
0.9079747122681788,-0.066060147869596,-0.13564362192487825,-0.01490105932159218,-0.003240031527347845,12.314791897623987,34.32775,0.3493606587204038,52.89663497242963,-16.813669730153872,29.651477610375164,-10.605522658065368,5.341083,33.029999999999994,1
0.907926313194722,-0.06619590356817015,-0.1365539804194921,0.03699856570248418,-0.003402167655888131,12.317954456377754,34.32847,-1.2455453705286714,53.007802733616394,-16.794128828791504,29.383961706746785,-7.051142059723602,5.339803999999999,33.03000000000001,1
0.909462865850465,-0.06271355511685986,-0.14558873977571993,0.0008507338641907936,-0.0035346792317599964,12.322027631499163,34.331837,-2.0911973975221922,53.00563438986277,-16.091219180563012,29.126443173033387,16.18172823396947,5.3385240000000005,33.0,1
0.9072211308216651,-0.06487295267278578,-0.14077607953397275,-0.0512066573441935,-0.003073342269315365,12.307425851999023,34.33167,-2.4832225481552053,52.99120863003716,-16.817661300065435,29.114463812866052,1.204136081660482,5.337245,32.99999999999999,1
0.9063419546242949,-0.06485635197719695,-0.13037859143307834,0.020160632580570173,-0.003311026129228627,12.299482750729938,34.32974,-2.721421783740764,53.00817866462298,-16.899165553761208,29.17328839491235,-0.39584863786502733,5.3346870000000015,33.0,1
