chest_ACC_1,chest_ACC_2,chest_ACC_3,chest_ECG_1,chest_EMG_1,chest_EDA_1,chest_TEMP_1,chest_RESP_1,wrist_ACC_1,wrist_ACC_2,wrist_ACC_3,wrist_BVP_1,wrist_EDA_1,wrist_TEMP_1,label
0.7115005687491585,-0.19103837774443297,-0.6097466680340912,0.03964777875903406,-0.0021714633819050373,4.188679723455286,34.288677,0.8199203152145087,43.548262851489646,-9.814738527226439,-44.44580102171792,-8.503598489297934,0.6476369999999997,33.37000000000001,1
0.7147955252160165,-0.19144920391940778,-0.6069010118007993,0.0324162730160185,-0.002586821324495022,4.18599420853443,34.288403,1.1000812496315868,43.55494396616017,-9.914828307164246,-44.12656389677111,21.91379430295493,0.647636999999999,33.36999999999993,1
0.7142760228242029,-0.18940511905643811,-0.6066260156222614,-0.005073908795133443,-0.0029799659081216983,4.184967752826911,34.289436,0.7225829821441283,43.52899922676302,-9.950159551830517,-44.412676413946215,-7.8594006037659145,0.6463569999999987,33.369999999999976,1
0.7126558996768023,-0.18888340158086558,-0.6116437039578251,0.00039694848184675764,-0.0022351430594270082,4.183666638100424,34.291897,0.1928592490692717,43.35651848957301,-9.952042615537847,-44.63082592331545,-38.33444437196251,0.6489159999999992,33.36999999999997,1
0.7105165783474072,-0.18742337816396903,-0.6116115396195104,0.04546208250372567,-0.002334155761396687,4.1851530103925665,34.29162,-0.069859042302273,43.275629487036994,-10.062976194738985,-45.11130200364564,-34.418404768483136,0.6450780000000003,33.370000000000005,1
0.7073777379118439,-0.18616657070539872,-0.616970509287501,-0.025913863957401806,-0.0023309382046190165,4.18380096929766,34.28838,0.16302332209346987,43.039244410732096,-9.929426553015817,-44.88944594151906,20.19255290896535,0.6437990000000001,33.369999999999976,1
0.7049169075671353,-0.18517463698471667,-0.6201383722219609,-0.007320401779157249,-0.002778908490907445,4.183212406939665,34.286636,0.2704575078760511,43.071011350517345,-10.075968365051457,-45.07762404460418,-11.223636495415649,0.6437989999999992,33.369999999999955,1
0.7049534455819392,-0.1858720809687216,-0.6220792095710518,0.012777284467718438,-0.002273846539598181,4.1831965681003185,34.28424,0.2708428233234429,43.17349889288879,-9.918799419199138,-44.54838567049485,-53.12964304321376,0.6437989999999991,33.38999999999999,1
0.704683091515159,-0.18565803505408804,-0.6187938820943532,0.03306493242024491,-0.0027895228599838936,4.1845696714787515,34.28187,0.2477614865943029,43.63294816368707,-10.08929960396448,-44.20549522329604,-3.6183539883498406,0.6437989999999992,33.38999999999998,1
0.7023052095394111,-0.18501304210006106,-0.622541603897782,-0.0500052223728708,-0.0025731601700288197,4.1844831535704925,34.28249,0.1576540433594783,43.90903475865214,-9.879130099314452,-44.15249947267586,28.86403046508084,0.6399609999999994,33.38999999999997,1
0.7085317960706949,-0.18586877848462297,-0.6164905241900615,0.0007352516144938989,-0.0023323112759481295,4.183931892795735,34.283413,0.028692466252664986,44.303957376501195,-10.059102443958615,-43.79765291305962,-3.2909147231596823,0.6399609999999998,33.389999999999965,1
0.7131470480515206,-0.18556955005640807,-0.6106266813211095,-0.006289169028937322,-0.0024634409322210286,4.182971507079401,34.280884,0.028412770969184403,44.43105516976428,-9.824052611181694,-43.801485564078085,6.327642679888121,0.6399609999999992,33.38999999999996,1
0.7163316362957257,-0.18576137692350694,-0.6046872983622898,0.038542833069452324,-0.0017571535970454496,4.183384088705784,34.2782,-0.004525938190508231,44.35959943991776,-10.177836939696418,-43.90229047681503,25.11399993459067,0.6399609999999999,33.389999999999986,1
0.7133667234682958,-0.18789860155597946,-0.6073435274088245,-0.06314721564285748,-0.0027006757507734023,4.1845206154603405,34.27985,-0.07648568882683517,44.31027729452102,-9.899439144804798,-43.761112686787904,20.215782473286247,0.6386819999999996,33.39000000000001,1
0.713703996396241,-0.1860996019784071,-0.605302097755153,0.016717237303700856,-0.0019410932684784232,4.183137831395043,34.279125,-0.14813940737390097,44.317729062771356,-9.999662217085262,-43.904115285751665,-1.434662530971232,0.6374029999999994,33.38999999999997,1
0.7145842046443821,-0.18786920474409669,-0.6043238739240596,0.023077501262802308,-0.002194700176539022,4.182199088172667,34.280155,0.07752976677306253,44.34997003254478,-9.971221131329207,-43.96835237708135,0.9992921441914339,0.6361229999999998,33.38999999999999,1
0.7151287801215563,-0.18494480727429147,-0.6063736720754245,0.01944917993057994,-0.0020946144434271434,4.182848799053292,34.282696,0.2999999591692718,44.00989642079857,-10.037182460167468,-43.949309718426434,27.011587884413437,0.6374029999999986,33.38999999999993,1
0.7184131348577247,-0.18596964892539783,-0.6047570806290135,-0.03219660383960568,-0.0025057974769059736,4.180771295008371,34.28988,0.04101493483889106,43.897762772184066,-9.950861651492389,-43.893403618855984,-5.379348906834609,0.6361229999999999,33.39000000000003,1
0.7179567358779375,-0.18567748893304545,-0.6036754504584474,0.04648157951044175,-0.0024405954361146633,4.180312672491793,34.29383,-0.30820682605767374,43.89497270041938,-9.84717475433376,-44.092021824365915,-32.575153825482715,0.6335649999999997,33.389999999999986,1
0.7168662133555925,-0.18764919428268353,-0.6046160959466148,-0.0052555889855451475,-0.001821562991678333,4.178704360608322,34.298832,-0.5804637766298979,43.87263963632774,-9.736053372312755,-43.91185654968465,8.935571427922136,0.6335649999999994,33.389999999999986,1
0.7163848698243794,-0.185737518213114,-0.6048599915752543,-0.003164039311196328,-0.0024366042190745846,4.180006584726668,34.30394,-0.6279221012547868,43.9042598227641,-9.959854754661789,-44.362748813388805,28.065908683725663,0.6322859999999999,33.38999999999998,1
0.7154867930614308,-0.1868911827862264,-0.6056822265356292,-0.028735082776418404,-0.002214606128088579,4.177620869408012,34.304165,-0.46407906521860937,43.92574075729086,-9.971269248976693,-43.85726566398713,-19.768954163796437,0.6335649999999993,33.389999999999944,1
0.7170405945708228,-0.18721410126327812,-0.6043678209226667,0.038647749013298205,-0.0021389924416438926,4.177025912487623,34.307285,-0.3782024942003927,44.132785716063125,-10.02755414230324,-44.14884175793427,-7.998109748695168,0.6322859999999989,33.38999999999995,1
0.7147006713485361,-0.18741200998616697,-0.6055642998791184,0.0018028190307941936,-0.0016221232600406247,4.176214647567289,34.310165,-0.3235292075417247,43.93703032010421,-9.977773326949263,-43.89308253384919,31.093957679417603,0.6310059999999995,33.38999999999995,1
0.7144559714992109,-0.18599865054335007,-0.6067818961297933,-0.012502865581028982,-0.0019165455636777778,4.175823354487442,34.313194,-0.2689698947742976,44.09825519580066,-10.015159103953282,-44.304889767565435,5.2683808085120685,0.6310059999999994,33.389999999999965,1
0.7142746640267712,-0.18607818544221166,-0.6084194069322459,-0.0077742817062098025,-0.0027265052085854165,4.17499273029917,34.308666,-0.12258300274785727,43.86202895509796,-9.993272220825254,-43.6893932693187,-36.622128635783255,0.6297270000000003,33.39000000000002,1
0.7160459855676433,-0.1862984104016616,-0.6082141724234374,0.008606269961643438,-0.0021782923858811795,4.172975209896265,34.30463,0.028886448224026477,44.26007944756709,-9.996835584198205,-44.597517896851805,15.168417102274757,0.6284479999999991,33.38999999999997,1
0.7057583754485549,-0.18218863248246472,-0.6143146360383542,0.033722509598807786,-0.0023798459607622694,4.17398000342787,34.304,0.23499643837141754,43.570671915743404,-10.041647981799033,-43.167100817121806,29.22010218182465,0.6258889999999998,33.410000000000025,1
0.6962116497074625,-0.16377377790657435,-0.6222550063581673,-0.029973226185290355,-0.002263285339894065,4.175665918986843,34.302807,0.3319073357758594,41.71498535881072,-11.247027852161786,-45.0340716407909,-11.208593658534685,0.6284479999999997,33.40999999999999,1
0.7057662660726948,-0.1784619704241468,-0.6378405967589879,0.016415930238508892,-0.002608740137894358,4.176044400661036,34.298412,0.8035121494005077,37.65882761670037,-16.31365832508809,-49.56065220574416,-41.75141167522948,0.6246099999999998,33.41000000000001,1
0.7160194947556712,-0.15680780658196863,-0.6069799959001112,0.0016259670748147391,-0.0023344012762968264,4.1749099001051455,34.29603,2.0836236094077307,37.914504166742795,-16.847560085531754,-47.308604927616805,21.97630912582951,0.628448,33.41000000000003,1
0.6932790127095023,-0.16150918495225725,-0.6380551022471715,0.014553179839838377,-0.002637870938039147,4.171625218472533,34.29431,2.902544683816758,36.6924102577706,-16.823862334419264,-48.00647778266962,35.96210011559687,0.6258889999999997,33.38999999999999,1
0.7056056597541351,-0.18451006958662342,-0.6206314872703046,-0.04643214436655347,-0.002247604488781981,4.171896423432235,34.29169,2.714909787554176,38.56422749240477,-17.44979196803512,-46.1674549332132,15.937562065098032,0.627168999999999,33.38999999999997,1
0.7090124747141704,-0.1750264048066609,-0.6207441179956683,0.058447543392218235,-0.0022784774062261574,4.171097695292,34.290173,2.141982791361497,39.26045489090726,-15.891909521942663,-47.031934208065515,-40.701248081141564,0.6258889999999995,33.39000000000001,1
0.7042083015184382,-0.17521525079195377,-0.6211648978880226,-0.012767929589823122,-0.0021043073247920922,4.171105998831843,34.28872,1.0254160780272643,38.91250041470743,-16.95547497311124,-45.96590628858922,-11.992180421385891,0.6220519999999996,33.38999999999997,1
0.702962495663958,-0.17512671345389605,-0.6239938170626292,-0.030840735685974684,-0.0027310306203777108,4.1699430729817735,34.287388,-0.038195094857742216,39.51275067631183,-16.451865495283272,-46.07476140442901,-17.133246834605224,0.6220519999999997,33.409999999999954,1
0.7051639733103725,-0.17530370548426724,-0.6241383975824835,0.023512277196477804,-0.0020187205210698733,4.170079340136568,34.288063,-0.39219676301138623,39.30170149329288,-17.51253788980649,-46.15847763880472,-34.201105980615885,0.6194929999999995,33.40999999999999,1
0.7078865606168302,-0.17241674877000648,-0.6190488244148652,0.003715622160630676,-0.002813959755198864,4.169469440969827,34.288887,-0.4343963911616587,39.22057754455406,-17.411984572082304,-45.84723407133194,-116.91389557896333,0.6182139999999999,33.410000000000004,1
0.7079562255305998,-0.1721310986946545,-0.6195207246033191,-0.07466579369980594,-0.002432418999359598,4.171765922887332,34.290592,-0.21754685672664054,39.02154571280522,-17.51519532828285,-46.613355313946,1.2738825310980675,0.6143759999999999,33.40999999999999,1
0.7043687265479861,-0.17725671603589513,-0.6229898419487588,0.04914622966435704,-0.00254681642593176,4.171377519046798,34.294926,0.06292700450336564,38.98884626454589,-17.03104482979712,-46.90687805918861,95.58957893615025,0.6156549999999994,33.38999999999995,1
0.6995351611699883,-0.17618026525835667,-0.6278273262596774,-0.06089065932056361,-0.002583790629278242,4.173594442828121,34.298244,-0.27433748351302306,39.20353016366013,-17.31887884775392,-45.93103222568673,-20.42245186029196,0.6130969999999998,33.389999999999965,1
0.6934417838404242,-0.17293461286811695,-0.6384331507145762,-0.017511571129288545,-0.002424175041089135,4.172991424164004,34.30149,-0.6394300567527595,38.86979569955508,-16.776963172574277,-47.019014593807384,94.61623333938864,0.6156549999999993,33.38999999999997,1
0.6876655347302951,-0.17706304797834801,-0.6378273497446404,0.02597397621494872,-0.002493284973934514,4.17487236788263,34.30626,-0.34360944891842854,38.99235892264003,-17.19484858724317,-46.12401265471562,-14.195732047141073,0.6130969999999998,33.390000000000015,1
0.6861332238384249,-0.17323929275413577,-0.6409461081664187,-0.004528520396804101,-0.0025507303247279986,4.173130817521583,34.314835,0.5840959899712684,38.97337563679441,-16.818458640938687,-46.474513787861945,-69.21794104161741,0.6143759999999991,33.409999999999954,1
0.6995662870578202,-0.1705582703003941,-0.6343829100091486,0.02632029490860497,-0.002905875642964938,4.172294666637982,34.317856,1.1295067040017515,39.11756874396023,-17.229499584228193,-46.21853238958339,58.111306983747546,0.6118179999999995,33.40999999999998,1
0.7019352905905822,-0.16691178848137195,-0.6288746396228377,0.08395168279524487,-0.0023309946534717948,4.169132061723018,34.32284,0.47982242334925485,39.63428821594626,-17.362953454188855,-46.03709432280753,2.8275472057671838,0.6130970000000002,33.409999999999975,1
0.6939520961892168,-0.16585350647453304,-0.637030062012758,-0.037283824703314976,-0.0023985164183735396,4.169365017745272,34.32957,-0.41130110281456755,39.67927256024678,-17.680672547272753,-45.19351116681149,-25.82637971433278,0.6130969999999996,33.409999999999975,1
0.6871208057830902,-0.16190654151508146,-0.6457992849035684,0.021804315210033016,-0.002692234558437551,4.168649359386122,34.33594,-0.7884482377969537,39.40918928332318,-17.395537190217016,-46.2009715369757,70.16878390169184,0.6105379999999997,33.38999999999997,1
0.6846617026118539,-0.16367027067425255,-0.6494307766730298,-0.02551697236742149,-0.0019226436099533686,4.167789526806913,34.337063,-1.0130581506366776,39.20174513613972,-17.764947794781072,-45.80490380799876,28.386540774841485,0.6118179999999993,33.389999999999944,1
0.6870466705719468,-0.16041838076733095,-0.648224756562032,0.028846838158658832,-0.0029527992795541458,4.166942838308749,34.341446,-1.4038455774008356,39.60568510446367,-17.03960388577787,-46.170349363554344,30.698245512464403,0.6079799999999997,33.389999999999986,1
0.6863155101862168,-0.1629507955261938,-0.6464062245368324,0.04671994527863573,-0.0021549385955310072,4.167251405631932,34.33912,-1.6723126449329038,39.21108570932311,-17.258880650111234,-45.70291386035783,78.51292955718971,0.6092589999999991,33.38999999999995,1
0.6863163379732408,-0.16113531339845596,-0.6471174440252533,-0.03909012506503138,-0.0020915729644773585,4.166256285990956,34.335274,-1.6722881560684468,39.56569178360041,-17.01230839181903,-46.1787836413032,-69.95909252988008,0.6079799999999999,33.40999999999997,1
0.6880192270404165,-0.1616749173075362,-0.645498546598146,0.0037101657355389974,-0.0017952860664544085,4.167193056312435,34.334785,-1.433798199089498,39.406948583954765,-17.630737621984387,-45.83593673575515,-71.18815696745258,0.60798,33.41,1
0.6885952409207928,-0.16150374876194276,-0.644513921735043,-0.05868875736165574,-0.0018007156432108483,4.162750318451246,34.335327,-1.2069805294550007,39.35055586332809,-16.982169236972833,-46.154542160089136,43.24443280954122,0.6028629999999993,33.40999999999995,1
0.6878265637356945,-0.16128733141408208,-0.6453850467786093,0.06387966286310916,-0.00258415432005198,4.1634528258736765,34.335003,-1.1089035221178953,39.27348201588717,-17.418302687316125,-45.853149806609245,24.91406389242481,0.6054209999999994,33.40999999999993,1
0.6889345822736124,-0.16141585247409063,-0.6450702759262014,-0.022666466984109533,-0.0027453447892402064,4.162738761994379,34.33427,-0.9700185750398339,39.52927450954598,-17.342945757864022,-46.14004427614453,-9.7333486134638,0.6079799999999991,33.40999999999991,1
0.6866068912629162,-0.1612231211239814,-0.6464363398628599,-0.0024914997672627185,-0.002828770967808567,4.163868729221554,34.334724,-0.643173086730126,38.99770958658593,-17.65114425181964,-45.865784267823244,-85.44864723526372,0.6054209999999994,33.40999999999999,1
0.689894252257589,-0.16199133633879315,-0.6437046789600576,-0.02436743066902532,-0.0031073533163770498,4.161325592919564,34.331013,-0.3677107549142209,39.18795355741088,-17.543713691925294,-46.141820553401885,20.161183098178533,0.6067010000000003,33.40999999999999,1
0.6908474650165499,-0.16376192015689284,-0.642052889939942,0.01672307399964631,-0.002470910586209081,4.160285772731348,34.32631,-0.28941241627568487,39.11603299810669,-17.378293598071355,-46.1637181214981,51.819187000707274,0.6054209999999991,33.409999999999954,1
0.69053280722774,-0.16496241146420387,-0.6415706204402727,0.014941500093962347,-0.0026764518014833144,4.1616514892357594,34.325817,-0.016610155642607656,38.96369971329876,-16.82829388077282,-46.67550461113473,16.608681344802676,0.6041419999999996,33.40999999999997,1
0.6872826131279534,-0.1656230990505551,-0.6443876436022751,-0.042356708006810025,-0.002679043121093825,4.163174278046657,34.323307,0.31939844049583166,38.91367364678022,-17.31180319536965,-46.40231105077564,-36.94868031705955,0.6015840000000002,33.409999999999975,1
0.686470858098441,-0.16459300647647965,-0.6431485626382212,0.00791242252753953,-0.00270974587016959,4.162228604781399,34.321976,0.3592406906975955,38.951905982744044,-16.968322884818633,-46.338479117176156,-45.688731155886614,0.6015839999999992,33.40999999999998,1
0.6908637067219348,-0.16553227836387308,-0.6417016552204613,0.03861032957508751,-0.0025975952511654763,4.161585578369017,34.32222,0.20570983480811886,39.03747676092275,-17.291953901434542,-45.909243017458785,32.01726367626525,0.5951869999999992,33.40999999999995,1
0.691220446972938,-0.16295117656586938,-0.6413046040417149,0.028384084655572163,-0.0034692427055105267,4.161325104598713,34.32212,0.27197608696199777,38.96478998088621,-17.001485939369037,-46.75193720133825,26.467220310508345,0.6015839999999996,33.41000000000002,1
0.6897486764751329,-0.16168035791829172,-0.6443540271838066,-0.028183627180162638,-0.002626054466618751,4.161338690861318,34.32547,0.501540734445321,39.036046482207965,-17.50550118792766,-46.40740532528146,-13.75615060957256,0.6015839999999996,33.41000000000001,1
0.6898473167919217,-0.1614541088778871,-0.644073340098468,0.013562393746857589,-0.0029283967629148895,4.1592768317385795,34.330887,0.6460430821211589,38.96005757677455,-17.463661160223385,-46.209692770929436,-40.37086992193063,0.599025,33.40999999999997,1
0.6867629395267254,-0.1606690737789494,-0.6464030717245198,0.0271900693852148,-0.0025993842778262812,4.160281942720331,34.333515,0.5691338195599164,39.05102198774929,-17.818530141906344,-45.98832139470347,20.88245189979715,0.5990249999999997,33.40999999999999,1
0.6854891472747892,-0.15854284676871508,-0.6485878039244436,-0.0031884625079454595,-0.0027756531331173235,4.160726112911671,34.338596,0.47955339431238414,38.87756096501587,-17.68792279818658,-46.14953943824558,26.685930177671242,0.5990249999999994,33.40999999999998,1
0.6850455096937099,-0.15853688432333782,-0.64981476887334,-0.018714598124458786,-0.0021809614067924976,4.161799673767968,34.340607,0.3927867384051171,38.96591065309746,-18.163090207641478,-45.84980896056548,-34.322917429998284,0.6003039999999997,33.41,1
0.6863382183876784,-0.15638553755355458,-0.6489223334856259,0.007572984554486736,-0.0021663595409952153,4.160176547124156,34.34417,0.31446787558522676,38.997456622629024,-17.812575373538692,-46.20203814957163,-34.50842680600088,0.5990249999999993,33.40999999999997,1
0.6855798386277974,-0.15857271636376447,-0.6483931485747776,0.025882351833331676,-0.0023060145761697667,4.161031419625092,34.348423,0.22545300452653094,39.01168298385053,-18.005187229617803,-45.95145815241236,20.41768199424117,0.5964670000000003,33.41000000000001,1
0.684831382098819,-0.1564107941190797,-0.6494924535628472,-0.01140058428943006,-0.002131503960116848,4.162470220289124,34.349525,0.06966365607381773,38.98387509686984,-17.711825085606794,-46.18401131926802,12.656747100018816,0.5964669999999991,33.40999999999995,1
0.6845966280028142,-0.157470782976482,-0.6512091284409613,-0.01836318114963639,-0.0018364788603480494,4.164104678012439,34.34533,-0.013680648760784864,39.01893319825565,-17.91778547166334,-46.064430511534674,-39.42079343934959,0.5964669999999993,33.409999999999975,1
0.6862607887300418,-0.15728392012954046,-0.6494949749636839,-0.00702734224948906,-0.0026005305139391744,4.163493573522415,34.346615,-0.017093273632687752,38.97902085638298,-17.934912625828026,-46.100498309762926,-18.514451183493968,0.5977459999999999,33.40999999999999,1
0.6855995497361708,-0.15837019431670585,-0.649340706397601,0.018347548645730852,-0.002184329645696879,4.163810496166452,34.34372,0.035657657216408865,39.022586268448826,-17.975389837607274,-45.900183130986704,39.49311422808547,0.5964669999999992,33.40999999999996,1
0.682028430001065,-0.15834934207028142,-0.6535445064725245,-0.023813942928291094,-0.0024856465239550753,4.163724363943976,34.345882,0.27105704493795457,38.976142298217056,-17.871603258578745,-46.102200117937194,16.241423795990357,0.5951869999999999,33.41000000000001,1
0.6795745742345565,-0.15968776992134204,-0.6534583307190576,-0.04058320321141796,-0.0025997670691868266,4.163084029434265,34.346634,0.5052922039605792,39.02469801628477,-17.643447659597808,-45.894619993750226,-34.11153008061356,0.5951870000000001,33.41000000000001,1
0.6808312662658371,-0.1601242048607529,-0.6522992223015252,0.041736427005383145,-0.002010652956675483,4.16311261529422,34.352306,0.4655277796531015,38.975542045494336,-17.316418572469512,-46.11001492061598,-15.762620926038577,0.593908,33.40999999999997,1
0.6833402354948802,-0.15870853438731788,-0.6521414165580323,0.013910298579923194,-0.0021902104093525043,4.162815973418297,34.35401,0.484306991771561,39.018594309544554,-17.75829056034065,-45.88268172253194,36.51071304696908,0.5951869999999995,33.41,1
0.6861516884965174,-0.15703059827187818,-0.6497403859188927,0.012372399453611597,-0.0025877728290821015,4.163439986057031,34.359913,0.5081308709399056,38.8368189902472,-17.68506638286411,-46.46223263148244,8.79966504571249,0.5939080000000001,33.43000000000001,1
0.6825500744834849,-0.15542456817937628,-0.6533311263088376,-0.021282637701396177,-0.0023376367497119736,4.160999978423144,34.35899,0.5734643600819226,39.06628932297126,-18.086657496975562,-46.30028554536947,-31.337805432301515,0.5926290000000003,33.42999999999998,1
0.682011084874968,-0.1562834754873872,-0.653838569624056,0.05790796347852091,-0.0025506671073786636,4.160717506463295,34.365757,0.562363307280807,38.886292513568506,-17.897146765145866,-46.09423115822745,1.8925309341490977,0.5913499999999993,33.42999999999996,1
0.6808057341610158,-0.15621779083134707,-0.6551231473609052,-0.02962480283264989,-0.002449078900168877,4.160860253872147,34.37041,0.3593773594334314,38.95296495387391,-18.107387909931525,-45.919849832008715,58.368395051317336,0.5887909999999997,33.43000000000001,1
0.6804367158083986,-0.1549753403827427,-0.656088390708855,0.012392864675248624,-0.00264840558395049,4.159266770159244,34.372303,0.1187517426410384,38.99448153142829,-17.890243503892442,-46.405430476660634,-18.984220729292392,0.5900700000000001,33.429999999999986,1
0.6812211512252789,-0.1557196617805623,-0.6544705711347264,-0.03701746254740866,-0.0022731360783705213,4.159197524828127,34.374485,0.07605427328003694,39.01607758166069,-18.111402595389517,-45.95906617564451,-52.44752134153318,0.5887909999999994,33.42999999999998,1
0.6813766294194461,-0.15510639009549984,-0.6554243822809126,0.043000248819388735,-0.002129320780530204,4.158129047001874,34.374584,-0.018962865114516315,38.97919588021437,-17.88720386707039,-46.18288064318089,16.941678482151865,0.5913499999999997,33.429999999999964,1
0.6815659805574253,-0.1553736384603138,-0.6536936103289046,0.006896624715795872,-0.0024277219924815083,4.15876948778586,34.379524,-0.08874875895171348,39.02365290818221,-18.114155727294403,-45.943896495665584,36.37700584844553,0.588791,33.429999999999964,1
0.6805689643090072,-0.15428011625803398,-0.6557896907491418,-0.018499761897199467,-0.0020315606513694137,4.157908581332986,34.382458,-0.061569649038567716,38.97430747510465,-17.75941523007344,-46.22724144763944,-36.4668353550814,0.5887910000000001,33.40999999999999,1
0.6826732182114171,-0.15520029102840655,-0.6549857799121735,-0.01959535793163397,-0.002734091871255434,4.157192380828774,34.379036,-0.0889126245792061,39.02734367638364,-18.116952635940326,-46.3711137496742,-40.53432655622647,0.5887909999999992,33.40999999999996,1
0.6830854131379676,-0.15648101789223695,-0.6539252935347658,-0.0255793749428857,-0.0027624689296498746,4.155531602771859,34.38354,0.03145791503201542,38.97117207801914,-17.883588431182247,-46.11169949847511,45.61200239649673,0.5875119999999993,33.40999999999997,1
0.6835351773145311,-0.15675029812196214,-0.6522481992408824,0.04673799900312046,-0.0026511831862293038,4.157858601002609,34.38348,0.20328256044695747,39.03031128333226,-18.019452032952977,-45.917763679497156,34.95954650831022,0.5875120000000006,33.41000000000001,1
0.6798163421436604,-0.1587767572189752,-0.6551073102017811,-0.027431330488412512,-0.002327525072894514,4.163278961787951,34.38507,0.40610382488271424,38.968012056663156,-17.805875549989935,-46.081491620396925,-7.724386686781359,0.5862329999999992,33.40999999999995,1
0.6769307592310643,-0.158150719004451,-0.6572436881684321,-0.012333891846459874,-0.002236632740791575,4.164314269119819,34.38339,0.25983833436886716,39.0342038643996,-17.90698954804885,-45.91506686612059,-64.32537482806174,0.5887909999999994,33.40999999999998,1
0.677682472255102,-0.15814346279947059,-0.656680885753738,0.00030637286055607704,-0.0020663687451458242,4.163031647989009,34.387054,0.1085214367953341,38.96216628680895,-17.826092572185875,-46.091843277629266,23.25327584981878,0.5849529999999992,33.40999999999994,1
0.6805672528045855,-0.1576829643440438,-0.6555769285375328,0.051267151826088625,-0.0023952162505876764,4.159548505606619,34.389225,0.1022669871292436,39.04623169504533,-18.03214995871641,-45.89099863729108,39.83727398023557,0.5875119999999996,33.41,1
0.6812728965059843,-0.1553921766111157,-0.6547571738614758,-0.015533506305354963,-0.0024220185165391146,4.158518699082944,34.389694,0.025654772631943483,38.90714017344883,-17.926437788237667,-46.3077659226893,13.157409601343652,0.5836739999999997,33.429999999999964,1
0.6796861385002299,-0.15483340544990024,-0.6568503948548016,0.00010609777375720646,-0.002392267678012495,4.157723727275285,34.39204,0.15156350077389272,38.89118589514628,-18.084193103264422,-45.98231004949829,-41.460189359029414,0.5849529999999998,33.429999999999986,1
0.6795050582404009,-0.1539905339994393,-0.6576730998779455,0.003777449076065122,-0.0021490748069148127,4.155934424802524,34.397556,0.2210915392925923,38.826509612738576,-17.911916904576955,-46.04107893504018,-20.89745631692476,0.5836739999999991,33.429999999999964,1
0.6788385365479783,-0.15266347495580962,-0.6575901180333141,0.04657015470363151,-0.002388653369689383,4.156834925916859,34.393497,0.023032411929970128,38.97225925800516,-17.87185367591041,-46.25245243258677,46.91316228555352,0.5823949999999997,33.429999999999986,1
0.6781264558115248,-0.15355421349856288,-0.6588634458097227,-0.04608528904727844,-0.0020490147448734048,4.155243707627934,34.40077,-0.07812787146160244,39.000932826224975,-17.667247759471127,-46.50095656080579,26.64531010200795,0.5811159999999994,33.42999999999998,1
0.6791153755870597,-0.1512900530797877,-0.6581729756498472,0.013002940489510367,-0.0026083071467875012,4.1547646956516875,34.401,-0.1375512810725757,38.999265078488506,-18.07808597747084,-46.20396941186331,-31.578740537515127,0.5823950000000004,33.43000000000001,1
0.6788267158678348,-0.152457959565312,-0.6576991358999956,-0.04368788055845454,-0.0023846229998811456,4.1527049567506324,34.40104,-0.2009302182309813,39.01417973947291,-17.61677527689087,-46.36565294581558,-3.5273888723623728,0.5823949999999988,33.429999999999986,1
0.6789794265309314,-0.15160913101614332,-0.6577753778040606,0.08939708937567002,-0.0024487860155674767,4.152693408077936,34.40176,-0.2610709768544836,38.82623818669552,-17.773400318135323,-46.575953416004474,26.94484987320975,0.5798359999999994,33.430000000000014,1
0.6777974791669107,-0.15330606881855352,-0.6598697504169903,-0.06485686415077054,-0.002370188337204284,4.151573338542795,34.403553,-0.15322705896213384,38.61152521924603,-17.576838699926153,-46.673568497564396,-2.3830118411565464,0.5785569999999998,33.40999999999997,1
0.6761262572933749,-0.15267869320314084,-0.6622174405016884,0.016533263110128753,-0.0027443091458954944,4.151884899406898,34.401054,0.064391693728504,38.90739039408782,-18.02274152149568,-46.488681434758355,-61.033190703516446,0.5798359999999991,33.409999999999954,1
0.6751040474283269,-0.155083061457523,-0.6620504334256636,-0.06855839628589053,-0.002703357158050163,4.149603917642442,34.404747,0.3086617115804072,38.86336973154856,-17.540285810960082,-46.51553922928143,3.886287186130968,0.5785569999999998,33.40999999999997,1
0.6722973952956757,-0.15610341777920558,-0.665925350939713,0.0728049410639091,-0.00262991235363709,4.15114810717985,34.40509,0.3337055057930993,39.05020350067816,-17.789786273310526,-46.192792391303534,46.19278788181996,0.5785569999999991,33.409999999999954,1
0.6692288119958602,-0.1573784509715365,-0.6640093437698559,-0.028052765365107306,-0.0022242400462710236,4.151680206087226,34.40933,0.1317891794998158,38.96122713822343,-17.379143764895208,-46.22430327210364,9.31180697227379,0.5785570000000001,33.43,1
0.6679089117889294,-0.15549818285357977,-0.6680530074065975,0.019594437065820643,-0.0023773593176652985,4.152191603808018,34.412704,0.17763657541720734,39.03049350149034,-17.658190081837635,-46.3142028966862,-50.378271155231594,0.5798359999999994,33.42999999999998,1
0.6754095762465344,-0.15567998564493662,-0.6620173420701044,-0.01541719980201854,-0.0024881729525517,4.149227462400542,34.414787,0.2770920310396871,38.98303496028366,-17.83823844917498,-46.101912162835816,-35.6991305227429,0.5721609999999994,33.42999999999998,1
0.6808056482528946,-0.15450317450641124,-0.6582153236149962,0.07966191813202614,-0.0025886311362981656,4.149251585742126,34.419025,0.23241416838103074,38.94385386318701,-17.963429338029805,-46.04818659101138,42.694666068206324,0.5785569999999998,33.429999999999986,1
0.6780252741692345,-0.153245225405359,-0.6590583010488593,-0.04200877498769685,-0.00227222539639543,4.150210687789438,34.42379,0.21804274655405884,38.90114299502035,-17.529690191015828,-46.236804243845405,30.32147635342765,0.5772779999999992,33.38999999999997,1
0.6759680197525855,-0.15207634077373702,-0.661884919682443,0.024100468853197693,-0.0025873390251352365,4.148662095219821,34.427315,0.28845597608604623,39.06036090494523,-18.012615360537254,-46.13327263905202,-5.81101067962959,0.5772779999999996,33.39,1
0.6771147407276014,-0.15315014802622964,-0.6604160552439838,-0.055597354380935604,-0.0027932433144884474,4.146893347846684,34.430126,0.23631955978630467,38.951755454351556,-17.946304078686016,-46.130728735074904,-30.821953970464897,0.5759989999999997,33.389999999999986,1
0.6776522022158572,-0.15273510029626652,-0.661062886407608,0.07367563335759834,-0.002777132667356159,4.147787939671428,34.430553,0.06256327109613732,39.03783545266902,-18.061281750375375,-46.09988573845648,32.66832925612477,0.5759989999999996,33.38999999999999,1
0.678181673053806,-0.15268068241955896,-0.6574991066196322,-0.0494794080504355,-0.0019741234459447776,4.147328061681502,34.43151,-0.14204579375580983,38.98117938171533,-17.93911680541839,-46.10532301600312,25.23784783982621,0.57344,33.43000000000001,1
0.6774184030040853,-0.1517830836203344,-0.6602480960210354,0.01955849369391762,-0.002224841825741481,4.146535107392803,34.43651,-0.24024441247127828,38.894086378670345,-18.04356188062777,-46.12062565704445,-39.405100604928094,0.5734399999999985,33.42999999999997,1
0.6802001748665483,-0.15259193663116016,-0.6573731486260436,-0.054258753213738575,-0.0024941054865337633,4.144670860962309,34.43821,-0.20986047118655635,38.794728886501915,-17.801810882692376,-46.25057954030947,-29.371020450083737,0.5721609999999994,33.42999999999997,1
0.6787223772914882,-0.15179483919883258,-0.658372719915456,0.04797273668380493,-0.002799925619212611,4.143435324216521,34.44138,-0.19261812952978838,38.99926982000083,-18.118663056547522,-46.2347558963565,51.715067901468736,0.5734399999999995,33.42999999999997,1
0.6800750692362298,-0.15243531545359448,-0.6575503159614708,-0.008094188910723388,-0.00248073043202892,4.142600118986886,34.446056,-0.14411395591057752,38.819718431191916,-17.71157695205069,-46.473007918509474,19.897671960905043,0.5721609999999991,33.40999999999995,1
0.6755112358161053,-0.1530424556697568,-0.6611913075595091,-0.03306201529969093,-0.002351635009408866,4.142411144597813,34.448593,-0.09161007797343909,39.02225304157326,-17.749308099330044,-46.360709840226235,-30.53603417186411,0.5747190000000006,33.41000000000001,1
0.6757281657532624,-0.15299617080916847,-0.6616862406688531,-0.025491162412200872,-0.0024664491074333564,4.1421917267822845,34.448215,0.06861995357046066,38.71242013231152,-17.779549333445487,-46.54870913009038,-50.07373010325281,0.5721609999999991,33.40999999999994,1
0.6726936244658148,-0.15527548119175966,-0.663512344123683,0.025258047864204738,-0.0024711414122111845,4.141853940912039,34.454086,0.2197760677545656,39.02752110742771,-18.09407756835673,-46.22492865442756,42.38245060710889,0.5734399999999997,33.41,1
0.6710502431093517,-0.1551897715865918,-0.6625985608992304,0.02825161164721572,-0.002320939398729775,4.143222850066682,34.458096,0.18233748524165058,38.78707577866499,-17.6508629393172,-45.95167853340208,29.525623732729635,0.5734399999999997,33.42999999999999,1
0.6719529592511588,-0.1541928240474006,-0.6648213500199985,-0.015713780729661522,-0.0025441907353232953,4.14255288999098,34.455143,0.13870316591726528,38.82403240134283,-17.657328066167604,-46.45240892009537,-3.0138298615824968,0.5747189999999998,33.429999999999986,1
0.6760738734436474,-0.15423552339555804,-0.661593629388086,0.028349506400718646,-0.0024576640490487954,4.140686258363476,34.464016,0.1797886493938928,38.75966340459922,-17.637548217956315,-46.33904228948177,-63.87909356908669,0.5657640000000002,33.429999999999964,1
0.6759876159955446,-0.1529959451779635,-0.6615658037838699,0.043855843041328994,-0.0024714880931859754,4.141710206098008,34.464794,0.229114727495211,38.9844275938921,-17.86319136609744,-46.238398758752844,8.373857811140889,0.570880999999999,33.429999999999964,1
0.6717296850371138,-0.1518949046116373,-0.6658217738573357,-0.001505651424712253,-0.0024462504653288784,4.140591596783823,34.468876,0.30153619474131876,39.011105624937784,-17.698231396637997,-46.466273838212125,29.381883056608306,0.5708809999999992,33.40999999999999,1
0.6726969325619891,-0.15188768659184151,-0.6655649494310313,-0.029978253580215528,-0.0025557432311506543,4.139131737575822,34.46832,0.20657648856850624,38.69026360481665,-18.002025050998686,-46.173681805263655,2.2991322712422004,0.5670439999999998,33.40999999999999,1
0.6748359307229282,-0.151791544363397,-0.6634267768130722,0.007311940294728229,-0.0028097580377686696,4.136366560946352,34.472847,0.026652874354421627,38.897639516702526,-17.930288041891888,-46.415309541711956,-27.960613167510132,0.5696019999999994,33.40999999999993,1
0.6745613751287723,-0.15249494136101058,-0.6624816718987243,0.03540704341077091,-0.002628423595159503,4.138563121736115,34.47082,-0.13680304298664403,39.04224867288553,-17.96904072085973,-45.876091989555825,25.773690409165006,0.5683229999999997,33.409999999999975,1
0.6744373368388357,-0.15109730895481044,-0.6628935260372933,-0.02136232109052263,-0.002666031763232706,4.138180494765092,34.46754,-0.2668928458644135,38.99308531668378,-17.86939874938904,-46.26643321373613,31.71210209232633,0.5696019999999993,33.429999999999986,1
0.673596379100413,-0.1514580297099948,-0.6646350282729075,-0.006949239056369326,-0.0022394161930319708,4.137792110519198,34.46686,-0.2672783890071018,38.87329086881889,-18.006230967759457,-46.27911611968792,-34.46104044020726,0.5670439999999992,33.43000000000001,1
0.6770320246273632,-0.1534766816212423,-0.6603818910121769,-0.01937931989427732,-0.002991739760854998,4.1377704029705,34.46706,-0.18382921384321618,38.8247796835514,-17.74397507919019,-46.42514159276553,-14.47989665900018,0.5632060000000001,33.429999999999986,1
0.6782956834585709,-0.15494843706808895,-0.6595186229410871,0.03158144893922278,-0.002511696465191082,4.139021911993961,34.462273,-0.03118571583979629,39.01234021275416,-17.604416974300058,-46.42943865043003,50.482073423289314,0.5683229999999995,33.429999999999986,1
0.6765757211849192,-0.15829382148992482,-0.658271839392997,-0.03281203447350573,-0.0024805156433857457,4.139271302118401,34.45677,0.13568153660813773,38.85183498464859,-17.22369166010448,-46.46841730911927,13.23433670444606,0.5657639999999993,33.41,1
0.6743885839765947,-0.15724653331715663,-0.6583594130861734,-0.020380736752378503,-0.002356519598138351,4.139767953142865,34.45049,0.01987716859893746,38.89406836484963,-17.292424364085523,-46.28999881840549,-44.18455698133642,0.5657640000000002,33.41000000000001,1
0.6784547465678842,-0.15694039994687153,-0.6559336543422448,0.0321854499918842,-0.0025217650622477994,4.137225859906731,34.447323,-0.12554510208429678,38.85160980534714,-17.107337557507027,-46.537529035936096,-23.11863413985328,0.5632059999999998,33.40999999999999,1
0.6813033186367259,-0.1569281019453398,-0.655593448613481,0.021160152703385324,-0.002407137208236403,4.1367109644680395,34.447277,-0.13480855627212704,39.119371613304715,-17.352781099733747,-46.21633525167565,36.128767562500116,0.5657639999999992,33.409999999999954,1
0.6805634297213902,-0.15287138061231884,-0.6558097197909516,-0.002702039847921489,-0.002594262644856549,4.1365830485315,34.443504,-0.022162969438471385,38.80753981110629,-17.531297354397733,-46.52302837049211,-7.6114204391002955,0.564485,33.41000000000002,1
0.6759124139589429,-0.15366531863656713,-0.6607264764272353,-0.015311390999886904,-0.0024948492345255226,4.1360031831832655,34.44502,0.22140015577219824,38.92857429004679,-17.83093556418007,-46.2897689464488,-38.87136693395994,0.5657639999999997,33.409999999999975,1
0.6759718479158777,-0.15337033500961528,-0.6605876693894386,0.03771422509782958,-0.0020455990227867538,4.135330707255776,34.445564,0.3467338177124052,38.91424334949027,-17.860431002438844,-46.10202394515585,-12.559165712762335,0.5632059999999997,33.40999999999997,1
0.6746054948079648,-0.15298039424331383,-0.6622903767033937,-0.011749949990309797,-0.0024054165954206274,4.134596439449615,34.443104,0.2631231644312382,39.080573537443264,-18.001838910186656,-46.02708234436777,63.06923681088877,0.5619269999999998,33.40999999999999,1
0.6752616786589155,-0.15142752271361926,-0.661997504374285,-0.005681199681509473,-0.0023130874068522864,4.134691084933737,34.438366,0.1969990345901811,38.7873573865132,-17.614043482922703,-46.27436211766073,-2.1731311583316932,0.5632059999999993,33.409999999999926,1
0.675369098046143,-0.15279623137387002,-0.6609623828191277,-0.019980235599008783,-0.0025280000430114857,4.133581842869316,34.434746,0.17652627958805694,38.88175698500607,-18.066199127537715,-45.88260795877923,-40.86882266539343,0.5619269999999994,33.40999999999995,1
0.6764081394045925,-0.1521522650258023,-0.6598852745477108,0.04758965728018908,-0.0026895488935841185,4.132383658288883,34.42926,0.18525350414237274,38.59215142161487,-17.936432056689622,-46.20223162162884,21.61805884069057,0.5644850000000003,33.41000000000001,1
0.6749667182268684,-0.15304505256036705,-0.6619697353209014,-0.0068151647619078505,-0.002221390157055042,4.132254434905215,34.424694,0.11287503277441477,39.142330822226484,-18.060638193428478,-45.95964633010045,44.91075178476959,0.5619269999999997,33.410000000000025,1
0.6753755041492707,-0.15141281873877435,-0.6623143868272992,-0.015225777966314115,-0.002612746836485787,4.131396176556251,34.424866,0.0754084534088258,38.75016292053513,-17.942067211769913,-46.441774539058585,-29.428900286117926,0.5619269999999996,33.40999999999999,1
0.6764229926632455,-0.15456691044416027,-0.6620646744244865,-0.02076940512255783,-0.0025906107606910836,4.129083484283718,34.418533,0.16281142771741716,38.723521630826,-18.055131929410987,-46.24845987759173,-35.23419882915333,0.5529719999999999,33.41000000000001,1
0.6785542080745417,-0.1536596037997549,-0.6575724986751187,0.017845085826904646,-0.0020633364694485064,4.1290822080595095,34.41559,0.13642561896908512,38.911606598424136,-17.945628387086373,-46.47130045157804,25.44064279823295,0.5606469999999997,33.40999999999999,1
0.6756551294162972,-0.15613070542034901,-0.6621807730001362,0.014657492726507947,-0.0026008013398173026,4.130294049043409,34.40978,0.21635811545715586,39.10031524273309,-17.88178448546897,-45.93657578003019,31.588107368501426,0.5593679999999996,33.40999999999999,1
0.6738764544936993,-0.15553496041002393,-0.6615375656312488,-0.04672118355383381,-0.0026842181155427866,4.13017552232081,34.405373,0.2774575684087482,38.81289311999187,-17.738737019330536,-46.48919023162692,-21.24083034491422,0.5593679999999993,33.43,1
0.6707921708480221,-0.15830369816283163,-0.661176604953983,0.028137645668363177,-0.0018313634010736217,4.130577832532393,34.403915,0.21243928178390867,38.95460525802879,-17.387741174569385,-45.98225906241297,-36.76897482529463,0.5619269999999997,33.429999999999986,1
0.68351431292999,-0.156618889715962,-0.654295537145281,0.03668907129500577,-0.0024500726394549133,4.1298758724136055,34.406334,0.18201525389022824,38.064110596673665,-16.877932838236973,-46.91402296692905,25.612218603743184,0.5606469999999988,33.429999999999964,1
0.6807256594875756,-0.1575597671260455,-0.6538013682820316,0.015108966465090662,-0.0025549710669969692,4.129222578716476,34.409096,0.11757813027466736,38.02867280654732,-16.47245048644156,-47.633376655908386,20.508323155269967,0.5606469999999989,33.42999999999994,1
0.6830097068243657,-0.15880582923681746,-0.6530100023180107,-0.02098815646869377,-0.002692766877557666,4.127818934432793,34.410538,0.1324200943490271,38.065922400970976,-15.861582919253536,-47.538294483768276,-21.882739766729397,0.5555299999999996,33.43,1
0.686415598962513,-0.1560182423348935,-0.6504956174185101,0.04402550578983711,-0.002209315595644693,4.1280616843941695,34.410835,-0.029329302733197966,37.993438844073054,-16.06743492088645,-47.9328987390564,-45.486113771552944,0.5593679999999992,33.42999999999999,1
0.6820509687343885,-0.15770416680147412,-0.652481402592311,-0.027606674502803616,-0.0018498782957769046,4.12913137761935,34.414783,-0.23613550822771082,38.051718660869724,-15.759693606120814,-47.73146661713113,24.411283209451216,0.5580889999999995,33.429999999999964,1
0.6826500688875822,-0.15384607629809677,-0.6535427256006292,-0.014664482929058028,-0.002817800848127115,4.129200360818966,34.41127,-0.31725839979178905,38.15162454452287,-16.034398228075013,-47.833916212818735,26.159107262202994,0.5568099999999992,33.42999999999996,1
0.6834564765072053,-0.15549925535029047,-0.6523652499107655,-0.0171127253395501,-0.002116752432169376,4.126924991582898,34.411312,-0.3345750424909705,38.06277702974846,-15.503421343332178,-47.862264064438286,-36.648525812770856,0.5568099999999995,33.42999999999994,1
0.6844044446904609,-0.15500002243808517,-0.6517241765128925,0.04122377805578731,-0.0023342590922662606,4.127105621154417,34.405506,-0.2154471053615461,38.40689627127286,-15.870132962391368,-47.57717441480426,-3.044330164470957,0.5568099999999999,33.429999999999986,1
0.6824523235741253,-0.1549737249806,-0.6547059462644291,-0.039158572735764445,-0.0022022528251404105,4.126899787474575,34.404266,-0.1931407928621306,38.3008885813393,-15.881522802612015,-47.35333342825643,37.97201229540236,0.5542509999999986,33.42999999999996,1
0.6817168864918867,-0.15449236166225797,-0.6548277260544396,-0.01956243240193422,-0.0020346062071542395,4.1276191406842635,34.397785,-0.03659066564266541,38.22657711031571,-16.023545086660675,-47.45332730101184,-16.50932092449647,0.5542509999999998,33.43000000000003,1
0.6820060751436193,-0.1560726775495726,-0.6526733638822733,-0.015197452414415061,-0.0021087654106497064,4.1267335602712185,34.40065,0.2502513575269834,38.54274984807374,-15.340674670555446,-47.37517300800063,-56.221914056713025,0.5555300000000001,33.43000000000002,1
0.6824735839742903,-0.15803844033489836,-0.6522893187747535,0.0417767822352536,-0.0030818274049291762,4.128170678536511,34.398083,0.6402923578175507,38.11114762841325,-15.06721390433341,-47.50574649431834,45.8267224440938,0.5555299999999992,33.42999999999998,1
0.6844951184483475,-0.1581656034350005,-0.6468885761937592,-0.03038409202731695,-0.002683227679959304,4.129524135271405,34.39818,0.6459327554721359,37.63367302154669,-14.4996904220797,-48.49821352271894,35.359122470314325,0.5542509999999997,33.42999999999996,1
0.6860197298802135,-0.1590994383439365,-0.6459995930328614,0.008289873354384874,-0.0021995964106304097,4.12690538642317,34.400772,0.30155334933739836,37.590802417869135,-14.038696200775883,-49.028300566175076,-38.03703195346735,0.5542509999999998,33.43000000000001,1
0.6901034230878346,-0.15947853134199433,-0.6457650015352714,0.03626175408353222,-0.002497216850949225,4.12561191880127,34.403576,0.056204011653906726,37.36277624342377,-13.872108127466053,-48.57388054507803,-43.8527041442451,0.5529719999999991,33.409999999999954,1
0.686987956428801,-0.15461726308457846,-0.6474597711212929,0.0214601031999422,-0.002098120905077621,4.125135758435006,34.408028,0.13081506073058974,37.96514467463551,-13.981290595759075,-48.86107105620049,51.20433097274199,0.5542509999999995,33.409999999999975,1
0.6789015467654532,-0.15600997778852338,-0.6564787552542661,-0.02158925150690165,-0.002601389583811657,4.126648476412202,34.411457,0.39753030731293426,37.52696324423364,-13.976575880980556,-48.21799844957321,1.7977710694753968,0.5516930000000004,33.410000000000025,1
0.6836490955743479,-0.15460642911953756,-0.6526002111621376,0.017070663155795973,-0.002344500114187967,4.122848591757855,34.41558,0.2848127896323196,38.00446124625633,-14.035787910174202,-48.27436918692043,-45.99818952907723,0.5504129999999998,33.409999999999975,1
0.6830737597809007,-0.15531813899510902,-0.6520551201411233,0.024647279402172557,-0.0025724539421590983,4.119668925773679,34.418327,-0.30061398369569364,37.791262109717884,-13.957865014686325,-48.43322267002264,-12.099148478240487,0.5504129999999995,33.429999999999964,1
0.6823107671003011,-0.15462614710661235,-0.6526740786056281,-0.016262532711895716,-0.002488735925950181,4.120967089730513,34.416748,-0.3123232756375996,38.023898908820165,-14.046005632881947,-48.28233905846395,75.46177369629109,0.5529719999999998,33.429999999999936,1
0.6834061363700997,-0.15416822456409998,-0.6531536701408299,-0.009564747114276954,-0.0022923005826929158,4.120927079444151,34.414104,-0.07992019350336095,37.91723236551251,-13.951468270068776,-48.155749130360526,7.019249781407293,0.5504129999999997,33.43000000000001,1
0.6843072969879772,-0.1548200383256229,-0.651579936920546,0.005735319845488729,-0.0023756090419723296,4.120349840993274,34.413803,-0.030273661143106107,38.085032249112714,-14.05019485013913,-48.26909606699249,-17.90804733257936,0.547854999999999,33.42999999999994,1
0.6836896443816926,-0.15573663843241506,-0.6516988039078655,0.02572869549967901,-0.0023255373861568005,4.120313048385935,34.412563,-0.06228347666305302,37.91932362831543,-13.948778263556253,-48.5106547220339,47.89023148417999,0.5504129999999998,33.430000000000014,1
0.6825423358695509,-0.15586306665713617,-0.6523889785458918,-0.04910634690831772,-0.002485202148179499,4.123241021232776,34.408207,0.06915107311876457,38.06780443119926,-14.05170543651932,-48.40095787337548,23.6103604842692,0.5491339999999993,33.429999999999964,1
0.6815864510220321,-0.15641700302920913,-0.6543008284607128,-0.023280107932256097,-0.0021991937505208637,4.121731258756191,34.409145,0.4045095745458538,37.67488681412785,-13.948362523930486,-48.49168848967366,-49.065576977039136,0.5504129999999992,33.42999999999994,1
0.680054896488913,-0.15857173561495488,-0.6540779470437224,0.004595330937379629,-0.0019905261957604173,4.122477286401422,34.411453,0.5104882805477419,38.06928685479034,-14.050883688711114,-48.05684109108831,2.630249995715052,0.551693,33.43,1
0.680047130881199,-0.1576075475107013,-0.6529341041365567,0.02629543958861469,-0.0019401636629011738,4.121347253503252,34.416477,0.2385692212564798,37.788253579579354,-13.95093596871272,-48.09393331817166,48.66351686177266,0.5491339999999993,33.429999999999964,1
0.6848320448224838,-0.15803306883042914,-0.652014844778759,-0.012963608291634995,-0.0023131501731199176,4.119711642252958,34.42006,0.09958054901981003,38.11782020845215,-14.045107478886692,-48.27738954475802,10.602069535633424,0.5491340000000002,33.429999999999986,1
0.6908689306946266,-0.1578916364812124,-0.6435484840595471,0.021004086507071498,-0.002327837262740231,4.116110977349068,34.4202,0.16441944615688278,37.896372322288485,-13.965005025254582,-48.32555946528687,-62.90204112680254,0.5478549999999992,33.429999999999986,1
0.6891714299920593,-0.15669056007294382,-0.6450624227007643,0.02338703867574869,-0.0025054779792238794,4.115154087291608,34.427456,0.2463724305624631,38.08619458803605,-13.982365463775155,-48.55420735207898,-8.383613657444918,0.5465759999999993,33.42999999999996,1
0.6852024660588945,-0.15644480339468,-0.6488377489382418,-0.0050463512434045215,-0.002225109659641725,4.115360882539665,34.427467,0.2535252308832667,37.70042459003615,-13.858119998354129,-48.363355207237696,37.00884920985276,0.5427379999999998,33.47000000000001,1
0.6861977479944449,-0.1538995536791289,-0.6498631647009289,-0.027766530718219735,-0.0019070429401814182,4.115256528540796,34.433567,0.26441787485533697,38.031017297069354,-14.089135602557098,-47.98709292615419,6.530158845771391,0.5478549999999991,33.46999999999999,1
0.6851887597515843,-0.1544367359213939,-0.6497102484076391,0.023362514624210996,-0.002528390517322883,4.113865527511572,34.434406,0.22841899964885268,37.78745257494064,-13.921211815135846,-48.46041316607577,-22.31217927235013,0.5452960000000002,33.46999999999998,1
0.6860831728695265,-0.15463324081763322,-0.6491342141424934,0.007963988671120255,-0.0024240184780900498,4.1146643746348746,34.435547,0.07639643097847645,37.977947110626495,-14.074465832698372,-48.174817132684055,8.628533368949018,0.5465759999999995,33.46999999999999,1
0.6830647181599285,-0.15322885473717196,-0.6515914260397615,-0.020750227502427658,-0.002744071139830955,4.113873732141253,34.436012,-0.11766942450511186,37.78337883111175,-13.92786840035483,-48.394480828585955,7.14954809657572,0.5465759999999996,33.40999999999999,1
0.6844224262335513,-0.15417313393882384,-0.6528176804819561,-0.008686734048855015,-0.0021354025569247223,4.113885371216242,34.44057,-0.163337323531475,38.111279977475014,-14.070687198632003,-48.27239987170208,-39.96003254814936,0.5465759999999997,33.40999999999999,1
0.6843191646322917,-0.15422901859678687,-0.6515939617282126,0.0017974981608909358,-0.001612197083494972,4.112407119467639,34.439476,-0.13464028068096107,37.8947441423564,-13.930288074210573,-48.143830611817506,-1.7839470788701064,0.5478549999999993,33.409999999999954,1
0.6814610780328496,-0.15515412169989623,-0.6532453251441744,0.012689418678687813,-0.0025455657197852905,4.11463402350241,34.437702,-0.03732092755381916,38.10275011806875,-14.069010551221297,-48.05966688244273,40.70362252818372,0.5465760000000004,33.410000000000025,1
0.6773879342471845,-0.1564238795026382,-0.6591744623401274,-0.053848685646161375,-0.002244948872657464,4.11563834719793,34.44122,0.10290142312752898,37.898975177246285,-13.931519591164196,-48.32683578854195,-2.882261380759278,0.5478549999999995,33.47000000000001,1
0.6738350317772313,-0.1565717064630662,-0.660283626071478,0.010353527886738736,-0.0024686290279233897,4.114292922731529,34.442772,0.049734863294270154,38.09923797697511,-14.068062465715487,-48.13428478384249,-52.97673183063157,0.5440169999999998,33.47000000000002,1
0.6719406249372079,-0.1562373656547895,-0.6600870623770984,0.022294286826900604,-0.0017842573738640663,4.114810897867589,34.44402,0.09204186783365184,37.903692653471914,-13.932279629886851,-48.005753978376994,-3.2657373732865,0.5452959999999999,33.47000000000001,1
0.6780475112865675,-0.15483703133308965,-0.6600613430506599,0.03204026769024273,-0.002118676322463034,4.115290788597987,34.44604,0.24128798927859355,38.087169596674734,-14.067430436005283,-48.244863217695205,28.695155785327856,0.5440170000000001,33.469999999999985,1
0.6803794302386156,-0.15318266513125667,-0.6565550913064997,-0.012297844314599588,-0.0024871969744301153,4.112407401091371,34.449265,0.25801731427653296,37.7732225347425,-13.93282357070411,-48.227514274114995,-20.679358909337168,0.5452959999999999,33.45,1
0.6764605686624275,-0.15313167718956103,-0.6603124567195662,0.04077124519293427,-0.0024955098061826882,4.112489519766937,34.44873,0.2417302388659544,38.11922448616873,-14.066946655272503,-48.20357879013164,-46.91824025285715,0.5452959999999993,33.449999999999974,1
0.675219121139404,-0.1525920899511644,-0.6617702533968541,-0.0026888668084622345,-0.00226063278245192,4.112229760532261,34.454582,0.10043243322767995,37.8858406771337,-13.933267775806083,-48.05283095778918,30.404183692007923,0.5414589999999997,33.449999999999946,1
0.6755890152846872,-0.15178893472559035,-0.6635482616617249,-0.01377797120949187,-0.002098601282478339,4.1113113687165175,34.4546,-0.07499377968954972,38.1146055650489,-14.066525947755302,-48.13596478789908,49.24097496267653,0.5414589999999998,33.45,1
0.6772003972612354,-0.15142234246789776,-0.6609667958484026,-0.014906371150718386,-0.0020776201890402354,4.109673814168883,34.454742,-0.19287499839975852,37.877463503228185,-13.933678421467425,-48.29511117159979,-31.952965170629565,0.5414589999999998,33.46999999999998,1
0.6784474262325506,-0.1522314815623265,-0.6588225227301817,0.03770682126843459,-0.002443553500461321,4.110737017903988,34.44945,-0.3322373079399575,37.98224307111418,-14.06611322685915,-47.898951197836006,-7.190119560016168,0.5440169999999995,33.47,1
0.6779920429682833,-0.15187007686319312,-0.6582303885219507,-0.005960057748739443,-0.0028556253597873584,4.110093630729203,34.451416,-0.3158203254066789,37.91074869807087,-13.934105153313919,-48.14158926187391,44.250752094315054,0.541458999999999,33.46999999999993,1
0.6773984643230186,-0.15175365096069646,-0.6594924729936018,-0.018269520581991792,-0.0023799058564903126,4.110120670877469,34.44432,-0.29410904167897606,38.093403964870014,-14.065659703270974,-48.008859302516285,-6.174735918717531,0.5401790000000001,33.469999999999985,1
0.6790177420069773,-0.15182123764715158,-0.658829028845479,-0.010878683315301289,-0.0023754539312969987,4.108651055143148,34.442764,-0.20196620217997233,37.91049312931691,-13.934600268710073,-48.12154284238747,-54.8510479266265,0.5376209999999993,33.44999999999996,1
0.6775268936911398,-0.1535070988578291,-0.6605366683516665,0.01598322621245817,-0.0024008194963626205,4.108617408808658,34.433884,-0.12089662894803774,37.982648159546144,-14.065104660537818,-48.23350903153573,27.125538576238277,0.5389,33.449999999999996,1
0.6756529027869944,-0.15473971318455954,-0.661453902772737,0.004768473974119106,-0.002272513010896464,4.10990197155396,34.4357,0.05235676867416905,37.87716761744625,-13.93523928664085,-48.07440201461416,40.63044650859485,0.5376210000000007,33.45000000000003,1
0.6723508319349735,-0.156352335433627,-0.6643094663763873,-0.05959060934090315,-0.0022417445922459454,4.110579658527942,34.432354,0.22948177188356594,38.1142363712841,-14.06434852615937,-48.10514733115505,-29.98727062112669,0.5388999999999993,33.44999999999996,1
0.6718803159282745,-0.15552311898386054,-0.6614266238297247,0.011828572507368778,-0.0025503062423970816,4.109568409522887,34.432995,0.24115561181355008,37.88820645856564,-13.93616037193977,-47.98531778142279,-50.66127940901464,0.5401789999999993,33.449999999999974,1
0.6758958993747226,-0.15675663821071265,-0.6596848722540031,0.03767858592694162,-0.0019732804093466677,4.109097225989117,34.4313,0.2849855755910863,38.11029481469439,-14.06319010208533,-47.9988513969929,35.9202253827661,0.5401789999999999,33.44999999999999,1
0.6799751402029891,-0.15431774750135555,-0.6565674326905978,0.019779553299495184,-0.002803966792424908,4.106998037306413,34.4357,0.29834058305567646,37.8918492137872,-13.937671636951642,-48.0606573272208,31.50629779949637,0.5401789999999989,33.44999999999997,1
0.6844311083153718,-0.15402277213805948,-0.6520654755439602,-0.02758809648332348,-0.0029589158204222513,4.105718509786114,34.435448,0.3081812937178182,38.10235853212372,-14.061129530678596,-48.291831462440385,-28.572006182781777,0.5389000000000002,33.44999999999999,1
0.6834584300833543,-0.153538076224447,-0.6527192518205522,0.031113540282568526,-0.002663944018130657,4.102536336903688,34.43706,0.38094186179008416,37.929130633898964,-13.940644444956014,-48.03546813962338,-40.31707707575348,0.5401789999999986,33.449999999999925,1
0.6787106889593328,-0.1520606769375538,-0.6580967888597968,0.006551750972983558,-0.0024004072792693887,4.103276046757777,34.443695,0.4500085035024427,38.237686695500955,-14.056493013202738,-47.98507174822516,54.42381070355676,0.5388999999999999,33.45,1
0.6749214602930818,-0.1513048758540015,-0.6621352791429025,-0.010965398628235697,-0.002565159956545022,4.1025386764812035,34.442192,0.4419259103588887,37.71940684424102,-13.948793946834842,-48.01199797182486,42.003076446249516,0.5325039999999996,33.450000000000024,1
0.6763941633094247,-0.15100800618844848,-0.6616814289408797,-0.018036813025639233,-0.0025926126652961977,4.101051642754503,34.439056,0.18419784827966088,38.1419590079767,-14.038657711231146,-47.98605530109479,-35.760957165745225,0.5376209999999992,33.44999999999998,1
0.6763331469387598,-0.15094919731724235,-0.6618193537341115,0.02198041235184037,-0.0025228151134245656,4.100168731444705,34.455837,-0.07787799694644484,37.8156474614612,-14.022298948765071,-48.030228187578686,-10.221999786706332,0.5363420000000001,33.429999999999986,1
0.6765678439771993,-0.15146018267839526,-0.6607538300185194,0.03200792747079676,-0.0020294680302602925,4.101358026033071,34.451077,-0.1661032973451157,38.18406271627788,-14.278590530374263,-48.130762413874045,41.03452989626493,0.5363419999999994,33.42999999999998,1
0.6759555591430803,-0.15157092170042974,-0.6613010541556232,-0.03143281858455078,-0.002671969980709354,4.101274733425368,34.45187,-0.14897868682021223,38.325806724347224,-13.876101601972808,-47.90600079203873,-9.613500226511803,0.5350620000000005,33.43000000000001,1
0.677597376013233,-0.15232340006464296,-0.6618640370997984,-0.014144938352867502,-0.002679683956805306,4.101596659534908,34.46149,-0.25335444151126485,38.359537470742545,-14.215511068705071,-47.92501299495468,-44.682202466559986,0.5350619999999994,33.42999999999997,1
0.6749141930698765,-0.15295722856004065,-0.6622042638826751,-0.006657607592388384,-0.002271764453535031,4.099456571933247,34.4631,-0.25758536186361514,38.136260763949075,-13.930170208591749,-48.0256268464043,21.58412777314726,0.5350620000000005,33.45,1
0.6742670092747016,-0.15762198175980968,-0.6633514346481862,0.030844917299095147,-0.0026556080009412625,4.1013952085062,34.465836,-0.04650081825567158,38.362059450027495,-14.075846342714684,-47.983098398292086,39.63971263980593,0.5350620000000004,33.45,1
0.671065859560516,-0.15456558200734294,-0.6638701420091208,-0.054328123762244385,-0.0026956955447766263,4.102344391532017,34.46522,0.02534169062759542,38.42169406058613,-13.923126489710521,-48.013463337714114,-9.818621193659594,0.536341999999999,33.44999999999997,1
0.6702105299110617,-0.15523329752570406,-0.6638527587889607,0.031651167157910956,-0.002958812810175167,4.102770273054479,34.466885,-0.012497608674621907,38.12609735134758,-14.07728139449001,-47.98835763697724,-60.06041157340274,0.5376209999999997,33.44999999999998,1
0.677414596519075,-0.15659841723791545,-0.6597714825497915,0.037756232728455914,-0.0028031904160772847,4.101010433415618,34.46441,0.048851211181556185,38.01421173141067,-13.922303025870916,-48.01050578228559,3.093613181096645,0.5363419999999998,33.47,1
0.680317974258685,-0.15323668887138955,-0.6581284325589862,0.026688193112790363,-0.002408076703656472,4.1017151552768025,34.473263,0.11785088041871285,38.66397951734063,-14.078281655396468,-47.990279745726355,34.375982554857785,0.5363419999999994,33.46999999999999,1
0.677109730731724,-0.1526804008393546,-0.6587931184839021,-0.026860573825508542,-0.0024792068058939786,4.100422550243702,34.47092,0.26634030143085324,38.145642969340145,-13.920912436101858,-48.00914360387062,-12.335028839711741,0.5325039999999998,33.47,1
0.6752740363448209,-0.15285865325912887,-0.6621549601846297,0.04378335886704908,-0.0023171519265248143,4.099216388441688,34.473877,0.2588947575994468,38.253252149508214,-14.080074203217329,-47.9912894044891,-30.782529596363645,0.5350619999999996,33.47,1
0.6748558608805464,-0.15182758005727715,-0.6631384329299015,0.0004429511503210722,-0.002439349982318966,4.099276118331625,34.47696,0.08594853264983894,38.29663011142538,-13.919161190347559,-48.00839371879441,35.200807852779974,0.5312249999999996,33.429999999999964,1
0.6741635921228176,-0.15079013958632503,-0.66433762186184,-0.00862262398969431,-0.0026233806055991757,4.10169732817859,34.48051,0.03586280133106122,38.60762278175057,-14.078588586841846,-47.991811066010875,35.211784069093866,0.533783,33.43000000000003,1
0.6758280027145958,-0.15073511785155838,-0.661763189587398,-0.01993844443254353,-0.002813483116620222,4.100501712726845,34.47446,0.007575793721065797,38.193127989174826,-13.974508749100439,-48.00811249115403,-45.74356129764334,0.5337829999999992,33.43,1
0.6761045204981421,-0.15115397918626974,-0.6613187452948638,0.0376421413445637,-0.0023102887479179383,4.10139425460127,34.471874,-0.18099842895771437,38.37725624009942,-14.245050166702855,-47.9917941138514,-7.807330882145206,0.5325040000000003,33.43000000000003,1
0.6755700194244532,-0.1511977271431195,-0.6632702681656685,-0.022783730001763373,-0.002329797654634606,4.1019439344535416,34.46412,-0.165828694422779,38.23766057300216,-14.177991064660516,-48.00855254975693,31.897675640701017,0.532504,33.449999999999974,1
0.6733270658473768,-0.15127901766432433,-0.6648985030892404,-0.02778450112698162,-0.002757589004089227,4.1028301781539875,34.463844,-0.03873751834368616,38.3836083438046,-14.29215394420063,-47.99067845105516,-25.425657307322457,0.5312249999999996,33.45000000000002,1
0.6745319615362753,-0.15396605206867206,-0.6636141801600061,-0.027294415322667888,-0.0026483903779255464,4.101786304057752,34.463142,0.055291279246959,37.94922396213164,-14.167043778875243,-48.010893542990424,-58.894455920354446,0.5325039999999996,33.45000000000001,1
0.6730414888380924,-0.1556221873099333,-0.6642990418591359,0.026455428641941333,-0.002264903702156667,4.101597691763545,34.465584,0.13584875781346983,38.59349190842371,-13.980576699118183,-47.985678771959286,37.57500691426617,0.5325039999999995,33.44999999999998,1
0.6663692475535432,-0.15608848924661275,-0.666876639027154,-0.02371250901055073,-0.0023355421408051305,4.103312309004521,34.459423,0.18055635720173485,38.089897244362,-13.992022500524838,-48.02398675813663,34.827177655062286,0.532504,33.429999999999986,1
0.6680052642531797,-0.1542532938564057,-0.6678495386180958,-0.005072715006435836,-0.00292757305579273,4.102037612998944,34.457096,0.2307236925459771,38.284894746774775,-14.018006393926711,-47.886161057261475,-38.97616587481806,0.5312249999999997,33.42999999999999,1
0.6751231592635311,-0.1545633924714568,-0.6632346482133404,0.04918968889786326,-0.0020141964082235494,4.099660396978879,34.45482,0.3853696594364581,38.11165473652405,-13.979103674776715,-47.9639401858308,-41.87942013003781,0.5312249999999994,33.429999999999986,1
0.6762004714288778,-0.15299249626625255,-0.6617992226834586,0.02019420666828755,-0.0019261432730422194,4.100418281069155,34.455086,0.4634882009465366,38.392466478266165,-14.017637000207218,-48.01366987225165,54.65377960750199,0.5299450000000006,33.43000000000002,1
0.6723536705057706,-0.15048786006333298,-0.6652354746530778,-0.02039053031643374,-0.0022751529159402714,4.098534575480386,34.45148,0.43478980507340453,38.07176350009097,-14.002027528199616,-47.99558418777755,20.991360433949286,0.5312249999999993,33.449999999999974,1
0.6723640350991217,-0.15136738503253258,-0.6668052438278337,-0.008423184002822761,-0.0022112164505983215,4.098579315048785,34.45663,0.3085573409415314,38.61459314753827,-14.364591203612896,-47.98443823821917,-26.461769785627457,0.5299450000000001,33.45,1
0.6718701646428764,-0.1495806936347777,-0.6667560314945409,0.027084084794888125,-0.0026701270010813507,4.097336357971152,34.458267,0.15900172961900774,38.34282880720377,-14.170050944717651,-47.85274913213462,9.501762509796858,0.5299449999999988,33.44999999999994,1
0.6709843963022262,-0.14959636412337948,-0.6661905445706773,-0.019663063679496766,-0.0022302090124749242,4.098000225457267,34.452557,-0.12356644814572898,38.43198582272893,-14.119890016118877,-47.820311717007996,58.01131912055759,0.5286659999999996,33.450000000000045,1
0.6709545414505463,-0.14887058939836062,-0.6680992583661369,-0.016214208256169226,-0.0022638972078440848,4.096861576136634,34.4468,-0.3020619470556838,38.211510942054915,-14.034323205350413,-47.9433670501678,-33.177156762347494,0.5286659999999993,33.44999999999998,1
0.6730116686393836,-0.14948471009189232,-0.6676972825016962,0.010999155792356394,-0.002266763289330729,4.094956029060525,34.44437,-0.3099968152889128,38.159895864529,-14.093058513128994,-48.05552167829957,-26.777648419242688,0.5312249999999997,33.45000000000002,1
0.6691259277634759,-0.1514182655126866,-0.6689284677979339,0.032988697436396576,-0.002282152921750392,4.095536120516456,34.4396,-0.2602691120000805,38.0729908167009,-13.92056761506547,-47.891360896804926,33.034219877777986,0.5286659999999999,33.44999999999997,1
0.6662618178820251,-0.15179393234959132,-0.6721898259539305,-0.05331390145690877,-0.0023121402216027325,4.094238239346993,34.432816,-0.07115572016690842,38.410471978185775,-14.166257015930395,-47.798572964285384,23.13406134053244,0.5286659999999996,33.45,1
0.6619505706811966,-0.15258392577150118,-0.6755415175937912,-0.01933690018764721,-0.0017352110844353556,4.094438233498589,34.423134,0.1166399303300648,38.39757465215011,-14.173738480137064,-48.04542732570629,-45.91874729879997,0.5261079999999991,33.46999999999996,1
0.6602160205528395,-0.15287788442633538,-0.6734692124508007,0.027184264698101746,-0.0022399676431466274,4.094996565554932,34.419914,0.24018481577560852,38.65462290907018,-14.123613138379836,-47.94825824970691,-13.323998849542468,0.5286659999999999,33.46999999999997,1
0.66573659736917,-0.1533063330454167,-0.6732153513054229,0.03634419796403325,-0.002640223034397156,4.093111333095293,34.41695,0.3495171027582041,38.1606185420173,-13.904626792987274,-47.84977235217518,39.309765372141165,0.5248279999999996,33.46999999999998,1
0.6716131016683929,-0.1522663402950237,-0.66851461702041,-0.01458475673034212,-0.002117231546797526,4.090869152852727,34.413296,0.29789146208383316,38.65935840047208,-14.08849515820747,-47.92775175943422,1.2880156486771088,0.5299450000000001,33.46999999999997,1
0.6732044685418803,-0.1504072510074899,-0.6665123481070105,0.018966519697426482,-0.002212750418414352,4.0878021725056675,34.419163,0.09885084503589732,38.41400403826745,-13.913350625225787,-48.007022580154405,-49.55207906294315,0.5261079999999998,33.469999999999985,1
0.6733541025597125,-0.15154302051331936,-0.6647544109003523,0.018184475905767276,-0.002220326287047951,4.086160324738081,34.414165,0.09272315705000926,38.36845912749832,-14.088215446653567,-48.00811083919627,-2.7667922677280714,0.526108,33.469999999999985,1
0.6726661690765006,-0.15008723633022633,-0.6650371653167009,-0.015611928529314869,-0.002547298757582721,4.087825083567292,34.421486,0.08544608520536008,38.361880561337614,-13.903273425241775,-47.879880162449844,56.82961478906508,0.5261079999999996,33.47,1
0.6720932297253409,-0.14958560592974557,-0.6661524141583437,-0.0203845065270487,-0.002410175679990055,4.086827846290766,34.41591,0.0014987791046055165,38.46445558919255,-14.185720015759157,-47.98318494675684,1.716608559518689,0.5248279999999997,33.46999999999998,1
0.6721706184313267,-0.14970967293127127,-0.6660023016637502,0.020649545423571666,-0.0017982809467029005,4.084785481667855,34.418926,-0.06297602235276505,38.21299339273974,-13.965081262574703,-48.00587662255551,-34.28589659768939,0.5261079999999999,33.44999999999999,1
0.672730337271782,-0.14932597772071327,-0.6659322587527694,0.01990396302559515,-0.0019607763723401787,4.085746657579022,34.40847,-0.09284360210876798,38.58797793171318,-14.055805199179833,-47.998278631778994,19.380074465034525,0.5248280000000002,33.450000000000045,1
0.6706143466853769,-0.14949549073866844,-0.6679973237262656,-0.036457502811454455,-0.0027076706943718544,4.085715485674123,34.413887,-0.0910251023252112,38.39331895900061,-13.938753408831513,-47.999219808882806,9.743582133695012,0.5261079999999995,33.44999999999997,1
0.6709754439024032,-0.15086317727545956,-0.6688834542678103,-0.03062697187719205,-0.002578876060510545,4.0839884343877335,34.411373,-0.15317668450420216,38.737936086066966,-14.063680782962575,-48.00259218298191,-45.30422629538583,0.5184320000000002,33.449999999999996,1
0.668771062175485,-0.1515848956362213,-0.6696889958122716,-0.0014565703388332695,-0.0025289090353410415,4.08389674282585,34.403866,-0.06092863192231634,38.05254709156397,-13.934945144070703,-47.9959621782796,-5.848324103195011,0.5248279999999996,33.46999999999996,1
0.6651072104222002,-0.1529257098114818,-0.6745579657203884,0.023089619061044127,-0.002301686908893616,4.085783994835218,34.400055,0.13457186977145938,38.52250345992832,-14.06595350660408,-48.00525734350046,43.462612339399136,0.5158740000000006,33.47000000000002,1
0.6607413081958751,-0.1533832092058598,-0.6737995725491507,-0.04676072028400934,-0.002128653759553138,4.085196225997905,34.39723,0.09936688899550138,38.249062248249466,-13.933388640656391,-47.99368027152198,-5.099955586770347,0.5235490000000004,33.47000000000002,1
0.6644470747529106,-0.15335891908659033,-0.6724385193939504,0.028171698131532478,-0.002513578840908517,4.084595017454835,34.40227,0.08814896659327918,38.490305260476326,-14.067140701513782,-48.007259310247534,-56.79436480338465,0.5261079999999999,33.46999999999999,1
0.6723761434007139,-0.15406438968762182,-0.6657582259044447,0.03255629518164473,-0.0026526564601430346,4.080372155705216,34.403797,0.21286749130965352,38.34616954971768,-13.932397293913361,-47.991910675962565,1.2074548769948992,0.5248280000000001,33.44999999999997,1
0.6772436171987328,-0.151652819968604,-0.6612604258072649,0.01626079468605301,-0.0018969726741344878,4.081310757361791,34.401875,0.28899449525766024,38.456320684760435,-14.068034736162152,-48.00880586772644,37.88733169131085,0.5261080000000006,33.450000000000024,1
0.6732375822648081,-0.15032555112219578,-0.6646555995934608,-0.031273409224475635,-0.002746864124150074,4.080181151469249,34.406784,0.20141588033272254,38.09061740824805,-13.931537508668768,-47.99061445119037,-14.112725023546322,0.5171530000000003,33.45000000000002,1
0.6708033291785748,-0.15053747091316397,-0.667481567509619,0.0382066507466603,-0.002642202338944406,4.077798165650327,34.40826,0.1359043362440179,38.3052756279656,-14.068906180739928,-48.009775187099166,-29.89765954532171,0.5248279999999992,33.44999999999995,1
0.6712615534558202,-0.1503048074007248,-0.6685791742672167,0.0007885404526684355,-0.0025148160957276624,4.078591183814206,34.419464,0.14116443173128548,38.16749605099807,-13.930615809484884,-47.99013491276682,50.74893174073601,0.523549,33.44999999999998,1
0.6705988006263551,-0.14856209990379882,-0.6686570768133928,-0.010226882504279639,-0.0023213046203135377,4.078532429145414,34.414337,-0.01311847155893017,38.35993974695695,-14.069915790599707,-48.009417235510476,42.49544850102885,0.5235490000000007,33.44999999999998,1
0.672738264147872,-0.14940587635171415,-0.667130781764348,-0.01633974994539116,-0.002181513444075223,4.077930696351248,34.41728,-0.18802697401595111,38.13557575786815,-13.929476236894999,-47.99216458795949,-52.1091775969749,0.5209909999999993,33.45,1
0.672707472990864,-0.14866254087439257,-0.6653860571599572,0.04032912282811696,-0.0024728331093988496,4.076051750472725,34.417053,-0.2883041203253697,38.447875206472524,-14.071237711663098,-48.00314782705236,-13.238829259971977,0.5209909999999999,33.450000000000024,1
0.6725646686780351,-0.14993987320237254,-0.6672406878194427,-0.006865295373078705,-0.0025180037544723943,4.076328082845023,34.41295,-0.21654909813365814,38.06963379680813,-13.927900917900176,-48.01713283922508,43.900528558714605,0.5209909999999996,33.469999999999985,1
0.6724866878179553,-0.15010451123320762,-0.6661903714798513,-0.03457888502600121,-0.0023051992924066696,4.076716841622092,34.41198,-0.1918784249653945,38.12525048679842,-14.073169777481336,-48.134023315304624,-13.071019685539628,0.520990999999999,33.46999999999992,1
0.6700841356429771,-0.15076594431919094,-0.667839649463438,-0.017479259476246508,-0.0024993865177563484,4.075587725174546,34.411037,-0.09823138754431068,38.09175835702987,-13.925451579343031,-47.95510590059807,-55.86253694509759,0.5209909999999994,33.46999999999998,1
0.6671052382430414,-0.1531480845319081,-0.6715195030975942,0.032896595405684334,-0.002383767545378034,4.078402711336027,34.407497,0.14887546738516844,38.47062242751708,-14.07640411724393,-48.03506654982615,31.629868357346645,0.52227,33.47000000000002,1
0.6631627581203735,-0.15334160871574556,-0.6716638895823798,0.0005164441776935393,-0.002207698727065805,4.080284635165119,34.406544,0.196989881444003,38.1300359805741,-13.920944969962258,-47.97207460643674,37.59134423650687,0.5197109999999996,33.44999999999998,1
0.6654183244044409,-0.15220334384380935,-0.6718291443900338,-0.01893877702686536,-0.002254302247887556,4.0797679936885896,34.4058,0.23027188398778806,38.41714856759353,-14.083181583683588,-47.92172593302206,-28.64394368787699,0.5197109999999994,33.44999999999996,1
0.6719516718000199,-0.154648967112539,-0.6668388665166779,0.05402120033524841,-0.002380958547712228,4.078622118661425,34.40665,0.3476326839393697,38.07618713261378,-13.909446625121955,-47.93420619926434,-42.511805820829416,0.520990999999999,33.449999999999996,1
0.6735023487635293,-0.14750894506906814,-0.6653984071137943,0.026371006764260647,-0.0025713764445936143,4.077875364125416,34.39949,0.3863787266195623,38.56043770696956,-14.107713721113956,-48.06614835021295,43.191785868264596,0.5209909999999996,33.44999999999997,1
0.6699316984708933,-0.15405723094787188,-0.6675946397570511,-0.013679178200964755,-0.00305889346423488,4.076811984778944,34.40955,0.47239974380040717,37.97455932357641,-13.79950089560219,-48.10906473137008,25.84017475443473,0.5197109999999994,33.44999999999994,1
0.6695801113699777,-0.15242036372499862,-0.669371658341154,-0.012855208219053867,-0.0024838574563933774,4.0753746053576725,34.406776,0.32852060061780064,38.41862851611267,-13.893659972240277,-47.85677745485251,-22.91044334503539,0.5222699999999998,33.44999999999997,1
0.6714054598711328,-0.1476497451590275,-0.6676851193598666,0.02819950512101444,-0.001978373405799995,4.074975851664363,34.404266,-0.017682858385958896,38.11598578747871,-13.98005960757896,-48.13045928424159,-9.443603728720243,0.5209909999999996,33.45,1
0.6690322889725232,-0.15309875751253854,-0.6692234405926395,-0.019693119415345146,-0.002540200275426939,4.074416092459217,34.4069,-0.23752573100545346,38.45793611626994,-14.038612420620495,-47.996565903739146,47.44815634031511,0.5171529999999992,33.44999999999997,1
0.6697419744686735,-0.14880698043732,-0.6695683165074336,-0.03111078459112997,-0.0026392706497175124,4.074454001969176,34.40291,-0.33245042688731,37.96557032248127,-13.953632306765723,-47.98944210690892,-22.56121237729267,0.5197110000000001,33.470000000000006,1
0.6711423763968006,-0.15030697595340747,-0.6695647421490026,-0.020072887641841935,-0.0018532957508902302,4.072208784321603,34.39599,-0.3676036467880592,38.53581815421824,-14.050631506370651,-48.017304084027735,-40.66228986830148,0.5184319999999993,33.469999999999985,1
0.6744357866073513,-0.15287049638879152,-0.6636091335797621,0.02070634469054758,-0.002386838375781938,4.071153141491457,34.39319,-0.2265632625707806,38.10920396134522,-13.946677524966045,-47.97834724008639,34.31227310414972,0.518432,33.470000000000006,1
0.6716219000863282,-0.15338450410355725,-0.6672021879231764,-0.021193485621499832,-0.0023080960270646204,4.072119244817915,34.395397,0.10049902292581003,38.33144549740422,-14.055154040430933,-48.02492652682936,39.23857679965835,0.5184319999999998,33.46999999999998,1
0.6645458095619089,-0.153453813234553,-0.66978006487039,-0.03837616053890136,-0.0025676701918896172,4.072324462030491,34.388493,0.27649633541800533,38.30675189325337,-13.943561024391105,-47.97234570043677,-34.739642436096524,0.5184320000000001,33.47,1
0.6679388068192899,-0.15302445705360151,-0.6690006495484606,0.05227894165047043,-0.0023404144684138635,4.070608960110599,34.386166,0.34118089755440173,38.63306902950466,-14.057309904844406,-48.030099942462925,-37.40925728208651,0.519710999999999,33.469999999999935,1
0.674715250981545,-0.15218579456037992,-0.6648176839962708,0.04590346890347403,-0.002347594794875781,4.070082491501109,34.3879,0.3761612591812462,38.140465264077115,-13.942226316096784,-47.96757565031713,20.728547852860938,0.5158739999999995,33.46999999999998,1
0.6758869327877297,-0.1506944539830956,-0.6636218384046951,0.004103180868286272,-0.002399446812768122,4.068982173342218,34.38536,0.37169663838518463,38.52101169566533,-14.057654996001478,-48.03475518642865,17.821286690772183,0.5171529999999999,33.46999999999997,1
0.671404283425948,-0.15006125923552271,-0.6671280746658763,-0.014252151394138398,-0.002238392250530299,4.068086604591779,34.379845,0.40427066518943505,37.99030292002677,-13.943751407545172,-47.96276114697284,-49.04907254055572,0.5145939999999998,33.47,1
0.6706435640938665,-0.14863448304558902,-0.6679363912937001,0.04936626195529064,-0.002227254377755685,4.067189988885262,34.38034,0.2804064212044559,38.57849538608934,-14.050110530991335,-48.04012985867781,-12.281440158642939,0.5184319999999998,33.46999999999997,1
0.6686327837365997,-0.15025942579868698,-0.6695734121250202,-0.014692316433185143,-0.0024575231200836033,4.067454115945784,34.380936,0.05771027097869666,38.373366730895455,-14.010062407548839,-47.955906833571056,68.96924240983378,0.5094769999999998,33.46999999999998,1
0.669172148969349,-0.14763612701510015,-0.6708477578055216,-0.014843865205385028,-0.002127570656365737,4.067282692007205,34.373207,-0.1862691889531489,38.52995118434431,-14.200292547630744,-47.927091061378505,-2.365949117420203,0.5158739999999998,33.46999999999997,1
0.669480661623394,-0.1489486755689541,-0.6711147599386217,-0.014350815611304704,-0.00236508732766229,4.066670378972294,34.372723,-0.3471339373238074,38.41317730614528,-13.994633782107593,-47.83807541313772,-53.26784732270179,0.5158739999999996,33.44999999999997,1
0.669135583045944,-0.15210921675405129,-0.6697931984725869,0.019135084417318395,-0.0021910327249409153,4.068190327804462,34.37095,-0.3066944970042579,38.714272854864824,-14.050193753391364,-48.0240986767428,19.726843960907228,0.5158739999999995,33.44999999999998,1
0.6658441446285905,-0.15084935537499136,-0.6719495626193982,-0.049952768376167744,-0.0020795511401516128,4.068297391646709,34.367546,-0.042465845064655935,38.505668061339584,-13.942688549333386,-47.96568522639978,37.4409885561542,0.5145939999999992,33.44999999999997,1
0.6648445805918843,-0.1543232755010788,-0.6738634344892647,-0.017697761761676378,-0.0024738912916145027,4.069209191064032,34.370823,0.2620529855353063,39.083544646977764,-14.18501854270474,-48.036658381491534,-18.124973164587576,0.5145939999999996,33.44999999999998,1
0.6645260707677899,-0.15428832637196674,-0.6690824806485228,0.03369788765664326,-0.0023033218196405357,4.067929970480508,34.370567,0.3279969596090771,38.37826961196958,-13.93852982020415,-47.84339721243296,-17.52019736853981,0.5158739999999995,33.46999999999993,1
0.6683582240083438,-0.15367652218080793,-0.6682605786986344,0.036498026631835774,-0.001937195124949109,4.066839617373983,34.37598,0.28290810926959614,38.78155106043841,-14.062419071970016,-47.96994882234114,35.966308384664984,0.5133150000000001,33.47000000000002,1
0.677521117556739,-0.15343379879798372,-0.6628697006815224,-0.005886542336179079,-0.002476987025404081,4.066172578635299,34.377144,0.26263886678074105,38.2761278394546,-13.93687580487058,-47.601073353551556,-7.065316976898526,0.5158739999999996,33.46999999999996,1
0.6746237904909699,-0.15217733758080396,-0.6641632994213219,0.03605738056487691,-0.002533415536642762,4.065185328269397,34.38447,0.10034048728138897,39.04477064851629,-14.063695817665904,-47.810742050765676,-76.21484100812569,0.5133149999999994,33.46999999999997,1
0.6671093461824991,-0.15081433520838367,-0.6709157828897984,0.006702040047337169,-0.00209255867280727,4.065764346663468,34.391556,0.07001833908372712,38.22896331844229,-13.935811820496859,-47.994555017487066,11.052301785521484,0.5133149999999991,33.44999999999998,1
0.6656442082953002,-0.14947848848589756,-0.6736752055011132,-0.015713735107180354,-0.002735266148159658,4.066247969797295,34.391968,0.09665854391531113,38.79795101613475,-14.064630970295145,-48.03041346942043,98.17580087478001,0.5133149999999992,33.450000000000024,1
0.6672846586732349,-0.1481886770162128,-0.6722100898184986,-0.008778758882975775,-0.0021586083521457525,4.066008235822645,34.399334,-0.014440496410701676,38.222478102711364,-13.934958129281407,-47.9593069342057,-9.60031602917027,0.5120360000000002,33.44999999999998,1
0.6682833614156403,-0.14930950468403967,-0.6703041301194304,0.034521607959538216,-0.002207386698066647,4.067031942953604,34.40242,-0.24565070005700193,38.75172923632175,-14.065432169396564,-48.04702536522746,-39.429516520299565,0.5120359999999998,33.44999999999998,1
0.6675199580047003,-0.1484084379058251,-0.67017331092844,-0.015235893580388047,-0.0026106798847110083,4.0656409974680034,34.408146,-0.29054903906621127,38.415890675443634,-13.934190485667406,-47.94807072959392,20.429483770887263,0.5107569999999996,33.44999999999998,1
0.6677781922868047,-0.1480215250830157,-0.6727400135805373,-0.028584787609336894,-0.002457001310728369,4.067519428728864,34.409767,-0.2666790724317192,38.66667159927719,-14.066179356973944,-48.05635345855421,13.911671978090617,0.5133149999999996,33.44999999999999,1
0.6673717878655844,-0.14895548372192488,-0.6726044604321608,-0.01809455692877813,-0.002302484206537763,4.065762345638546,34.41577,-0.2845487779515746,38.27710112079298,-13.933454252265664,-47.93914095212619,-60.40544484230957,0.5133149999999995,33.45,1
0.6641636614601498,-0.15043680996319536,-0.6748470774609227,0.013893366753290368,-0.0023008401670490445,4.065296533736374,34.41341,-0.2381474264056818,38.71435663569705,-14.066911781196644,-48.066052451668945,15.089294430538922,0.5120360000000002,33.45,1
0.6586239913527808,-0.15041029961586413,-0.6807623184327936,-0.037147294943829796,-0.0021030411887378265,4.065293609769918,34.420757,-0.00026031477116041335,38.62178640085049,-13.932720171230725,-47.9268601940471,38.23354561527527,0.5120359999999996,33.44999999999997,1
0.6550195780965501,-0.15160307500004305,-0.682699753214427,-0.01828537833982108,-0.0023774150357095463,4.0657082433466725,34.42243,0.1887189922961613,38.74789360680787,-14.067651614094046,-48.086230096639085,-24.559346271067447,0.5094770000000001,33.449999999999996,1
0.6560220384509843,-0.15115475418643276,-0.6795855124787898,0.03878906046233995,-0.002626441906350358,4.065814299691897,34.426968,0.23779912718548316,38.02413934512239,-13.931971869862828,-47.85824758112318,-43.7915071175258,0.5094770000000002,33.45000000000003,1
0.6637558718140921,-0.15178815860933276,-0.6771355305703461,0.03812052089381167,-0.0023195503193543746,4.064113992198694,34.42461,0.1983754430412791,38.40852176374303,-14.06840933480468,-47.98510737163631,40.17274969386427,0.5094769999999997,33.44999999999997,1
0.6690120795073247,-0.15062831561852388,-0.6703477130899061,-0.0030053357069549837,-0.0019337742078373186,4.063278393952863,34.429775,0.2933064293653699,38.222634279479706,-13.931206544736018,-47.959230334017796,11.823931073076114,0.5081980000000005,33.45000000000001,1
0.6700028374307372,-0.15038245954569127,-0.6694154609462197,0.011624611138589966,-0.0023209607115521284,4.062322742482379,34.43343,0.419112607805581,38.719290521927505,-14.06917549631122,-48.054194854055424,-34.87446828884862,0.5094769999999995,33.44999999999998,1
0.6687577920818698,-0.15052395875202268,-0.6693062410787872,0.029604512208656807,-0.0024215606240883124,4.061321586700323,34.437737,0.43434057693147304,37.89364414793978,-13.930456047011393,-47.938014532845564,-1.6519858211299554,0.5094770000000003,33.45,1
0.6670358868332484,-0.14947504266906586,-0.6717052662475085,-0.019355535842090592,-0.0026610457987670303,4.059790312877977,34.441147,0.37401366021037796,38.98435541829381,-14.069873022135399,-48.06882674835753,66.6830284461555,0.5094769999999996,33.44999999999998,1
0.6674396006196947,-0.1484494309456618,-0.6712983679248911,-0.01969029726588534,-0.0020632993656136164,4.059400929845575,34.443264,0.166173363698464,38.20308447854234,-13.929898049766264,-47.92122885611414,-10.417573631379888,0.5094769999999998,33.47000000000001,1
0.6684389287416204,-0.14971757895637872,-0.6703498372393906,0.014058824369237928,-0.0021232940874550002,4.059994533174736,34.44067,-0.07401377830657432,38.66261333159577,-14.070070271542779,-48.19005094319167,-30.15572972823221,0.5094770000000007,33.47000000000002,1
0.6682292877061958,-0.14938141497698404,-0.6702125887223473,0.01654348432709814,-0.002751670523639844,4.060922325766028,34.44169,-0.22367375646873897,37.701477715835026,-13.930747046905488,-47.94657029565614,19.6420751385125,0.5094769999999997,33.46999999999999,1
0.6679161025989957,-0.15004646574109098,-0.6718539633173195,-0.04677804836903658,-0.002277323918819916,4.060694932580168,34.443344,-0.287401976488662,38.61517791641047,-14.064974546664478,-48.06494537579517,14.693789493146355,0.5107570000000001,33.470000000000034,1
0.6681537478921588,-0.15011929549765748,-0.6716005375579592,-0.033713460323671035,-0.001892039705019859,4.060299655626415,34.441334,-0.09262598303532117,38.171400030117226,-14.03970821054913,-47.93036767552364,-53.64475786313712,0.5094769999999994,33.49,1
0.6661269591494388,-0.1516717156995738,-0.6730228543978174,0.009137808281377903,-0.002426415273268479,4.060077044291624,34.441746,0.20372938378551056,38.8173977663369,-14.109555161160584,-48.0724230992178,1.052117530470308,0.5094770000000003,33.49000000000005,1
0.661601787417031,-0.15199665305357749,-0.677928919132241,0.016250211785218738,-0.0022637217658655986,4.061027384082539,34.442932,0.4818268995793069,37.87400782101705,-14.038352407277097,-47.925869712580365,43.93624597688416,0.5081980000000008,33.49000000000002,1
0.6552016553708837,-0.15228280930573931,-0.680679908345002,-0.043990385475975086,-0.002375889642537039,4.0626166476539405,34.446293,0.4683960652840287,38.796603338108696,-14.066746022120528,-48.075184375227245,6.6860535565984565,0.5056399999999988,33.48999999999995,1
0.6588815531919436,-0.15193985122552778,-0.6777963416825376,0.03568746794896873,-0.0019837330234462698,4.058652694481862,34.44578,0.34833705190174713,37.865214141020296,-13.934492372377115,-47.92100964070694,-59.579875862110704,0.508198,33.47000000000001,1
0.6678164210683397,-0.15279101894182093,-0.6727712424749815,0.0448748816178644,-0.002527600625518675,4.057510277972571,34.446743,0.36117861298443515,38.90305215780635,-14.333400797777287,-47.80086499721671,9.545421848365278,0.5069190000000001,33.470000000000006,1
0.6697908320223523,-0.14936830130810116,-0.668376517802012,0.00850695549387476,-0.0025164515294368284,4.056555195424944,34.454365,0.363759156774457,38.074321331549804,-13.939765130226867,-47.83115177893216,30.817597861111388,0.508197999999999,33.46999999999996,1
0.6677919892279606,-0.14984711602408915,-0.6715483210062381,-0.007255574619234616,-0.0028967973188537637,4.0538346002653896,34.453007,0.3773795516791939,38.93462301570439,-14.36632199292638,-47.82717790072682,-17.29804602229779,0.5081980000000004,33.46999999999999,1
0.667877823478455,-0.14973280945973771,-0.6706914414490464,0.04791638602499558,-0.002724404104125497,4.053309361771182,34.46116,0.29410008828353046,38.48492466884746,-14.277024047511391,-47.070651158183644,-36.92694501451316,0.510757,33.46999999999995,1
0.6672724763670324,-0.1495739646146185,-0.6723912445918596,-0.018167807200393956,-0.002986169906410505,4.05427570777388,34.465137,0.14352017739487097,39.29277446635996,-14.001054171269598,-47.58859286580657,57.19944974172584,0.5120359999999994,33.46999999999998,1
0.6668610566554469,-0.14761657828304794,-0.6719535364788433,-0.018452250873906586,-0.002507219245688206,4.052523535488827,34.460567,-0.020134033743168203,38.19420478999554,-13.967660947842884,-47.68508640365096,44.97819690397567,0.5107569999999997,33.469999999999956,1
0.6685578497578644,-0.14950515513916332,-0.6707726903223948,-0.00711653672418152,-0.002357107525070114,4.051109281368245,34.454857,-0.19040791965634607,39.032464999665564,-14.044437877029448,-48.20895522066563,4.160507134354734,0.5094769999999994,33.46999999999997,1
0.6693134172423719,-0.14796018065777622,-0.6697977891048907,0.04272521703686423,-0.0021804511049805086,4.05151379192508,34.45054,-0.2926305031739463,38.11024913124454,-13.949197970591603,-47.8165442527229,17.42161456777368,0.5056400000000002,33.470000000000006,1
0.6695742972049297,-0.15102052646325426,-0.6709042293268593,-0.044582143915468754,-0.0022479372539795247,4.0515129266782,34.445774,-0.22444704646935487,39.00738386097552,-14.05470777696905,-48.070208681929635,-24.30834058130197,0.5081979999999994,33.46999999999998,1
0.6690581843564564,-0.149659277996187,-0.6684275560707241,-0.035360645937446034,-0.0022599174690982,4.051866154550622,34.442352,-0.12180487011525291,38.16842425116219,-13.942667784275992,-47.7898269726529,-131.98125569383976,0.5043600000000001,33.47,1
0.6685914340015777,-0.15434175595077856,-0.6695193547209733,-0.006227421983644802,-0.002405188100123675,4.051110198232425,34.438015,0.02779259191050722,39.026880255288795,-14.059195559023632,-48.20577359139037,-60.22341053924467,0.5081979999999993,33.46999999999997,1
0.6663462254334233,-0.15348043736651892,-0.6687338498362023,0.04677372938360936,-0.00210836541921509,4.051658825668597,34.43187,0.14405954872050733,38.144722212014656,-13.939441193962116,-47.784017481748585,62.1574762917695,0.5056399999999996,33.47,1
0.6672705763478028,-0.15493595437601565,-0.6681605487006466,-0.028771933514819794,-0.0024518351918904513,4.0524541664614855,34.430805,0.1530882523000721,39.32186702067203,-14.061563453712548,-48.08040022996022,41.74479999720493,0.509477,33.47000000000002,1
0.6736358174123197,-0.15313748304364494,-0.665099670051383,0.030899185260754695,-0.0023905926420417036,4.05028133572839,34.426117,0.12046967692930462,38.212485379359066,-13.937711024421265,-47.80610646037167,-48.17880081655664,0.5081979999999997,33.469999999999956,1
0.6794987354398835,-0.15456358638544243,-0.6592199183995336,0.04273876103914692,-0.0026408314680345614,4.048826400793441,34.424267,0.11681061978959836,39.05208711245743,-14.062779167097014,-48.20667275106963,-6.829050295487608,0.5069189999999995,33.469999999999956,1
0.6779422249880415,-0.15122649093779758,-0.6585912757874971,0.008137255683920128,-0.0022685948997329206,4.049502920155522,34.425343,0.13354436135749148,37.97548355879727,-13.93694491511678,-47.78358530951228,65.92493991825845,0.5069189999999998,33.490000000000016,1
0.6781465840250958,-0.15177386812884722,-0.6594969286829863,-0.040616158935417056,-0.00218614019745024,4.048669778281095,34.426548,0.1375089079061618,39.07167829771754,-14.063121555400588,-48.226038557413034,18.201772517381222,0.5056399999999991,33.48999999999995,1
0.6768726396185949,-0.15011810011590143,-0.6600320538575761,0.008388139845942133,-0.0019211159315936383,4.048654094961751,34.42671,0.1924404146244407,37.944658335952305,-13.937029748632368,-47.763781433142334,-31.068005777449308,0.5043599999999997,33.48999999999996,1
0.6779485441156109,-0.1520585179010015,-0.6607261671926594,0.0328287547026741,-0.0020912513444996425,4.048939461167217,34.427433,0.08837587401654784,39.14925714475028,-14.062580684680741,-48.247265001617095,33.37316180355824,0.5030809999999991,33.48999999999995,1
0.6754726399420624,-0.149680568985405,-0.6611563620011781,-0.015054595412663862,-0.0024566773132867555,4.050825722004224,34.42383,-0.014900560280953047,37.84261531276662,-13.938080301482996,-47.74055845704627,50.73259034188442,0.506919,33.489999999999995,1
0.6763374771435247,-0.1512629206053827,-0.6628452783732728,-0.02351726885596934,-0.002112658138448344,4.049924554046975,34.425014,-0.00865053966382867,39.05909012764817,-14.060939628211452,-48.27311924725027,-45.69481738415687,0.5018019999999992,33.48999999999998,1
0.6760548106678178,-0.14941564988622183,-0.6600371800456517,-0.0002639273785308226,-0.002216183677177743,4.050752525249809,34.42416,-0.02919624991339274,37.62275929471818,-13.94042498070917,-47.710896936287654,-20.917607309607266,0.5056399999999992,33.48999999999998,1
0.6772199007715782,-0.15140117100095382,-0.6614082266618274,0.05151166129466439,-0.0026890201581766977,4.05139431025949,34.428703,-0.1959881808118833,38.83676674285485,-14.057737529026817,-48.31053615372343,50.98451942335477,0.5043599999999999,33.48999999999995,1
0.6750872753519664,-0.1489722771341573,-0.6615957563689003,-0.027075183354358545,-0.0026409334662346024,4.050231783139463,34.426678,-0.21724323644365168,37.67293825209869,-13.944691687444324,-47.56453395118479,15.972416464587496,0.5030809999999996,33.46999999999999,1
0.6765667024236917,-0.15165115369066434,-0.6655705182993062,-0.017705268576629043,-0.0020897976076833503,4.049924906790404,34.42999,-0.08079919854805898,39.15460041073333,-14.052126710547913,-48.314761666493084,-49.02956274833768,0.5056399999999998,33.47,1
0.6710400051239368,-0.1506357015394997,-0.6658412367180175,-0.04117885608901066,-0.0018959866097134955,4.048736610134698,34.431217,0.028783066651892456,37.36617156589795,-13.952026739522179,-47.65525199732156,2.2192132069892576,0.5043600000000001,33.46999999999998,1
0.6683873302048173,-0.15524064030459558,-0.6715439467575106,0.04657872101895194,-0.0018260722652973535,4.050348594859528,34.42924,0.06278179801579832,39.22947767843496,-14.042543664449784,-48.37091466423477,41.31760390417958,0.5069189999999998,33.47,1
0.661539264651511,-0.15370395044338103,-0.675072290645323,-0.044548156421993015,-0.0025898302753431576,4.050341729104054,34.43282,0.07129368527172261,37.412414364163446,-13.964592211460984,-47.601153347704894,0.34380023622799155,0.5056399999999996,33.46999999999998,1
0.6597008094745319,-0.1558930516769202,-0.6783439357877593,-0.012534179557528053,-0.002772865607420294,4.05032587609699,34.43279,-0.11243796621218718,39.705936904240914,-14.025942789611168,-48.430248632039174,-43.55859565719049,0.5056399999999993,33.46999999999994,1
0.6617795049627796,-0.15422354905789956,-0.6742735010822686,0.02473966884943251,-0.0021834866054956568,4.048307233824473,34.433918,-0.0013678150072261193,37.1451554034301,-13.986780883205093,-47.53343316290324,-15.343593290714109,0.50564,33.47000000000002,1
0.6679727760073745,-0.1560787012107222,-0.6730894237138831,0.057115591202586975,-0.0026041343375267237,4.046895530606651,34.44081,0.06256816411641891,39.934418019536935,-13.99579478057558,-48.50968343829819,36.979885622589016,0.5056400000000001,33.47000000000001,1
0.670606198430639,-0.151422955747428,-0.6667765779848014,-0.019801865686208425,-0.0022917574146043428,4.0447685940503595,34.4368,0.026777636802043082,36.870244431097696,-14.028685377338586,-47.43745084925526,-8.925061189506046,0.5043599999999993,33.48999999999995,1
0.6715682645413694,-0.15394527597393687,-0.6703453724225982,0.033851233127140154,-0.002686798347696136,4.045297667111649,34.44649,0.06734913803906739,40.119525201148896,-13.93564115776752,-48.63049255882646,-27.185077833578923,0.5030810000000001,33.48999999999999,1
0.6666863685525058,-0.1494473206584935,-0.6673139342518113,0.014036582370136733,-0.002086937766661376,4.045603961844071,34.44248,0.14407607394141195,36.33657132734391,-14.119359538107979,-47.274968547220915,-11.879856818183375,0.5043600000000003,33.49000000000002,1
0.6682251484037293,-0.15291990338860295,-0.6765151474246065,-0.01151856813356948,-0.002522528175917075,4.045747537353262,34.438915,0.1795676070383899,40.75939945588285,-13.78688727709288,-48.880153387232134,58.64570202574961,0.5018019999999996,33.489999999999995,1
0.6627349161681658,-0.14432239148008869,-0.6681001267075631,-0.026773752081784927,-0.003548917389502066,4.04515037514605,34.44339,0.20562395380543677,35.28468721199962,-14.413838043532532,-46.67075659016059,-20.741079700143302,0.5018019999999999,33.46999999999998,1
0.6771896172913361,-0.15555344983807273,-0.6663384246073965,0.044385587555884884,-0.00293069003828728,4.044505969829017,34.436287,0.10986255773977353,44.65990482925896,-12.29721557775309,-42.83503188457432,-36.635153251413385,0.5018019999999999,33.47000000000002,1
0.6879286396521231,-0.15053981347352316,-0.6384001751751439,0.02825437868359709,-0.002525141343954321,4.044189002824013,34.43676,0.14845573864390774,40.374300610427206,-3.140197044066368,-44.155520813663834,10.845243424828254,0.5030809999999999,33.46999999999996,1
0.6906902424811188,-0.17918610992303116,-0.6522149036267708,-0.05719306783845118,-0.0020331849510898396,4.043861727625345,34.432686,-0.28393882594603886,79.90473583457361,5.100315309309179,-34.820175565274546,28.478881599799344,0.5018019999999999,33.469999999999985,1
0.6934185958356041,-0.1480474842861209,-0.6460452060052846,-0.04894831064186637,-0.0018862423591082254,4.0427437634449435,34.43221,-1.4627348903331165,77.63942457833046,-19.54610058105261,-12.439109266563415,-65.67658468839255,0.49924299999999977,33.46999999999998,1
0.684961666585025,-0.17626573877813323,-0.6392607441953225,0.00550003414948459,-0.002815820635488988,4.043920881008009,34.42591,-2.5498348172806935,9.164407681821123,-28.734885119545073,20.681429122073318,0.36003847395375177,0.5669749999999999,33.470000000000006,1
0.673484530304913,-0.19518302684670036,-0.6584091768148155,-0.03276497094338382,-0.0031660673011455116,4.046777321349614,34.42602,-2.770174474904992,3.1107468744558426,-36.0156953148311,43.27051015372353,-21.108161833086793,0.5644160000000003,33.47000000000003,1
0.6714541621792215,-0.17341358982571892,-0.6669969235402242,-0.02017357654658099,-0.0027188489739509267,4.0466647223881855,34.423748,-2.157924554965665,3.515984105540569,-53.90996802154007,34.6178788329208,70.70643185417609,0.5631370000000001,33.46999999999998,1
0.6688096259047934,-0.17406663600717795,-0.6596936293658879,0.07841060779344716,-0.00317831805132311,4.046186910405113,34.421543,-1.327801597309424,-5.692703428460529,-35.97316758183452,49.78148731953823,4.939119850952021,0.5631369999999991,33.48999999999994,1
0.674745618542938,-0.19916432993347322,-0.6522324206402765,0.033223096702647774,-0.0020300334723318924,4.045737722097211,34.41441,-0.5097032561013279,16.354107191397635,-16.741264829631593,17.348750715316328,5.698745699664496,0.5631369999999997,33.49,1
0.6657600510640495,-0.152733996125489,-0.6887599252653577,0.008186029506891965,-0.003210143162695018,4.044117303992424,34.415718,0.07083197275855099,58.60797101220039,2.9385856278835307,50.76429555275943,-6.441632524243913,0.5605789999999998,33.489999999999995,1
0.6725701350758461,-0.15339343450731338,-0.6527511754066654,0.04663769502724472,-0.003678396440061868,4.045300660122325,34.420055,1.1539139660009283,60.32724225537666,23.39840796868459,24.78363441856136,-6.381259519929462,0.5669749999999993,33.48999999999997,1
0.6822671275407628,-0.17140004425679922,-0.6520677340179293,-0.010792149801709467,-0.0016526743730735753,4.043444929610895,34.42099,2.413779865055974,64.42145871174858,10.189919335736485,-3.1104205289008298,-33.24697736553023,0.577209,33.47,1
0.6796041276750366,-0.1491701652423224,-0.6551067618828013,-0.032378490719125644,-0.0024458174322601624,4.042012041440115,34.41819,3.135482821998469,63.48190428554936,6.737607681458915,-1.9869652645050522,157.39492776542025,0.5759300000000003,33.470000000000006,1
0.6856365510906449,-0.14464515796216515,-0.6514660050285239,0.012136019206592366,-0.0021570097846879367,4.041549045345946,34.426594,3.0096157240846435,62.12317409612743,-3.284698098866274,12.96089048947032,118.08304490720059,0.5746499999999994,33.46999999999998,1
0.7001674485708663,-0.1574482415615907,-0.6419949175010411,0.01875197590913469,-0.0019876907079520102,4.044668853759549,34.41972,2.447839900799902,54.91360389007084,-13.236361933683762,32.28416354124439,106.58398520016279,0.5695329999999995,33.470000000000006,1
0.6879083267299191,-0.13814995072653255,-0.6547964558175211,-0.0340331023768737,-0.0020376147027221184,4.0438362868353375,34.416153,2.2195328200817706,49.695880717159554,-31.141526760566524,22.26993552116943,-337.3636799888971,0.5567410000000002,33.469999999999985,1
0.662298730950574,-0.1597775838160541,-0.660716651967887,0.007849326453666492,-0.0024821974804911775,4.042036287196998,34.41849,2.3758362120962326,41.08469054321045,-39.117867774753,22.07306204851435,-101.59002873513164,0.5477859999999998,33.470000000000006,1
0.6807584636851972,-0.15644897038837222,-0.6588082676708171,0.018246120370056778,-0.002332271713231164,4.040779827274316,34.414085,2.644060518873258,35.0002267748943,-46.37912565057104,16.389230253223666,-158.35090205544583,0.5401100000000002,33.47,1
0.6753977546025725,-0.14981246196196685,-0.6634263903633482,-0.042004393406306795,-0.0022598422545708732,4.040441656679251,34.41017,2.6425818293710677,35.89921058827084,-47.850247698901605,14.38452420037389,-114.17863411216412,0.5388309999999995,33.46999999999998,1
0.6758631756582224,-0.15347008868082634,-0.6663078681105868,0.022044408035598696,-0.0022284913062800807,4.039350521552035,34.413242,2.106545753042103,39.25016989322528,-48.18425332071289,12.374437428018007,197.6969914081022,0.5362730000000001,33.47,1
0.6737738787996831,-0.15364151972130005,-0.6648223514266887,0.008775730184902507,-0.0022101116139264204,4.04016445930899,34.41235,1.5060079399901578,36.943173829808266,-47.50262726253357,11.879118006319423,-48.925285270415074,0.5375519999999998,33.469999999999956,1
0.6708866868514476,-0.14547027421218647,-0.6702016864592002,-0.050935290764030326,-0.0028459370643627467,4.039710386178745,34.414948,0.8483780854780313,40.55236947668152,-47.928722685455355,9.853722016156802,92.49781556111024,0.5337139999999999,33.46999999999997,1
0.6631449934954857,-0.1519019463501919,-0.6738223696038002,-0.01322866591914098,-0.002073506025255214,4.042208428517247,34.41573,0.6299179358388274,38.017803657396485,-47.70152841299423,10.553793088009703,95.81950589949051,0.5349929999999997,33.46999999999997,1
0.6639571819783722,-0.15615734857785013,-0.6728266410015417,0.027140484123900986,-0.0029060407173862953,4.044170972037142,34.420372,0.22289910809174215,38.875269331368656,-48.284665411460736,9.51915729399128,-14.448632244602816,0.5349930000000004,33.49,1
0.6638441038539326,-0.15134300342237544,-0.6704386434186556,-0.011108114576509854,-0.0027361044977030915,4.043623391676252,34.425827,-0.6090370560834051,37.678120930891545,-47.96063922765419,10.055344610669522,26.347822964816576,0.5324350000000004,33.49000000000004,1
0.6749679905380517,-0.15497828786093903,-0.6668449213805221,0.028930287101840306,-0.0021081663529959466,4.041226741426224,34.42577,-1.3025009445492266,38.64385468031853,-48.471207715742054,9.095610617943994,69.02058065726617,0.5324349999999993,33.48999999999997,1
0.6749104838971948,-0.1490064945169491,-0.6624429844299315,0.041787556661895195,-0.0019369570179536145,4.038613300079803,34.43033,-1.522526433275489,37.442583658403294,-48.46509327484429,10.430780037642345,-40.54742744443326,0.5285969999999998,33.48999999999999,1
0.6657458115215992,-0.1499294409890422,-0.6735417479964823,-0.017436431848620454,-0.002528090749755509,4.039266713438808,34.430996,-1.1866553433401739,38.30125402359949,-49.079250448577234,8.76947245711599,21.3219027011944,0.5311559999999999,33.499999999999986,1
0.6627641000487906,-0.1464591530454289,-0.6773548073556321,-0.030358941321016308,-0.00218415063392425,4.039421865546152,34.436253,-0.9092802544115861,37.201773527031435,-48.906233374084515,9.366120640330239,42.87958209312708,0.528597,33.49999999999998,1
0.6683458337716076,-0.14672604457996571,-0.6724438073361032,0.030807148839283656,-0.002034870062433803,4.0381313067222635,34.437378,-0.928200281344127,38.277493575667144,-49.09624353759255,8.62999324542832,-36.94263209351298,0.5298759999999999,33.500000000000036,1
0.6656271586529583,-0.1458713456484237,-0.6723625614268525,0.008421636241029106,-0.002497894563571548,4.036874637137305,34.440884,-1.1320354718098085,37.32078242676082,-48.89666714810173,9.349633993728025,-13.48659342943253,0.5222009999999996,33.49999999999998,1
0.6680157657442077,-0.14659721040441157,-0.6733750484779704,-0.030137342479838892,-0.0030238982073140836,4.035971451052898,34.43857,-1.2525300594837991,38.110832539578375,-49.15505686427016,8.461481124926731,46.57469173675372,0.5285970000000002,33.48999999999999,1
0.6672607559143483,-0.14433789677535014,-0.6712308454459802,-0.006203789701648889,-0.002170457740366054,4.03608176214657,34.435726,-1.1827786830638938,37.04404831029323,-49.38726350357771,9.268648810775918,-34.836618859794335,0.5273179999999995,33.489999999999974,1
0.6697701766650171,-0.14671280917153207,-0.6712760859235402,0.0280092255456452,-0.002235951106324122,4.033530113595181,34.43841,-1.1357902652052856,37.45770764784246,-49.653886080584776,8.547445265856252,-18.127267280075753,0.5260389999999999,33.490000000000016,1
0.6684050854614608,-0.14769361873686176,-0.6713112718149048,-0.026987972436149785,-0.0017780243798410835,4.03295869915113,34.437443,-1.1195625056863943,37.35737939234747,-49.7530945506369,8.870640675581873,43.32144082095634,0.527318,33.489999999999995,1
0.6681682091588751,-0.14786279313217962,-0.6724624723577891,-0.04911564487007315,-0.0015049246901065198,4.032814101951404,34.437786,-0.8912445426644148,38.13734929090484,-49.154046347567466,7.719134046862967,-2.8543650657370883,0.5247590000000001,33.499999999999986,1
0.6650030816527357,-0.14962442143944998,-0.6735658008998705,0.005735040600156985,-0.0024368077662087896,4.032129823921956,34.43602,-0.5368154090918932,37.21656269889413,-49.72690803500914,8.305320444060937,-55.626116890408014,0.5260389999999997,33.49999999999999,1
0.6632529923381835,-0.15355411771772268,-0.6746794020045743,0.029577824660446294,-0.0026470528657119396,4.033866032254988,34.437737,-0.2773695314096051,38.28863656344065,-49.94189866603682,7.696579543744086,20.522296563611686,0.5222009999999988,33.49999999999994,1
0.6601109393852149,-0.1521674947717807,-0.6756232618075004,-0.0116336056357556,-0.0022687155871889924,4.035394783554775,34.438633,-0.38178991806100904,36.682593882236745,-49.71620172027237,8.315574567326895,28.74453129147586,0.5247589999999999,33.50000000000002,1
0.6679764217722347,-0.1501294301262898,-0.6721348935674334,0.020860368841493036,-0.002859760271825947,4.032976152674394,34.440746,-0.606765136311446,37.41166640802805,-50.011936615876095,7.843408158532524,-32.56796931296224,0.5247589999999992,33.46999999999998,1
0.6720171534504127,-0.1523206451843199,-0.6659653912712836,0.060888590118484125,-0.001879347216293779,4.030929910405654,34.43998,-0.5669651235271296,36.7507397141286,-49.98403121123802,8.238716264926905,-36.10931204655999,0.5234799999999994,33.47,1
0.6758485298871482,-0.14952223607120466,-0.6647107597013141,-0.005811433454383829,-0.0022407519932201767,4.030139706710655,34.448017,-0.25416367175960664,37.30805629472552,-50.014412463615436,7.75671487731644,39.48583789078602,0.5222010000000001,33.47000000000004,1
0.6713763914420475,-0.14768696524580738,-0.6667254048643301,-0.015482835462836709,-0.0019182855571073091,4.029261146110177,34.44784,0.04184729688797282,36.69863067057418,-49.98830492031352,8.251050101236569,6.319982602244342,0.5222009999999991,33.46999999999995,1
0.6714140146474148,-0.14973013627050233,-0.6682079824024859,0.03695490042935731,-0.0014747392928550838,4.028194620883997,34.45181,0.14359173354558297,37.234827186314234,-50.00838574013601,7.562573541164389,-48.13514591056157,0.520922,33.50000000000001,1
0.6688522996690617,-0.14758394861962504,-0.6692950429383364,0.0018377718773557833,-0.0020897965470083896,4.02777828153167,34.45389,0.24981906117594252,36.48782384038768,-49.99555014011724,8.134056575705365,-2.274095233957192,0.5222009999999998,33.499999999999986,1
0.6703856182851898,-0.1478891863447145,-0.6697348497749077,-0.03477333168086043,-0.003196350388148881,4.025921602704137,34.45571,0.2073396242135424,36.947984200110206,-49.99949481799116,7.6336568493996335,35.462391758024715,0.5222009999999998,33.49999999999999,1
0.66968485406274,-0.14714536179843257,-0.6692938012384928,0.005232735401822769,-0.0013844782469849557,4.024722754961521,34.456608,-0.0062937690425129145,36.70936415713141,-50.00760856722029,7.683460817994977,-42.27722927768157,0.5145249999999995,33.499999999999936,1
0.6699094192209337,-0.1479413836809342,-0.669517121282784,0.030588761081182806,-0.001774808169552748,4.024916315857409,34.457325,-0.23289571401663656,36.942188070626806,-49.979018993850424,7.426458230576227,-21.08154116759946,0.5209219999999998,33.49999999999998,1
0.6673284433719746,-0.14636999347951551,-0.6711333875004901,-0.02768761823080574,-0.0023331478990802745,4.026426956006598,34.45608,-0.3157606227026466,36.44592268739631,-50.07716528722274,8.091294944175646,45.16861345472919,0.5170839999999997,33.500000000000014,1
0.6680818689399328,-0.14748963729915904,-0.6736480161890416,-0.03927829241517229,-0.0032325257986641352,4.024938280062312,34.460106,-0.2687459895269277,36.86895287746099,-50.078118185124914,7.401531824043014,-8.02529210462225,0.5196419999999997,33.499999999999986,1
0.6653005857003995,-0.14828439032027974,-0.6745759110127382,-0.009387220876521178,-0.0022446788566435395,4.024957391638492,34.463852,-0.21649332899981422,36.25167720520527,-49.98056307905778,7.659669241087249,-40.819876338023775,0.5196420000000004,33.499999999999964,1
0.661009473773048,-0.15008028138056753,-0.6791746731036369,0.017474301739197846,-0.0014439185201025008,4.026600615968659,34.468773,0.05054594452062793,36.9476370764902,-49.99714264195166,7.503935535972064,42.61553379268286,0.5170839999999997,33.529999999999966,1
0.6544085675937572,-0.1510538662951737,-0.6831948462592803,-0.04523138538024623,-0.002090913206961635,4.027349849678603,34.468307,0.3022693104754576,36.65913409790933,-50.09886108883161,7.779038336538676,28.07882817230746,0.5183629999999997,33.52999999999997,1
0.6559508224186167,-0.15168577778475695,-0.6816995337655428,0.00907580024597283,-0.0036852846600724,4.02777309483133,34.475502,0.09037540025028427,36.653578563405745,-50.04803462007412,7.7649842624117476,-49.05704990563626,0.517084,33.530000000000015,1
0.6602080117139829,-0.15173831833905158,-0.6769737372778604,0.05554671025408411,-0.001902823758640988,4.0244383656494165,34.474636,-0.18459065695203386,36.11839966073653,-49.97231973539837,8.195813668273516,-12.658070595852397,0.5183630000000005,33.53000000000003,1
0.6703210291123993,-0.15058568772866682,-0.670081449436924,0.021236495325999288,-0.0014019977834735767,4.022561978920457,34.473297,-0.3179451617961247,36.42623062991423,-50.05222838889441,8.059023423027433,60.052414836109236,0.517083999999999,33.49999999999999,1
0.6738114698396651,-0.1493702197828334,-0.6659149728619235,-0.01618937331827249,-0.00212950008314072,4.021735171485096,34.4781,-0.16380960189342111,35.97308872533948,-50.40296624306574,8.945101633942015,6.971597322202866,0.5183630000000004,33.49999999999998,1
0.6699988631556069,-0.14858428390839795,-0.6693427202221917,0.04037268656089213,-0.0012861017439937822,4.019975331679451,34.486225,0.2490878072094512,35.68763847698839,-50.35502819665034,8.788174067935424,-39.881507191973434,0.517084,33.49999999999999,1
0.6647531092080803,-0.14799495714462108,-0.6738522085653934,0.008612875742414764,-0.002608354138213962,4.020882271674207,34.48545,0.505093983152261,35.7415558511824,-50.4891319179501,8.959385943324328,16.57788898310707,0.5158049999999998,33.50000000000002,1
0.6641397081000001,-0.14646799051848414,-0.6761114096749394,-0.023701568765084988,-0.002618284581770764,4.018529972803186,34.486935,0.4955898416405689,36.06176627092074,-50.51006927125328,8.580289300271142,36.653186665696666,0.5132459999999993,33.49999999999998,1
0.6650149421571483,-0.14545433131410487,-0.6744729658239804,-0.014996579051982845,-0.002083363239588366,4.017450105350968,34.486374,0.3048942148885544,35.67437139653506,-50.57524693088406,8.815017045814391,-47.722520357391275,0.5158049999999993,33.49999999999996,1
0.6656068800491375,-0.14623695705565135,-0.6740604938154557,0.03228295622438038,-0.0017537450632602529,4.017841189949872,34.487827,0.18100189377522607,36.22012487838957,-50.46506544241542,8.583220803000657,-19.760464472924586,0.5145249999999998,33.499999999999964,1
0.6647693281093963,-0.14512624523425277,-0.6749366199321583,0.0038278504162983402,-0.0023335388504241916,4.017598820128673,34.488316,0.06174187372156125,35.59147230985685,-50.80869000644872,8.516373035028549,45.964228851824366,0.5170839999999997,33.49999999999997,1
0.6636676751925603,-0.14558384421733,-0.6777751280927499,-0.0426300070716614,-0.002304440717823059,4.01895222026144,34.488117,0.0248089552364797,35.96076912026037,-50.63804690087161,7.976342764387426,0.2070597760569151,0.5145249999999995,33.49999999999998,1
0.6641327043413024,-0.14719651748129187,-0.6769358869344831,-0.013522500597364977,-0.002604336072032207,4.0186967038669055,34.48776,-0.017968232711087894,35.46109253193362,-50.81842564758725,8.285296368979918,-52.391237570641024,0.5158049999999992,33.499999999999936,1
0.6642430218022526,-0.14851256152120518,-0.6748770274566948,0.023515555553431267,-0.0024312112850356587,4.018711342458801,34.490154,0.011279294282485697,36.0763264899157,-50.85730291464502,7.950452845641443,19.67347684861811,0.5132460000000001,33.500000000000014,1
0.6615839938057291,-0.14994272157240932,-0.6772704299090289,0.013863559816035625,-0.0017877320390254892,4.020961087008388,34.491146,0.30737891767586706,35.901945943030846,-50.841279571724634,8.33470574782533,42.95090002674685,0.5132459999999996,33.49999999999998,1
0.658543841757399,-0.15186430590773967,-0.6763425901363609,-0.050664623786737945,-0.001898874593758496,4.0220676484728175,34.490997,0.2960787341225894,35.842503544508716,-50.53348962926631,8.222037123776488,-19.42501666578657,0.5132459999999996,33.52999999999999,1
0.6623376280913936,-0.1508169878910606,-0.6749283586192897,0.04491245219216435,-0.0018476612269828399,4.019564855497849,34.49241,0.09001835560221365,35.29236937620285,-50.62229035768068,8.528165889064125,-46.5621222796449,0.5119669999999996,33.53000000000001,1
0.670310445906317,-0.15232395900301665,-0.6699416124817592,0.03530528249435881,-0.0014233937981150836,4.017923140754476,34.495068,-0.005262327030890907,36.28979022609702,-50.730226095100505,8.167715623180223,40.30964402688709,0.511967,33.53000000000001,1
0.6726519810164977,-0.1485683993096408,-0.6661132326404339,0.006977581176624496,-0.0023711747968371117,4.01754912094489,34.49639,0.020509867700616087,35.58727690626687,-50.60548336675654,8.690686903438003,35.3280675811175,0.5081289999999996,33.52999999999999,1
0.675833875360475,-0.14879662069112745,-0.6627951471257645,-0.03465131476755501,-0.0028384284447656293,4.014601466080156,34.499756,0.25292495907223816,36.11359416241307,-50.71898696419099,7.840465750418194,-37.76019234382446,0.5119669999999996,33.499999999999964,1
0.6766862316083494,-0.14836088612461146,-0.6607752261422954,0.036723482397072155,-0.0026346101026782118,4.013217695027827,34.501133,0.4783196799962007,35.82678396870606,-50.49732863718466,8.297107467225507,-42.90791919200346,0.5055709999999994,33.49999999999995,1
0.6757592431785969,-0.1485064244502726,-0.6620746019990753,0.0005470547306388046,-0.0021010014736636716,4.024378779365381,34.504784,0.5338429998694966,36.1664419922508,-50.38619400299479,7.750520400537094,43.89853627140096,0.5106879999999993,33.499999999999964,1
0.6737522539966753,-0.14619477727812544,-0.6648310680167535,-0.016422761191837224,-0.002440964621191089,4.026916980719933,34.50441,0.4439602374549903,35.63107143576299,-50.60586846744648,8.232982557097777,16.877762876652927,0.5094079999999992,33.49999999999998,1
0.6768550861427484,-0.1490491128918027,-0.6623742009817316,-0.03083295951944717,-0.002334180429793259,4.025528128091891,34.50657,0.24301558932490505,36.118807787599486,-50.504161640738346,7.776732845924044,-46.490759219029954,0.5106879999999993,33.499999999999986,1
0.6753975746859741,-0.14687944399929193,-0.6614475676060482,0.033415754624174135,-0.0031683424280592788,4.025247834559858,34.508846,0.06300263903226809,35.83750056156192,-50.233428305682715,8.216642255236493,7.419549437563542,0.509408,33.5,1
0.6748161967073616,-0.1469628626415161,-0.6632505611509406,0.010493421544999548,-0.002038202461021976,4.027205326503839,34.507435,0.05268012171739328,36.050662954402775,-50.64741703475629,7.787986113580272,48.06593847376055,0.5081289999999998,33.49999999999999,1
0.673003273787309,-0.14750156373411877,-0.6667033613007117,-0.03599309782833528,-0.002270173961948494,4.027602160289666,34.507847,0.11889357243157231,35.77345728707472,-50.732078430751315,8.209131970670953,-16.105447976976766,0.5094079999999994,33.49999999999996,1
0.6739841872116447,-0.14937392160418977,-0.6660080263727595,-0.026454010582449616,-0.0033654930535200306,4.0252228279805164,34.512035,0.23793337323563704,36.062859634318805,-50.54325044795683,7.791595404960295,-50.638090739516905,0.5030120000000003,33.5,1
0.6701406435631885,-0.15131623816775988,-0.6676646153567367,0.0024323166338028404,-0.002399533624179669,4.0266907512303005,34.50787,0.23206260357529038,35.892680535462496,-50.88841701058374,8.211623730396438,28.053626431370102,0.5094079999999999,33.5,1
0.6686605311743199,-0.1530533777320927,-0.6686664569104878,0.031808236213030784,-0.002051400337845049,4.029247776286088,34.511814,0.051444770084009314,36.085628625962684,-50.81602311955671,7.773304763689722,38.22431927227983,0.5055710000000001,33.5,1
0.6634623787932272,-0.15544819744097593,-0.6739923501000996,-0.04948972325953286,-0.002122661282424936,4.030936114265183,34.51205,-0.4545504976765126,35.699369730190135,-50.47986382462501,8.362744654833845,-17.785707350886785,0.5081289999999999,33.50000000000001,1
0.658913881206275,-0.15607687943915866,-0.6770797283203904,0.014133088656080293,-0.002014701558327763,4.0291887406621445,34.51556,-0.7196908420896085,35.8982858341084,-50.5540666992586,8.085314479862761,-49.12978834768287,0.5068500000000001,33.5,1
0.6603918780597087,-0.15601724624850577,-0.6776822591336391,0.03490241622263565,-0.0017155198218762758,4.0302488714397935,34.51698,-0.5104980171750795,35.53241520342211,-50.210602547449845,8.373840156263787,25.418493133505663,0.505571,33.50000000000001,1
0.6654309736971529,-0.15426399139687164,-0.6739509726208173,0.025539860792562697,-0.0029186546998072297,4.028566183183163,34.519398,-0.3143247154787041,36.0655878404387,-50.60725883473823,8.055847234989573,41.00604241064555,0.5081289999999997,33.5,1
0.6705976226340236,-0.15333880601968405,-0.6661512779869269,-0.015665283266674514,-0.0019193891752504228,4.02697854982011,34.518913,-0.46144481692208433,36.091721900270755,-50.39185385629188,8.208008439197274,-14.863125513558689,0.5017330000000001,33.50000000000005,1
0.677039922059327,-0.1535580281083183,-0.6621059899315493,0.07297252699639215,-0.0035437359634328956,4.025484922245089,34.52207,-0.3142839458664089,36.09719128524353,-50.21880580589749,7.82199657017087,-46.18770233938909,0.5068499999999995,33.49999999999998,1
0.677605880459909,-0.152457179105955,-0.6593120074210861,0.005918832660163055,-0.003355586440690014,4.026155687321631,34.524548,0.16648867221598637,36.045482401086794,-50.02493687421682,8.17131479040828,21.242315257479945,0.5068499999999997,33.50000000000002,1
0.6789584197470329,-0.15121333566874698,-0.6594224864042699,-0.011107128232380654,-0.003613932722552026,4.026944725871195,34.52952,0.6160116359064296,36.339566755119975,-50.177499627256616,7.831894920698068,22.548626677726553,0.5004539999999997,33.49999999999998,1
