chest_ACC_1,chest_ACC_2,chest_ACC_3,chest_ECG_1,chest_EMG_1,chest_EDA_1,chest_TEMP_1,chest_RESP_1,wrist_ACC_1,wrist_ACC_2,wrist_ACC_3,wrist_BVP_1,wrist_EDA_1,wrist_TEMP_1,label
0.9129838269148861,-0.0960775903670928,-0.06657875818606382,0.06965152198331583,-0.00379151994873986,2.1520605534999206,33.78032,6.070665561337382,51.03428221226896,17.63319357864446,-28.836387203743342,82.06569010096761,0.41983599999999993,33.749999999999964,1
0.9163052509145395,-0.09090934693138322,-0.07084438056783118,-0.04283192422221849,-0.0024606319542641946,2.15314396993243,33.78197,6.228333752903615,61.72213358215837,14.22773146144287,-19.56762495008759,-61.215228553214544,0.42239400000000027,33.769999999999996,1
0.9144526540579249,-0.08511451945268067,-0.07638835349218323,-0.05138639913207283,-0.0025363541129640437,2.148758860593239,33.78167,4.698006081564035,62.27944847338089,14.64348740145454,-6.214312570094399,-53.68061257316506,0.42239400000000005,33.770000000000024,1
0.9162623671723064,-0.08931522922698357,-0.08237976123804543,0.06625089614537294,-0.0021636715768880836,2.150444979041787,33.783165,1.9491005040876102,58.899057890231326,15.897542397546532,27.837088531240543,29.95582297122981,0.42239400000000027,33.770000000000046,1
0.9130300836669005,-0.11135332155094355,-0.08938350558626046,-0.004602240850844157,-0.0015486994848439707,2.1465902910871337,33.786,-1.1307081158923642,50.45078169673014,30.789204775201434,18.155057693956838,130.4818898802378,0.42495200000000044,33.770000000000024,1
0.911616845908454,-0.10295227612979961,-0.10502642066150535,-0.04327385484934786,-0.002662860214541429,2.1482442395801384,33.784584,-4.0366844546355365,38.43605428166977,48.40225224454674,11.025555543020255,135.6515317515859,0.42239399999999966,33.72999999999998,1
0.908154978205924,-0.10997460050190157,-0.10808978484254067,0.06363874500478117,-0.0019878677583598566,2.1473894782212755,33.786377,-5.9219868502024005,21.58110524615942,56.43567290330375,10.904355444545603,34.40025051514945,0.4211150000000004,33.73000000000004,1
0.9117261654793795,-0.11801271332814876,-0.11848015861785811,0.03475122547528894,-0.0021392983465283507,2.148550392589795,33.784954,-6.104022907784437,-0.3110129730232278,62.674655072053994,5.591181217094247,-53.067354511098344,0.4147189999999999,33.72999999999996,1
0.9097939274629341,-0.11922241523184184,-0.12394848408762546,-0.04637123660380499,-0.0032337180001400967,2.1451991313145466,33.790653,-5.5227836330686815,-2.0970899379977768,62.72671190824645,9.710252890529382,-276.5033631786529,0.41727699999999945,33.73000000000001,1
0.9116914524614934,-0.11321840544863068,-0.11540208096701786,0.028692571923642732,-0.0015631579035282443,2.146054119249142,33.791744,-4.65918416663872,-2.8474803806541313,63.412915490453386,8.790078885209965,-82.46653200236027,0.41727700000000023,33.710000000000015,1
0.9113805349574016,-0.11393468137769158,-0.1167528392111591,0.05834512352989046,-0.0019591783411285145,2.144651832233827,33.791527,-3.379144221077751,-0.6972765418992528,62.80732913637389,10.508108741072245,148.06680859346014,0.41599799999999965,33.70999999999999,1
0.9112053841814101,-0.10862770166780199,-0.11555221494754674,-0.04629470712203262,-0.0026433839546611995,2.1452334034686213,33.794388,-2.0700475319399456,-0.23821769315827337,63.17153396420083,9.231574378829155,19.832969229975276,0.41599800000000026,33.70999999999998,1
0.9102055177287954,-0.10953388787593654,-0.11366453443232152,-0.026258593290403833,-0.002625590996428027,2.1437238096818008,33.793247,-1.0896463244957098,-0.007049694886090025,62.98609502647939,9.472298352719273,34.941120874421394,0.4134399999999999,33.71,1
0.9122192912753444,-0.1050820258087347,-0.10905877014703651,0.05906226830098937,-0.002646726972375854,2.1441236847998537,33.793285,0.4251010976525125,-0.5452199802308444,63.43323348101606,8.551320347063497,68.56631048334422,0.4134399999999999,33.73000000000001,1
0.9108192461458227,-0.10945744486738444,-0.11623484922678187,0.003668552007511502,-0.002037203729064529,2.1450918119590443,33.79616,2.7964341815585807,-3.2438816410862716,63.199752451619666,8.045187349065753,1.9926912072971894,0.4134399999999996,33.72999999999995,1
0.9102134810055571,-0.1062162535994617,-0.11692657687493711,-0.07674439004995273,-0.0021048554139718526,2.1438662806023365,33.798466,4.777152136799919,-6.290753129862592,63.438900867569515,7.0790377707547965,-30.549156485499353,0.4070440000000008,33.73000000000001,1
0.910049129225689,-0.10803755044036979,-0.11437789856576865,0.026932899464663863,-0.002465283036003956,2.1443143383747407,33.79917,6.037002130309648,-6.411277852166304,62.70493160188984,8.09646450687305,58.6131077163744,0.4108809999999999,33.72999999999998,1
0.9123811754678015,-0.10390108698557905,-0.11104397430739105,0.05057198653440518,-0.0027043380064452607,2.1457848712437113,33.801044,6.8765622352611055,-6.511049615109532,63.51283646892725,5.730539836014435,41.367236059950045,0.4070440000000002,33.730000000000054,1
0.9097599116596944,-0.10422622918512411,-0.12136051640400984,-0.07766134730772563,-0.002606632225414883,2.144163448820966,33.80512,6.412846077472394,0.6529859905871671,63.86680373568082,5.155742689483171,-37.33828451110355,0.41216099999999994,33.73,1
0.9120773416036791,-0.09832380899820525,-0.11574635746631437,-0.012022042580714433,-0.002335561807104486,2.1438753670954305,33.80643,3.814939152522079,-0.7074809426591319,63.80927615773929,6.355341429892803,-0.36617097630329887,0.40448600000000035,33.73000000000001,1
0.9113525837324973,-0.10379728681704048,-0.11673134175972887,0.06206161772153421,-0.0025278503266256518,2.1427372705703966,33.804276,0.7483590607706463,0.12211418756935041,63.57618188179964,7.673340492545378,39.50383917736964,0.4083230000000002,33.730000000000004,1
0.9112355347239304,-0.09919246022855616,-0.12021050565614443,-0.03034484509625001,-0.0016436163512009334,2.141293054614898,33.808067,-1.5499470989335737,0.10671393806488867,64.04437149839806,7.333745380361332,-23.297493626187038,0.4070439999999991,33.72999999999998,1
0.9105890328234248,-0.10844570403164856,-0.11747402556814976,-0.03906374597955725,-0.00274567233595087,2.1379173928449267,33.81195,-3.0735923579368047,-6.681936789191605,62.8656264370319,6.072746917800989,3.230485979239141,0.40704400000000107,33.730000000000025,1
0.912304842633689,-0.10525847773428215,-0.12376706862530097,0.056956165101845355,-0.002384684012602398,2.1395065283537305,33.807644,-3.8592601437744216,-19.596411334795896,60.93297260247169,11.88004686552075,56.633424399689126,0.4108810000000002,33.72999999999998,1
0.9131061446098293,-0.100815685614833,-0.11386501514076611,-0.002636303568217741,-0.0025506868058716285,2.137890944828675,33.810143,-3.9318303697812365,-6.54467238947747,60.97215474273392,17.794634185599783,7.0068283434395235,0.412161,33.72999999999998,1
0.908357534297681,-0.08973961913356847,-0.12685065661020553,-0.06912859520380368,-0.0023635266733619967,2.136349519978261,33.815163,-4.065641192134476,-8.55793910394929,60.276118620387706,20.69074227252066,-41.765610395760206,0.4172769999999992,33.67999999999998,1
0.9098958781195331,-0.08825274617037247,-0.12913831538695594,0.018677679011520367,-0.0028271200375375623,2.134997347481603,33.81508,-4.139356603735207,-16.811169137715115,59.37562150901793,17.756118045534386,39.086545611268065,0.41471899999999995,33.67999999999996,1
0.9094768706632207,-0.07266588075203374,-0.1267647583696518,0.04681375658593883,-0.0028031949364604506,2.13842628671969,33.813408,-3.624325241579308,-16.67880025907642,59.107233906925664,21.56819442702688,63.71967960243848,0.4108809999999994,33.68,1
0.9104127590422783,-0.08208999606322742,-0.1274237273916374,-0.050546097305843064,-0.002177273891943973,2.1364871497308093,33.81349,-2.536846811365024,-16.32552774144807,59.529704645717494,16.597753799444632,-131.72993055217177,0.4108809999999998,33.67999999999998,1
0.9106101892725518,-0.08675157243894162,-0.12366774887038463,-0.008091103988600403,-0.002546069859972047,2.1378786661360256,33.81596,-0.5250941314102968,-18.266301057351285,59.207777231837404,18.26689825776071,34.72665753157898,0.4172769999999999,33.67999999999998,1
0.9099743307680758,-0.08152301382343669,-0.12609928143038407,0.06679376017172146,-0.0025572721865540675,2.1380493742609064,33.81612,2.1506399389230824,-14.171774864962696,60.2690834000114,16.438293593703452,141.5891641470113,0.4172770000000005,33.68000000000003,1
0.9082613422779892,-0.08370911900071437,-0.13096668447751478,-0.0542771392547707,-0.00227378211890009,2.137856805651967,33.81395,4.474979809253058,-12.603330891516123,61.09907310856409,16.811107150178923,11.660461592349371,0.415998,33.67999999999999,1
0.917486007218502,-0.09177314682538655,-0.109694399497899,-0.022330107063641486,-0.0027430306503612063,2.1356172566496,33.818542,5.6818124021964405,-11.13713574330174,61.368118148269915,14.493235732327012,-131.1984058754432,0.4172770000000006,33.68,1
0.9180602103295364,-0.09050517814142743,-0.11249006971300055,0.09204537211749399,-0.0024395254953165145,2.1367614481749593,33.821667,5.634680470855933,-11.096276575214622,62.90297669472385,11.06998494031496,23.672009738429498,0.4147189999999996,33.710000000000015,1
0.9023809220116131,-0.07819908568183909,-0.14281586285949183,-0.05112318850671677,-0.0022553213946182532,2.133594595396417,33.821022,3.1136915814490638,-7.568921079987656,59.72864361802982,16.975267388621464,-29.136876337224628,0.4108810000000002,33.709999999999994,1
0.9025640496422466,-0.0501633285317317,-0.20417916823682666,-0.021927090919633727,-0.0024877371339959453,2.131362065375519,33.82459,-1.7789462228227617,0.3520416468416558,53.35822027012117,21.36764806156253,-45.09219571247999,0.40960200000000013,33.71000000000003,1
0.891241358828553,-0.03654782239704038,-0.2344440456104344,0.07555631634840129,-0.002009644263519563,2.1301074369857815,33.825138,-6.568352778305314,20.40210720447276,45.86661257325551,35.57705985840638,1.5171652049476054,0.41216099999999994,33.71000000000003,1
0.8707842054368113,-0.03878472502250263,-0.3353056395421373,-0.011521154246585678,-0.002972977839527285,2.1306763028733524,33.823555,-9.067209160416459,34.105408390926264,42.79739654710571,49.832882117255,16.66580076835589,0.41727700000000023,33.71000000000002,1
0.8049685433905625,-0.035477839162146405,-0.4309812916684767,-0.03476460930497448,-0.00219710642486303,2.126059895740182,33.819954,-6.764928346591536,35.911700909269804,40.853684459710884,31.400817923302313,1.3524695040339074,0.4223940000000005,33.71000000000003,1
0.8477379482222912,-0.00788058619754602,-0.35924662249449807,0.035060899118234685,-0.002782648445671059,2.1259535953590976,33.828327,-3.9298728967106222,44.47559708822449,38.636093401709985,27.1581453901082,55.20209152290343,0.4172769999999996,33.70999999999999,1
0.857265705931364,-0.00392742502678432,-0.3781156947582101,-0.003974414445810267,-0.0021751448616801625,2.1217586309696053,33.82427,-2.971828557614343,42.86116946237479,35.288566484973714,22.456663516084024,48.50580440322119,0.4172770000000002,33.71000000000004,1
0.8312025482567958,0.017025196243498644,-0.41243374120485143,-0.03709499815275409,-0.002445922336203461,2.1225783984082596,33.827637,-2.2203276124191644,49.7381895405443,29.47746168969968,29.78161345313914,-32.43475434478129,0.4134400000000002,33.68000000000006,1
0.8228385887325562,0.001470288065688883,-0.43312351670971994,0.012925580123254241,-0.002298654917987562,2.122319438540921,33.82533,-0.5533526894640745,49.73753563677061,26.535796561737087,26.69729287556074,-74.04887088213233,0.4159979999999997,33.679999999999964,1
0.8185101707929082,-0.002790743145247015,-0.4377040770074463,0.026110834551657764,-0.0032396099738632236,2.1226826037578848,33.825855,2.5522193716237562,55.99609686726295,26.404140910079146,13.915340410815231,-6.571244441359519,0.4159979999999998,33.68,1
0.8113902522681679,-0.01568078952222222,-0.4612018744481435,-0.04088301400241828,-0.0028581092578959647,2.1232259998381897,33.825924,5.60290545881631,59.08908790049117,27.247742553213477,-0.2566755902800916,-4.460090505961613,0.4147190000000003,33.680000000000014,1
0.8121920833410116,-0.009136503755226098,-0.45367400570912375,0.007824583992540667,-0.003084388119148175,2.1229725367706025,33.82897,7.755783668177347,58.95202788284964,25.107471685496336,-1.792824950476305,62.725326725145905,0.4147190000000001,33.66,1
0.808981444913148,-0.015948462723465562,-0.45794364861349945,0.0693658552849366,-0.002292450399279445,2.1242293646911787,33.82498,9.106543269766101,57.81822066154199,27.031901460251476,6.010936138329589,6.444697505003687,0.4185570000000001,33.66000000000001,1
0.810804189414678,0.001999935822206604,-0.44934325672630443,-0.030439622840082396,-0.002752138029554755,2.125503138087713,33.83015,9.190556020882868,54.617139179856146,23.575207431672194,13.114581016124196,-100.50829572634773,0.417277,33.66000000000001,1
0.818047605438232,-0.006885120912872535,-0.446510791530443,-0.012713587062306842,-0.0023416332688585696,2.123947993933743,33.827408,7.956150851031304,56.558916133287156,26.29663734640708,7.4715083865892415,-20.113629333207253,0.4159979999999994,33.659999999999954,1
0.8187412137411239,-0.012971023956997486,-0.44218470845518726,0.050505328166676966,-0.002895965035064733,2.1243131435957863,33.82836,5.862718259232939,57.62308821762525,26.676460970936777,1.263045459395112,56.78688008878719,0.41599799999999987,33.67999999999997,1
0.822432898973239,-0.0019581676613936627,-0.4354534141241634,-0.05666107345250047,-0.0030599407896278762,2.1221592385204353,33.82793,2.872563266107897,57.104178615854636,27.08320260813259,2.6149827462413904,25.735702252286327,0.4044860000000005,33.679999999999986,1
0.8304405157079268,-0.005479598317756762,-0.4145452631417163,-0.005914750092610441,-0.003129334268783184,2.1242173348670206,33.825985,-0.6191335138294375,57.848595199460654,24.474306569959374,-3.679635908192105,-5.961304759051424,0.4070439999999997,33.68000000000002,1
0.832485671801193,-0.005760714820937574,-0.41211098620317105,0.04098371359423515,-0.002609845308569215,2.1221416260985215,33.825943,-3.409754251571923,56.61226312620417,24.682977307077728,-14.954182853900148,43.35868078938893,0.4006480000000006,33.68000000000005,1
0.8338941929984192,-5.519593365268067e-05,-0.4056815863404899,-0.0208104189509593,-0.0015546897207346464,2.1221623703072443,33.82867,-4.827593442809649,56.89892235092868,24.473285980060112,-15.282399699974496,21.50991422751137,0.4044859999999996,33.710000000000015,1
0.8375663349928397,-0.000610730600793376,-0.40016585519864567,-0.009213772215901741,-0.0027632415735268307,2.1208512911382176,33.82849,-5.179331728607211,56.374710244850924,24.82813260280342,-12.858825720172387,-36.32062803514414,0.4070440000000001,33.71,1
0.8377588420465647,0.004198537265369612,-0.3983231135823489,0.0416798845454508,-0.0025056608486534898,2.122717629400333,33.825554,-4.4380934608485,57.171608629437046,24.523588546122642,-12.492636524587418,-58.10737020422575,0.4044859999999999,33.709999999999994,1
0.8339678464612712,-0.003922950208494747,-0.40873326020998574,-0.03578400954110045,-0.002830633984284771,2.1210811436414905,33.825245,-3.276015767489589,55.97438567329232,25.604378473650588,-13.770621921418845,-55.85699852013723,0.40576499999999993,33.70999999999995,1
0.8350280802646938,-0.005147280954139079,-0.40466408645265206,-0.018569401234648373,-0.0023973188969893646,2.121075576241817,33.830112,-2.517764940281279,56.397556688580075,24.48506811615094,-14.306325830924353,16.134181953465752,0.4044860000000005,33.650000000000034,1
0.8327171029301769,-0.009983369367690521,-0.4179205908396035,0.03883108397351586,-0.0031042337556892426,2.1216898950110488,33.825283,-1.8775947151586283,55.44147260192218,26.058709119529357,-15.401946594643867,50.72269105312361,0.4108810000000008,33.650000000000006,1
0.8236554545197651,0.003052264601247533,-0.4303719061438956,-0.003960018860850492,-0.002411747166105382,2.1222036290234723,33.82969,-0.9203830065230986,59.53003481339621,22.34422782065478,-15.54706115270374,4.348573088180745,0.40576499999999993,33.650000000000034,1
0.8203577930002665,-0.002470798992184854,-0.4348274239548459,-0.03581491686861351,-0.0016920729297504034,2.1201302541568334,33.826923,0.42906835441106733,49.280419978619726,27.523490215973986,-21.989558467547827,-8.65443646982209,0.40448599999999996,33.650000000000034,1
0.8165119638065647,-0.020474743504886105,-0.4448263359032377,0.059726536266902316,-0.002346504433422947,2.1210746603270585,33.830162,1.7998292935130251,54.73664065240117,28.57552881269059,-23.768947106570298,10.305925447597955,0.40064800000000034,33.630000000000024,1
0.8177324617065231,-0.011662066121227043,-0.44016726887156243,0.009594945771955889,-0.0034318960099777142,2.1198068463748743,33.827267,3.214867320962575,57.630344802181945,25.438717733525,9.212448583578645,11.27180558900579,0.404485999999999,33.63000000000001,1
0.8195826194416959,-0.0034152014823261028,-0.43610022668231263,-0.044491083008473514,-0.0023935299011411284,2.1209605539071976,33.82867,4.636321489118259,37.88517651089105,27.114521108333825,46.63808232865772,-24.477839636439153,0.40576500000000026,33.63000000000001,1
0.8282319285481878,-0.011390808351999395,-0.4254381820890766,0.06680571005295277,-0.0026632880434189488,2.1222035375905617,33.831425,5.361879886715322,31.15996642407744,35.41073947870822,36.15006243153414,14.215075253173191,0.40960199999999986,33.62999999999999,1
0.8202396789953403,-0.033693045822433786,-0.43889948740412504,-0.006934538032023947,-0.00215571582983162,2.1198143938835172,33.829052,4.744857540329207,30.423737963227584,34.843046780236385,39.53478411886608,51.824485554155295,0.4134400000000011,33.650000000000034,1
0.8121182538707121,-0.016151636661268988,-0.4507834070120513,-0.055648277640736946,-0.0009717667663079616,2.1177807008050786,33.832203,2.5534439626514445,37.31907226343645,30.67105102265764,43.6626552537317,52.90641757722025,0.4108809999999999,33.65000000000003,1
0.8169799922632991,-0.003882375382911582,-0.4392008605038026,0.0366457089868157,-0.0032105244561376318,2.1183949197532557,33.830868,-0.08539149599490627,35.72579307259541,27.0368152764988,43.30967586265633,160.22765243968155,0.41343999999999986,33.64999999999999,1
0.823544788068179,0.009675411891096662,-0.43794188462008793,-0.006453804024548326,-0.002716174957119158,2.115322620699387,33.836533,-2.105270244450852,40.49850313696446,25.429431779061662,45.155462116625856,-121.46132914215306,0.412161,33.649999999999984,1
0.8342553655410583,0.0025858635472110207,-0.413428410989712,-0.004510001250498035,-0.0025085968692743106,2.11537823621452,33.834667,-3.170064748401798,41.95135464454856,26.75686907519312,36.48725390365817,-158.47011997205112,0.4108809999999997,33.650000000000006,1
0.8277446328101971,0.0035000866061420206,-0.42443062148363586,0.049743766352040086,-0.002678875415176261,2.113227751273271,33.831665,-2.867965480118392,48.463061842339776,25.649470186774934,33.63796071601015,33.60808919878537,0.4147189999999996,33.64999999999999,1
0.8236243689644869,-0.0023181285051615016,-0.4293502707625555,-0.022380947269951722,-0.0028663177027433294,2.113665624078562,33.83651,-2.1615152557088133,50.89631788188241,26.320822544237494,26.29510286269957,-14.481125374856815,0.4108810000000005,33.65000000000002,1
0.8206500618996454,-0.003780368634105557,-0.43423173723674907,-0.0013257743390625875,-0.003511151656626909,2.110417255489986,33.833344,-1.9888045056585273,51.844427549370934,25.862605663356117,26.859803225509253,-93.50415799971695,0.4121609999999994,33.64999999999997,1
0.8232771966365601,-0.00240497228675323,-0.43140990598400014,0.048476706471303484,-0.003437764616599373,2.1097592268164043,33.82976,-1.7800867031684966,51.55954498324128,26.098882138736712,25.04746185905358,13.588121104052226,0.4121610000000001,33.65000000000001,1
0.822724381766593,-0.002073549082249485,-0.4342987377741144,-0.04069897962991136,-0.003275169585811389,2.11005254194659,33.829697,-1.5071790517578683,52.15098915605429,25.932258802930164,25.622492238588546,35.06548586664156,0.41088100000000033,33.65000000000003,1
0.823691324805556,-0.004490723213378542,-0.43207445506515607,-0.0013939155937828765,-0.002418150345764502,2.1094002940927696,33.831142,-1.4329425507474258,51.83501528458088,26.037066008677236,24.719215501609863,-15.411637378765985,0.4108809999999999,33.65000000000003,1
0.8201853222454364,-0.004179317504944149,-0.4411493984069258,0.028544685492909054,-0.00300132982565799,2.1075820246170944,33.83354,-1.109911605754069,52.58660298789819,26.004771085165054,25.59698288683264,25.676874009880333,0.4108809999999997,33.650000000000006,1
0.8159750780149454,-0.0013826882947829907,-0.4483210275440052,-0.020127855825124785,-0.00173812390318783,2.1084574580164115,33.83004,-0.13737163783741363,52.2044930033188,25.702971709780446,22.171640808328032,15.0058232951614,0.40960199999999936,33.65999999999997,1
0.814845386669812,-0.001892349070408462,-0.449739949532888,-0.0346367044013646,-0.0016269784738817223,2.1052297875761976,33.832024,1.159496819327346,55.512864319133605,26.34130390653676,17.503092062038963,30.89604573049947,0.4083230000000001,33.659999999999975,1
0.8139857420900215,-0.004243360232354569,-0.4493396240091321,0.05362701643296194,-0.002113727217251004,2.1075182703738204,33.829407,2.646751466454121,57.42448741232495,26.15245877991189,9.83370003896834,34.792616081735815,0.40832300000000005,33.65999999999998,1
0.8080693222293857,0.006424913789685572,-0.46120686372067626,-0.043008751144403015,-0.0034990012511483906,2.106140923982107,33.832104,3.9807554559499385,56.37714820275315,27.035803445723797,10.860080217269507,-49.41290657917712,0.4057650000000009,33.660000000000025,1
0.8076025051524034,0.004917797884912731,-0.45008829009999335,-0.040921451322390154,-0.0025624397410395905,2.1058195914031805,33.83381,4.69797285795708,56.1640220533815,27.96260556437436,9.881012418087913,-39.37999334896864,0.4019270000000008,33.660000000000025,1
0.8118382640429721,0.0033406813195219994,-0.4509025781646736,0.07300180024617077,-0.003204448368080233,2.1055010498960485,33.83104,5.033481130670411,46.70735999790245,25.84775749188866,32.036811801116016,-17.45155899017966,0.4032060000000002,33.66000000000002,1
0.8171045992812872,0.0008926215521091107,-0.44571378921700744,-0.03177784207669866,-0.0022487905199465,2.1059957477097844,33.83186,4.576615410354212,36.639002813860834,24.522377635354278,43.612585806134604,24.20482531909356,0.40448600000000007,33.66000000000005,1
0.8182660653751755,-0.0033104520264617657,-0.4446593142182065,-0.02067048459246758,-0.0022314560630555254,2.1034780838210088,33.836735,2.8863261113928513,43.85602322746784,23.340344158447728,40.77073498349512,-36.454352645686654,0.4057649999999995,33.65999999999999,1
0.8198512817016144,-0.007060919284941471,-0.44113765135482974,0.04540201495955971,-0.0025888399004345905,2.104235630253226,33.832798,0.6125861145416737,42.48568051732576,23.566147633766708,39.785535951972975,27.655967569054752,0.40320599999999995,33.66000000000001,1
0.8191387206388793,-0.005929739166437423,-0.44257724734836196,-0.04994042690072148,-0.0020310063369818813,2.100088030547961,33.836803,-1.8030367965216654,43.664849940028525,23.26959073224526,40.62244570946139,67.67293167721712,0.40704400000000046,33.66000000000001,1
0.8219715276455996,-0.007030956533516239,-0.4339246184336862,0.011404122860920757,-0.0030338351687125924,2.09844061661056,33.83802,-4.036428828000977,41.982763872898595,23.528527310419157,39.89685569461985,20.590239530787148,0.40448599999999996,33.660000000000004,1
0.8209193796595308,-0.0072875943480710465,-0.4378971468140667,0.02325481124052323,-0.0019373713061835215,2.0977518110439592,33.83536,-5.277584663668216,43.45184880037089,23.430571457814665,40.556917927364026,-82.61860582930413,0.4044860000000005,33.660000000000046,1
0.821111947663907,-0.007543966295606621,-0.43513994323986677,-0.025439450794403854,-0.00204533779869341,2.098084770476887,33.83617,-5.505608878116797,42.06430473567735,23.704685934923567,39.560161184287644,-27.09879176968201,0.40448599999999957,33.66,1
0.8217590262611482,-0.007630221761458715,-0.43506139213066497,-0.0075750980608419866,-0.0023792425363853807,2.0971190641466793,33.83607,-5.170128761391398,43.34546724279157,23.961519115969892,40.517909592912545,0.21021999696128219,0.40192700000000026,33.66000000000002,1
0.8229222335344756,-0.008465397259877544,-0.4322873825500123,0.052276091091753685,-0.004113074157208472,2.097526707899561,33.838593,-4.399447136031626,41.634179140767934,23.635868508057843,40.05264343297413,25.183025624905284,0.4032059999999994,33.659999999999975,1
0.8213578220204444,-0.008143900043173277,-0.4363484036082391,-0.011803466977249348,-0.00415819136280885,2.0975145080712356,33.838844,-3.4981069307849397,43.148337105478255,23.972419685583787,41.13442271013518,4.213602641915197,0.40064800000000017,33.66000000000003,1
0.8225730197038366,-0.008200950217177488,-0.43257953700694346,-0.021986477055998894,-0.0017597581543286726,2.0964726686977393,33.838497,-2.8395821211203276,41.26945536620267,23.872637648871887,40.30180759623957,-18.02649355198275,0.40192699999999976,33.66,1
0.8231632917185558,-0.009092005455294622,-0.4333165022889188,0.01352012236489973,-0.0019841665929599553,2.095415232752831,33.836544,-2.136463254533906,42.705952560415,24.005333370248493,40.83612451656008,28.820817339302565,0.39936900000000014,33.660000000000004,1
0.8229395170995017,-0.008891761072312366,-0.4322850565743121,0.045849511722203605,-0.002549405682700133,2.0962566734271384,33.83968,-1.4616052186293453,41.36753088183278,23.844228263720833,39.813463395449155,1.4359162865895296,0.39297299999999963,33.66000000000001,1
0.8212593951350508,-0.00842822285979607,-0.4360417623130883,-0.009780551780717222,-0.002748094646993849,2.0945774663865793,33.83719,-0.8949641493400283,43.03425738122611,24.071214332716707,41.176028091938335,-21.207985698036975,0.3980899999999998,33.65999999999999,1
0.8239556071769691,-0.009150935308198107,-0.4315705861887327,-0.02595147099692729,-0.0019807084710654005,2.0935037668023795,33.8394,-0.510827781519057,41.37638067249055,23.93018129436858,39.76771484396481,8.661230470208402,0.3980899999999999,33.650000000000034,1
0.8232897031953565,-0.009845148146205929,-0.4334329741227285,0.012116033232074263,-0.003096819068720739,2.0924186354168937,33.837315,-0.14467597884911837,43.1134508698628,24.078340378008413,40.85455242892413,27.44624790069906,0.3993690000000004,33.65000000000001,1
0.823756941610566,-0.008713445558731112,-0.43041792921745703,0.034445740007144766,-0.002789814057707973,2.0938153759650926,33.83763,0.30299576283825447,41.37896258503494,23.905491367524437,39.5279517180187,-7.873803326932759,0.3980900000000001,33.650000000000006,1
0.8217662995674117,-0.009517331558944367,-0.4369040857979727,-0.009630188135583412,-0.0035478222492502346,2.0929149211609,33.837234,0.6254087287523353,43.14699208108641,24.12205906909223,41.10002414544011,-23.199261438941033,0.3980899999999997,33.64999999999998,1
0.8238299918467844,-0.008892743321655591,-0.43129241336021784,-0.03594238020313321,-0.002957709880965249,2.091273595762214,33.83983,0.73184526607202,41.42098478706619,23.829230468884436,38.60831512370886,6.935255566301927,0.3968110000000002,33.650000000000006,1
0.8201233656790724,-0.008804044773054265,-0.43713841255594865,0.01659557243673717,-0.003862055213701581,2.090155450485678,33.83679,1.0844190193397591,49.098215272399464,24.9609657433921,34.32351199142774,23.654497649320444,0.3980899999999999,33.64999999999999,1
0.8211001648595574,-0.005107219059973621,-0.43217459819950094,0.02402750032737035,-0.002173192362302657,2.092680213247449,33.840843,1.7734345424664766,48.23013821269171,24.618621189837665,29.11104631846718,-7.8522630715025405,0.39681099999999997,33.65000000000005,1
0.8179040389132873,-0.006278513274060564,-0.44090674348106645,-0.00904998527412882,-0.003299344371843032,2.089890348127596,33.84285,2.603094600328346,55.8554859254044,28.676071941634923,38.72571617703548,-15.967247395963604,0.39425200000000005,33.65000000000001,1
0.8237554518887849,-0.004462601982734512,-0.4301601182697286,-0.009959756209786301,-0.002582603728038823,2.091680227022454,33.839542,3.421736745084107,36.17417256665345,44.799652728665095,22.23474916787393,13.71001975274719,0.3942519999999992,33.64999999999997,1
0.8332266746864497,-0.010075242168922393,-0.40935843882173456,0.05211040490911201,-0.0023704729106731916,2.0895782641730185,33.839348,4.0755186701095205,14.032778256202837,51.57143139710945,14.93471714294048,35.37525130490482,0.3980899999999995,33.64999999999999,1
0.8369287142035572,-0.005298340749042938,-0.40752455002093946,-0.004794170590010356,-0.0028343583990522994,2.091154866955191,33.84075,4.1145952914052994,19.646526892998306,57.785551614543564,20.320882010770163,-39.896476304510124,0.40064800000000006,33.65000000000001,1
0.8348674021307935,-0.0057808387222113705,-0.40840075662678504,-0.04493112838054641,-0.004071334890326076,2.088205804990811,33.84052,2.867496575543793,18.340089452456034,59.36743403161305,18.425922541277398,-65.08748144466857,0.3993690000000004,33.649999999999984,1
0.83179656382377,-0.007114285731330606,-0.4092445436658022,0.015279051416972297,-0.003292873029968045,2.0886678692976854,33.84258,0.9770773589408247,15.03373955527417,57.924374253377664,20.682679042234444,-33.77729257888287,0.3980900000000002,33.64999999999999,1
0.8346673776621071,-0.0029338087030357737,-0.4059297551201937,0.017622299645453122,-0.002188873679909903,2.087437016675465,33.84066,-0.5509853225808908,14.84147178989545,57.95529990373949,18.966468617155236,143.72562018323754,0.40064800000000034,33.65000000000001,1
0.8353812759922962,-0.0037601023690671987,-0.40580751046266594,-0.03952711168849252,-0.0024038101295162273,2.0866342112848666,33.845913,-1.5678603430863274,18.97487894770992,59.6358791429101,16.965189670000363,75.04265116152699,0.39808999999999994,33.65,1
0.8339816260676063,0.0013844555360256537,-0.4034948105210198,0.019265920749244245,-0.0023643319344611204,2.0854571330155034,33.845783,-2.174979332103418,19.258044134840635,57.94044675284198,15.01964093923714,-3.0722438251179645,0.39936899999999964,33.64999999999997,1
0.8403352399249604,-0.0067682882971814694,-0.39506210627412364,0.043898687880103905,-0.003833714551509523,2.086523669168149,33.846916,-2.2349213379152224,21.581277876155358,57.562134791894096,20.30207228025336,13.080306945683501,0.40064799999999956,33.62999999999998,1
0.8379382989234401,-0.003049311368758351,-0.3979270143320077,-0.039134014785807116,-0.0027922928182708287,2.084125740286185,33.850204,-1.9042659649570308,23.155966630333477,57.338981344662976,14.002600640667733,-42.344540272743394,0.39936900000000014,33.630000000000024,1
0.8390237052103734,-0.0033234220302375355,-0.39331041333181777,0.010546407996154016,-0.0023152471383394695,2.0839287852861816,33.849052,-1.62933781537013,25.451981332411986,57.10817179325444,14.560434060416972,-24.839683730476246,0.39936899999999986,33.629999999999995,1
0.8391572157357468,-0.0051948733241154125,-0.3954105953856649,0.061349850187622935,-0.002827808415401285,2.081764394063409,33.85078,-1.4042435672349713,22.556733417341192,57.4233868544729,13.843736158718285,-23.621557336166443,0.39809000000000033,33.630000000000045,1
0.840122683756608,-0.0084506390143046,-0.3952658854902633,-0.03847382065835553,-0.0023133926923972056,2.0811428648314454,33.854145,-1.171605372214038,23.18118173189016,57.44631056805177,15.580110225692462,7.249898788663823,0.4006479999999997,33.64999999999999,1
0.8388184941176094,-0.006658511830326397,-0.3945848344291295,-0.010579020177139608,-0.0020154478734011987,2.0784852558718323,33.8556,-1.0692026671450112,22.988257586544773,56.960145791302615,15.911937620493147,-89.82736852116575,0.3968110000000008,33.650000000000034,1
0.8397942219905717,-0.00418801824670323,-0.3936625182216498,0.03602803614259914,-0.002096858179492146,2.0802435752113393,33.85578,-0.9473947153155772,23.293998560672602,57.082799646817556,16.230986099174537,48.75475809805035,0.3993689999999998,33.65000000000001,1
0.8407612489212017,-0.008130784157848802,-0.3941230041269684,-0.04488072799121875,-0.0021701888759353325,2.0783912464302197,33.86006,-0.91470475500441,23.379942571738948,57.32765628572689,15.898434333045618,75.6248475672182,0.3955310000000004,33.650000000000006,1
0.8400966013294779,-0.007354444657277477,-0.39534150336732793,-0.03760918042250981,-0.0024094214750944964,2.078968239304464,33.859886,-0.9239771743821633,20.970680001509237,57.731506904254466,16.02441517921956,-108.94563364048032,0.39681099999999997,33.65,1
0.8365040959033018,-0.007876401250921823,-0.4036087784421172,0.037349179673404904,-0.002663303712622491,2.0785633539957695,33.864273,-0.39536888244836527,21.784908707071548,57.679899816816125,17.49920892847379,-71.69532484684126,0.39297300000000046,33.64999999999999,1
0.8301728268255953,-0.004845560485484503,-0.4175326480753375,-0.018080771080700303,-0.002513992461508572,2.0803618621105584,33.865437,0.8535535622406428,22.03573005015163,57.17207093800603,18.427752413920235,-151.7908913239426,0.39169399999999926,33.64999999999998,1
0.8275500469767502,-0.003296630722239838,-0.4226579975395628,-0.04711212736829808,-0.0027640725566626264,2.0776897653436146,33.86573,2.3831801781059747,21.964439667684257,56.70752677568804,18.874896781865143,3.935208774814558,0.3942519999999998,33.650000000000006,1
0.8271844103291806,-0.0039049311008504516,-0.42242940147483327,0.042174195783245175,-0.0037310348972277975,2.0783916781152625,33.869373,3.8620080591254693,22.119470670072534,56.38280619476998,18.90944962057096,73.4562734471674,0.3929730000000003,33.630000000000045,1
0.824413552781938,-0.002388118803613611,-0.4248255696781472,0.037635862228638954,-0.0032003011762668774,2.081225767996573,33.867702,5.151246873113326,22.757972960833996,56.45257889547487,19.22150029161793,63.338074703885496,0.390415,33.630000000000024,1
0.8264700031209761,-0.0008397248786850079,-0.4216890202430881,-0.0555342257966755,-0.0025538237963399057,2.078481818759976,33.87176,5.763620444495738,22.09094830860305,56.22391002230935,19.14948314721802,17.14481637183157,0.38913500000000034,33.630000000000045,1
0.8283451376240378,-0.0056166383361457295,-0.42054246629821357,0.022669666985365933,-0.003230650932163803,2.0776920331968007,33.87223,5.355263634309934,23.806705624649222,56.629543229765794,18.22133709326074,-1.3887156050589313,0.38913500000000056,33.63000000000007,1
0.827892837322617,-0.006160690755141679,-0.4217105811186662,0.04194103294012865,-0.0032263381496278392,2.0794811240737126,33.87579,3.903525784251684,23.273586990750477,56.71289177434194,17.2290861999843,34.33754858723926,0.39041499999999985,33.62999999999998,1
0.8284883847743096,-0.0050868117345600075,-0.4208759281824222,-0.05424192761605058,-0.0013882025861293784,2.0762120985896004,33.87799,1.655678128022821,23.363257810936943,56.57268602903011,17.886705872291838,-9.468802227693722,0.39169399999999976,33.63,1
0.8308605529671997,-0.0045512922486230685,-0.4153666820204292,-0.008859858560103172,-0.0016860997908132657,2.0756553214765363,33.879036,-0.7337714629063632,23.298733582193254,56.586557861157054,16.581619930735933,14.775883400938188,0.39169400000000065,33.63000000000005,1
0.8306927157216654,-0.007000938282473662,-0.41672644963567806,0.04632777913910006,-0.0025892212019721188,2.075347584597237,33.879204,-2.3084718588792597,24.01159556063042,57.05455228451144,18.035996003430633,46.56471888750662,0.38913499999999956,33.63,1
0.8288654719303403,-0.0025075460075953716,-0.41775638732520237,-0.009842061135699121,-0.002543278835179978,2.076772152404754,33.8769,-2.9695945346542985,21.807588972759397,57.28016333762386,17.604480288755042,-3.9508135084778617,0.3904149999999996,33.629999999999974,1
0.8324198778579142,-0.004968964440612791,-0.4110121338583427,-0.023713786950368743,-0.002106983385135955,2.072825582391855,33.877674,-3.22462338671031,18.82184198009099,57.88087079663573,18.2677239801278,-17.938845273712186,0.3891349999999998,33.630000000000024,1
0.836163518617527,-0.007682451742431848,-0.4036481173320725,0.03193084857640984,-0.0038038784871366475,2.075041258686571,33.88192,-3.151114615851528,19.67473407389353,58.12259599186922,18.16377532223514,27.320793619083048,0.389135,33.63000000000002,1
0.8367486407881776,-0.00433428794322382,-0.4004449208380421,0.0309914510031783,-0.0029043894220834,2.0749266535856603,33.88829,-2.8612075110092756,20.045372561691693,57.92876053108212,17.054192036217987,3.543312036218429,0.38913499999999973,33.62999999999999,1
0.8390114705580327,-0.006395591739301297,-0.3966470104229025,-0.03177437968215679,-0.0020234810745517018,2.0734343301816023,33.879147,-2.623673646630503,20.017928139601267,57.98285080246295,17.302082020586074,-44.006506953708424,0.3878560000000002,33.630000000000024,1
0.8395451996732237,-0.005674626609871344,-0.39303079317917566,-0.004745793489355744,-0.001482624921537671,2.0716216419827997,33.884308,-2.385860759341895,20.244287805314965,58.03731135020368,17.14107381946977,-9.765253036863239,0.38529799999999964,33.62999999999999,1
0.8416333882927871,-0.0069197617948072426,-0.3906462838596394,0.03757397780653511,-0.0028894011226825813,2.0720596012121715,33.881767,-2.0135653445984283,20.465957432400025,57.89851838203318,17.395813874760105,54.09838694054694,0.38657700000000006,33.63000000000001,1
0.8392114063082928,-0.005964060540550034,-0.3976714652978151,0.001004124106465873,-0.003928792239837151,2.07332316616261,33.887318,-1.633882037225281,20.929793057088443,57.83979607309746,17.453903212923535,0.2083271523117397,0.3865769999999996,33.63000000000002,1
0.8372367502685454,-0.0071462498614904115,-0.400715278949351,-0.04724671838238633,-0.0028907299944559593,2.070624417134568,33.88664,-1.1446798959292526,20.73426766088525,57.751963435108706,17.253473012369284,-1.870546855941828,0.38785599999999987,33.59000000000003,1
0.8329848632375482,-0.006527360710177413,-0.41115429670429177,0.013826934729100272,-0.0014048972155087276,2.0703452796759665,33.887596,-0.16217111131329787,21.36790030407753,57.77536427700094,17.31812172284278,24.141911211485635,0.3878560000000002,33.59000000000003,1
0.8268677242295207,-0.004629995078261768,-0.4228478442363954,0.04327475416906612,-0.002617449594051517,2.0719063817299386,33.8909,1.3913594802986995,20.91480062906794,57.64109665518821,16.82952793770098,16.809232066309747,0.38785600000000015,33.58999999999999,1
0.8251321927471242,-0.004240713887947614,-0.4280570830000423,-0.016663953627196373,-0.0022370760827086274,2.0705914732028217,33.891617,2.8908858528647947,21.7448075230014,57.99892473623655,16.07314043386225,-25.185215975330884,0.386577,33.590000000000025,1
0.8249157107261218,-0.004220228661802933,-0.42668209410527125,-0.021463918294539523,-0.0018110299286550017,2.0719974162150727,33.893936,3.844341705946131,21.248309605887986,57.74486512628505,15.922480283968678,0.04719546828303713,0.38657699999999984,33.57,1
0.8232683706214237,-0.003800872009314434,-0.4294433214335013,0.06833854952968131,-0.0023763052104494664,2.0708463205811998,33.888073,4.566266136355597,21.25082083051039,57.97016216285016,17.495924699654108,22.254223642082785,0.3891350000000002,33.57000000000001,1
0.8228894455325961,-0.006500482443811592,-0.43119076589658206,0.003950933780120959,-0.0029136369143789955,2.072175588779713,33.892586,4.8617533955136985,17.818496549291982,57.54870294719019,20.451575491296044,10.763371638761448,0.38657700000000006,33.57,1
0.8242334434833994,-0.002646464641495933,-0.4289464666314056,-0.051194611287083545,-0.0026831059526922297,2.0714100520608856,33.89251,4.3472519995792265,18.802702272169594,58.020496593780386,19.83670136430556,-2.8253456167192414,0.3840189999999995,33.569999999999965,1
0.8282977084436752,-0.011781584937113943,-0.41876615291996677,0.04815564389190198,-0.002746453351532288,2.0698479074313534,33.89239,2.8404085396894785,15.247923672594194,56.424668105005914,22.21543684563287,1.7301840505249166,0.378902,33.57000000000001,1
0.8352704528524901,-0.0024143357062054852,-0.4058519652531104,0.10414172599397495,-0.0031124321531101214,2.06943344714004,33.896385,0.586342635504199,20.848800791222,48.75538244672602,20.608618287653627,-17.304149704656062,0.3840189999999995,33.57000000000001,1
0.839467357072127,-0.008312631174677194,-0.39739239739955023,-0.17630205093973553,-0.0027836666106053226,2.069062507221188,33.896683,-2.095537030748515,40.52404659240148,43.15142779538487,35.99607910188204,-34.273603586620496,0.3827399999999999,33.56999999999998,1
0.8384942106266066,-0.009087187386879662,-0.3984150835351035,-0.00474544812919372,-0.002165482941942,2.066097162561146,33.89735,-4.31878512404431,19.89136925650597,25.429353726004603,58.09277098051199,0.18468870761715653,0.38913500000000056,33.57000000000002,1
0.8384425629742664,0.0004985061816611549,-0.39582079842244355,0.12032960909469677,-0.0031414266017207215,2.0664977254557577,33.8987,-5.378299764562275,28.54321082304051,21.414200556076022,51.99877914702257,48.19968106021269,0.39169400000000026,33.55000000000004,1
0.8435847040278184,-0.0038847765089038257,-0.3885548285428146,-0.0677736901125164,-0.0032071690593858102,2.0652857885349136,33.90048,-5.60876614617625,46.950572185603676,29.899378848238044,30.368738252443567,8.319828141066203,0.39041499999999996,33.55000000000001,1
0.8447666303154894,-0.008900791157907264,-0.38527610669101897,-0.02483120449326391,-0.0020250681349287167,2.067678025967415,33.900276,-5.230552954721886,48.83907157201526,31.62603574762688,0.07175969999216715,72.38807645855431,0.38401900000000033,33.55,1
0.8309181955156959,-0.013943840216274856,-0.41362712252555406,0.008694700769465128,-0.0024100946064136938,2.0652177936646843,33.896416,-3.9323134609928614,66.97717955071963,30.65094486593577,-4.926391506773965,99.51886231870277,0.3763440000000003,33.550000000000026,1
0.8287588064725456,-0.03659669637458162,-0.42103748728587503,-0.02960458562298408,-0.0029754766893572374,2.065409367936263,33.897774,-1.6583092819297816,45.100810513798095,34.456772580571666,24.167362120412182,-150.01333277315422,0.3968109999999994,33.56999999999999,1
0.8256983942911079,-0.0192988221405292,-0.41830117217386087,0.023196803125452733,-0.0024878193381676857,2.0652136353370696,33.89789,1.113139116693661,28.73253195629726,24.996259642476215,42.10716233272842,-159.16810636685898,0.38913500000000034,33.57,1
0.8290966745834527,0.012530497283314675,-0.42160959158026995,0.050344935194949675,-0.0026426588316657033,2.0665992825201314,33.896503,3.4666616481530355,41.23870623782362,27.16741932101415,46.817561899662294,18.20077188652541,0.39297299999999963,33.569999999999986,1
0.8308567855626944,0.008844102622861357,-0.4115392067884217,-0.05078602486872958,-0.0031311546237211565,2.064462283150285,33.90033,5.001638662203978,37.18189332738126,27.80653336277695,42.31707190453133,116.7219797064311,0.3916940000000002,33.57,1
0.8282198307236909,0.0031478759326915963,-0.41925927472459135,0.02746636081223548,-0.0030721376846602378,2.0663241527917853,33.902523,5.712535706059158,38.51702973002608,27.82850267568874,42.9212616994867,-65.42157101903423,0.39297300000000024,33.57,1
0.8267641263517396,-0.005096343013463182,-0.4218281749158192,0.046179568324208865,-0.001649261133722871,2.0635824111863954,33.902416,5.096626071667202,35.78488631387848,29.621067455299205,39.209177913373644,70.15944706137567,0.3942519999999999,33.57,1
0.8255787219680187,-0.016720343969762255,-0.4261179656312722,-0.04816586713535149,-0.0025310110470474993,2.0627071787153572,33.90127,3.2084599535834655,40.67574467057929,28.115898439870875,40.27082251350891,-9.873123385151947,0.394252,33.57000000000002,1
0.8315461124087694,-0.02721416878908705,-0.4195366885686929,0.01958129698360086,-0.0023863338993100978,2.059682362895089,33.90274,0.8643555661912249,39.4526039976782,26.598792611893117,41.68622737288673,-93.5038153459282,0.3955310000000002,33.57,1
0.8327953341427609,-0.026144386484965088,-0.4180789305573887,0.03447185649110077,-0.0025896857749828704,2.0593766989878692,33.902836,-0.7904470556424813,39.805448893748625,24.99107851326374,44.506974902774495,28.01562898517031,0.38785599999999953,33.589999999999996,1
0.8284862877303417,-0.025072311972458305,-0.4213274299644603,-0.03529132641208022,-0.003218473987796701,2.058875717560828,33.904144,-1.7700580493425628,41.05905585933604,24.17622608282913,40.28957606118018,-2.8266885615193216,0.3955309999999999,33.590000000000025,1
0.8300699011733941,-0.020177915004755395,-0.4172756601031842,-0.02386077717243414,-0.0025373174899233405,2.0583415880776297,33.902622,-2.4206526549346665,40.57696930514902,26.55094090893757,41.05277045325566,-42.40712170681894,0.39425200000000005,33.58999999999997,1
0.8337517018630741,-0.02486695228996511,-0.4107889377742201,0.037006594229570505,-0.002307782247760263,2.056303340075106,33.906757,-2.721472105201739,41.494445093740914,25.884754521769658,39.700951154559,32.965617820115895,0.39553099999999997,33.58999999999997,1
0.8336801440075794,-0.024313647960567814,-0.4119959136452638,0.016585773568322793,-0.0024113283689879885,2.0562543958806314,33.90598,-2.500740566422016,41.319648254388646,26.733590140414126,39.98598756445405,62.208409671102416,0.3955310000000002,33.59000000000001,1
0.8345621315080107,-0.026058361195530597,-0.40844870639799685,-0.043121226847002696,-0.002679637591287643,2.0541539967837177,33.905922,-2.2326244039461574,41.19915393923886,26.493284519331525,39.42596692494068,0.6601811262012444,0.3955310000000006,33.59000000000005,1
0.8360098258155967,-0.02471683694098646,-0.40550371824777043,-0.0018149319652469424,-0.002043476607683512,2.0533797596376577,33.907616,-2.005567595017754,42.36897954895737,26.886201188190544,38.3212028902257,-32.145234373668416,0.3955309999999998,33.589999999999975,1
0.8373820972235131,-0.028933315447702026,-0.4063097426268535,0.0440483374489241,-0.0025970815370368067,2.0516053106006042,33.907875,-1.6633900878337171,44.2252260114019,26.90717899712212,36.67055600741888,-44.79487754229319,0.3980900000000002,33.589999999999996,1
0.8353082641402962,-0.026386134968701538,-0.40970191065267264,0.010069955293123805,-0.0033828400414047132,2.0523145724803618,33.90952,-1.1648426853761369,43.4698299046705,27.8795558560122,36.62286833522832,-14.6631794252367,0.4019269999999996,33.58999999999998,1
0.8335384668111919,-0.021661304144566542,-0.41402677738920823,-0.032616326535909373,-0.0031203866311536677,2.0490723250787055,33.908367,-0.2630779714260237,44.829413888878236,28.328234800166555,33.518261733199296,-2.715643926243563,0.3993690000000004,33.59000000000003,1
0.8322984883870969,-0.015222645529185192,-0.4133402408309698,0.014445576020755222,-0.002016141741805039,2.0486361395173094,33.911484,1.1834823689704959,48.36428715875221,29.215184865523053,29.091241157503667,40.20992140911931,0.3852979999999996,33.59000000000002,1
0.8282785693477851,-0.01628818962989757,-0.42159030443378687,0.056546900798509755,-0.0025351779336268824,2.048396834112113,33.913834,2.831525779495975,49.06063326370408,29.655942554470023,26.995062608272956,8.198212202924129,0.38401899999999994,33.589999999999975,1
0.8246297424633643,-0.011284297686117179,-0.4229808558756366,0.014733982521232623,-0.0028548014269028474,2.0504841379339083,33.913906,4.089892050903877,48.61199923468652,29.25221996350828,27.118154252870212,-19.296053504893973,0.3840190000000001,33.57000000000003,1
0.8290179536146984,-0.01227795434589448,-0.4198183303345465,-0.04690215710021511,-0.0024072252719037897,2.0483502775149134,33.913265,4.682636312154898,48.18544491721499,28.9065313339248,28.98990002202745,69.28954403417733,0.3852980000000001,33.56999999999998,1
0.8321123006304628,-0.016950542907040417,-0.4161352426759452,0.04938583327927849,-0.0020192953658422852,2.050054065975658,33.91469,4.444248143531263,48.55779322351999,29.09507213063695,28.804921441036516,-5.65784752295663,0.3852979999999999,33.57000000000002,1
0.8298666344304757,-0.01906130078209546,-0.4200888091819898,0.02021559584260615,-0.0021435468910126388,2.047845456440937,33.91467,2.9971162227222945,48.409471328856384,28.88817592528777,28.177569062389868,-1.9195411007034855,0.3814599999999999,33.569999999999986,1
0.8303508867048502,-0.01985700132031255,-0.4183915540128851,-0.05992368267418542,-0.0025512342574895565,2.0462938750064437,33.91479,0.8465801195188728,49.138339037385904,29.21476048739831,26.989829759698466,7.151740180215904,0.38146000000000035,33.56999999999999,1
0.8320345859191514,-0.02137609163030197,-0.4146529162204312,-0.00226600188496013,-0.002653310753709214,2.044620571711851,33.917263,-1.2341799408613676,49.7369893530277,29.298500394087778,26.241408109783794,10.652193339841899,0.3776229999999996,33.57,1
0.8317664369964696,-0.020712655034644676,-0.416135090718086,0.03322581719116909,-0.0024077679894103287,2.045858830410135,33.918667,-2.4862449465779437,49.55420125551696,29.135383767354188,25.880716856072727,9.314782315995483,0.3801810000000006,33.57000000000001,1
0.8305830947311779,-0.021611764502051226,-0.41724419757156317,-0.055149074171887746,-0.002068019666310106,2.042889682489988,33.916428,-3.0785881197617235,48.4130246569832,28.366544061378818,28.787357652076484,-10.183073688413096,0.3789020000000007,33.57000000000006,1
0.8328172228222557,-0.02212608432243438,-0.4131829169826422,-0.022302609255073016,-0.0028613214855578834,2.04332919497262,33.9175,-3.3080912579337967,49.72674474373601,26.445806345487597,30.336596895096775,11.032391206867896,0.3827399999999996,33.58999999999998,1
0.8320119793007267,-0.022265631857729323,-0.4162216592025822,0.01677772615386356,-0.002622082851066135,2.0429536997051616,33.919033,-2.9773429963759495,47.95417328724729,26.909656817578856,30.518297411460964,-9.248427938484912,0.3814600000000005,33.589999999999996,1
0.8301184311904668,-0.022702166014835216,-0.42085155702504906,-0.04311080712492897,-0.003040641253575607,2.04355724921897,33.92053,-2.489262870277138,42.758547930655105,25.12105037751365,39.830284870764935,-41.233168589300234,0.38401899999999994,33.59000000000001,1
0.828187725400919,-0.02138894584183444,-0.42433459924650485,-0.03799613613165147,-0.003026669654715313,2.040978086800874,33.922295,-1.8555107163933207,42.11455801806765,24.230501636640746,40.28784891252579,-41.05737923697526,0.3865770000000009,33.59000000000003,1
0.8255143757985809,-0.018070999232587818,-0.42820766352802936,0.04580925201255238,-0.002443207719171689,2.0430511484159197,33.918934,-0.46709934114338214,43.22397419918777,24.03425705298003,39.28047971291891,7.7760734798822595,0.387856,33.57000000000002,1
0.8222488198857489,-0.0156432477901488,-0.43365333597696587,-0.0369107497352721,-0.002322678724556457,2.0413749682087574,33.922062,1.327411998471083,43.54102081617332,24.059412426506547,38.871881791584805,-18.139996001837602,0.38913500000000006,33.57000000000002,1
0.8243108188280764,-0.017594623842642532,-0.4272567402979337,-0.02828056630465327,-0.0029556181114773258,2.0411886185970127,33.922314,2.689166140460791,44.114985312941805,24.072060427529262,38.207278868620556,-28.865000992770387,0.38657699999999984,33.569999999999986,1
0.8270406238624636,-0.018801800171488792,-0.4251615329671943,0.08292380014140446,-0.00297831329890217,2.0441748686626773,33.921787,3.3440644933223154,44.59328927776114,24.319719984498665,37.478446340782554,13.9973673975243,0.38657700000000034,33.57000000000001,1
0.8276272828124813,-0.019003974443656993,-0.425716091675002,-0.02902419954630701,-0.0029385932513830357,2.0402041413795824,33.91974,3.0382984077929756,44.878970407381246,24.895251507020806,37.1909906066105,-9.409614600131178,0.3840189999999991,33.57000000000002,1
0.8289595551272243,-0.022208685918457243,-0.4224760028283647,-0.0294330385545962,-0.0028032685695164785,2.039384932702245,33.922264,1.623983360312834,44.838644554636765,24.936690613035317,36.92234176551071,-41.30152076478168,0.3891350000000006,33.57000000000002,1
0.8295090349994919,-0.022793118519894986,-0.4208173807445068,0.0620642146240975,-0.001918742087715504,2.04055531484919,33.923103,-0.10139544107899974,45.154697553526105,24.862404132312722,37.03222003738429,11.965009253134356,0.3852979999999995,33.57,1
0.8287189684042298,-0.022390415938218923,-0.4217784708874782,-0.011626391492272679,-0.002443004467824644,2.037264908367205,33.926765,-1.4028609018876417,45.14021082023118,24.740377980128965,36.6420177411412,19.427192785347493,0.3852980000000009,33.57000000000003,1
0.830097851269784,-0.023207132222244527,-0.4190914602908116,-0.02318459568870772,-0.0026584161557991707,2.0370518800009902,33.9275,-2.345272720281541,45.11528597348872,24.89223610882422,36.61485919848063,-23.280522555361234,0.3878560000000003,33.56999999999999,1
0.8312941265100072,-0.02433756393897468,-0.4171980253910785,0.051577260632820886,-0.002007497007905216,2.037897230464475,33.925335,-2.7588833494737477,45.158258168352845,24.758488639771727,36.61823818264223,28.515501180769082,0.3878559999999999,33.57000000000003,1
0.8296805243752418,-0.0229263759789042,-0.41966484009081584,0.011612863800685679,-0.0019959728494107244,2.0379247671621483,33.926117,-2.5793287291223135,44.91646072583295,24.801838351654748,37.19003499271485,0.42043629116259246,0.389134999999999,33.56999999999994,1
0.8311770972095344,-0.02393093021243524,-0.4157272350867671,-0.03639625024744365,-0.002103219784960665,2.0356720935375487,33.924736,-2.3271758552200903,44.772437054048986,24.55140211854444,37.00757012444177,18.416382664736158,0.3891350000000002,33.57000000000003,1
0.8342340924096525,-0.025884421600592268,-0.4111785857523227,0.03208526026824617,-0.0014565381490747892,2.0363353376271864,33.924747,-2.065986709801672,44.93425242585574,24.682419912975206,37.16430362322192,126.35728305427648,0.39041500000000007,33.56999999999999,1
0.832682508619549,-0.02461343362075479,-0.41249946164716694,0.02616171621685555,-0.0024647204079626056,2.0356529598042585,33.92417,-1.5321030437858427,44.859077409672615,24.632277766934955,37.39970542626845,18.0430567614096,0.3904150000000006,33.570000000000014,1
0.8342820840616283,-0.024244724326410665,-0.41180995885371574,-0.03976602317525146,-0.0028051591886609955,2.0362825830900544,33.925346,-1.1520645631643411,44.737655452643686,24.931225161455068,37.246941246448586,-18.96941726001262,0.3878559999999997,33.569999999999965,1
0.8340937614775181,-0.025359569954815545,-0.4123286935911315,-0.01910510365676852,-0.0024551856184595743,2.0341052042265284,33.925735,-1.0090526254369727,44.96794749167077,24.460321084076188,37.9040788699506,-6.110990811622751,0.3852979999999995,33.569999999999986,1
0.8310764144111925,-0.02320189852370425,-0.41876911190929456,0.04282514532926439,-0.0023307356776435125,2.036006365977792,33.9258,-0.4732992898757316,44.2873004592844,24.435772287616565,37.891390896392316,-3.4463625896676695,0.3865769999999996,33.569999999999986,1
0.8267242308890476,-0.0218691015046448,-0.4243707949161924,0.009466263362575531,-0.002051565299300874,2.0358068386601578,33.92343,0.7285131572725718,44.433686609331126,24.779265323776414,37.470024500821594,-45.517208843369076,0.38913500000000056,33.570000000000036,1
0.8276275943665375,-0.022442907712280104,-0.42581316257970003,-0.03503641727671272,-0.0024888024625086113,2.0341584796537067,33.925907,2.0281438846698543,44.006997174567765,24.585899617756677,37.981492264586905,-11.40277694795234,0.38657699999999984,33.56999999999998,1
0.8274153967957248,-0.02288595893586448,-0.4235746551999279,0.009900580695277795,-0.0033981559881622785,2.0354108710264645,33.925304,3.1624145140599818,44.72020565852315,24.905175733756643,37.338001304619915,29.26027007185663,0.3878560000000002,33.57,1
0.8282288504325334,-0.019632402671530755,-0.4201480987174268,0.07318798047495327,-0.0022427360430659253,2.0364828684295304,33.92805,4.223877990377616,45.33945645600778,24.965370710238968,36.20029553136035,14.076729614421957,0.3878560000000003,33.52999999999998,1
0.8281856595791582,-0.018168778090241262,-0.42348093179676327,-0.034507244147381495,-0.0027954056341226163,2.0347511892678285,33.927055,4.440198737184877,44.93474049200835,26.28865796263075,36.46739922697664,-21.459199304319412,0.38657700000000017,33.53000000000002,1
0.8297908209681939,-0.021829961243014524,-0.42040376007126057,-0.031162899410321687,-0.001484488617220376,2.0336140111568786,33.927395,3.0760145939748225,44.36960061300962,26.7377405970345,35.62829313482056,8.076772241802928,0.3878559999999996,33.53,1
0.831816690781985,-0.022738861470951357,-0.4179172519470898,0.03827634692744842,-0.002349161340980429,2.0336948328597466,33.92655,0.9074548139449233,45.39265642251569,27.06289710160292,36.05433112509456,20.682406330104573,0.38657700000000034,33.53000000000003,1
0.83047004560116,-0.02055734491945956,-0.41813701959228217,0.05342783026864522,-0.0013920496504470094,2.034858427393556,33.924503,-0.9443474779544317,44.75561867313837,24.65042434690461,39.05805412416645,-38.93153491794283,0.38657699999999917,33.569999999999986,1
0.8380056581062203,-0.014103158770996261,-0.40682557447657547,-0.05628313437753047,-0.0025435842252769236,2.033196895740709,33.927307,-2.0912676177633935,43.56430513148348,30.805040600269646,30.100042150751193,-53.20940221134459,0.38785600000000064,33.57000000000005,1
0.8360630260541688,-0.02389432919277223,-0.40576291760014715,-0.026509869231959863,-0.0018420553984296875,2.0330191446049657,33.925903,-2.7533088925311957,47.91165401697192,35.79378361320496,24.87831936642871,22.36592566083825,0.38401900000000005,33.57000000000002,1
0.8317298647224863,-0.02081217677801286,-0.4078301550211599,0.03851716544261007,-0.002993270104453091,2.034244492214579,33.928146,-2.820049461607952,43.96315720707483,29.001651164277654,33.47016629679586,-34.129615937178684,0.3840190000000007,33.57,1
0.8361879837770996,-0.02884916806253298,-0.4082949436553979,-0.04003745216461086,-0.0024386285441658434,2.0312550849313884,33.928974,-2.4677038948388983,41.41004699905052,38.11246191860434,35.846569416456134,-43.3099369082751,0.3827400000000001,33.58999999999998,1
0.8324782150869877,-0.022594073152724308,-0.4139912554367122,-0.019587500695045564,-0.002807366514180647,2.0294129280608897,33.924717,-1.9855192763177316,25.53072021479528,33.43285686302904,43.72926797119482,-7.998720153052042,0.3865770000000001,33.59000000000002,1
0.8322298826964495,-0.005881600687810004,-0.4143720723197114,0.050745022532524664,-0.0026628927688059035,2.0313718205117066,33.928738,-1.3885834648864415,24.634402007176345,30.946866183635006,46.8076648455916,43.02133563408811,0.38657699999999995,33.590000000000025,1
0.8318543273539218,-0.010599239847037386,-0.41964333275659865,-0.0052001463315366194,-0.0028224384158297817,2.032457335242171,33.927914,-0.15141527926986073,31.460894581544373,35.8376394174856,44.800543028070614,1.008346771602373,0.39169399999999926,33.59000000000001,1
0.8262768045718123,-0.013306792422720946,-0.4221503440586064,-0.04273281239325,-0.002060673373385828,2.0297486588045803,33.925995,1.6355040280946447,30.377362687072456,30.037758210224144,45.24439585154437,-5.032844113425029,0.3904150000000003,33.59,1
0.8266136811080893,-0.014203715998095855,-0.42357287445742114,0.06784731569135807,-0.0021371112420047436,2.030967122487451,33.923218,3.346488750763374,34.90596977370566,31.018253889642118,46.717961255265735,105.2067492258975,0.390415,33.59000000000003,1
0.8288326590505564,-0.009678345496995195,-0.418156158089167,0.012689500361540717,-0.0025791721412564837,2.0323688522696344,33.92228,4.547122356316806,29.886091475290723,30.25310299902123,45.25078993095146,34.763000594007885,0.3929730000000004,33.58999999999999,1
0.8299071741243548,-0.016411807799206694,-0.4200663470282997,-0.06360201595627975,-0.00220061105293867,2.0310605945540243,33.922287,4.994496137545471,29.54403899143583,28.594585794358093,48.09217686341196,-140.6136289342443,0.3929730000000001,33.59000000000003,1
0.8314746038238519,-0.01529347999210616,-0.4148519012797257,0.07016765987022196,-0.001586417499811301,2.0309384349931885,33.920383,4.166422465317533,31.14710647898742,28.9177940225224,47.122652435029906,-42.56883715744356,0.3929729999999997,33.57,1
0.8303479577437956,-0.016802212233653434,-0.4194756782168086,-0.008492388388271887,-0.0029037036467147517,2.0293469102624595,33.92107,2.317725395956312,31.380726149874103,29.798720837783787,46.07437399859978,48.07317728680622,0.39041499999999973,33.57,1
0.8301243530375908,-0.017530664044109037,-0.41787231220880244,-0.04952803154149424,-0.0020216677948868378,2.0285672796534717,33.920708,-0.022352804122744326,33.914874535959434,29.92370478320744,44.24053546845582,56.565597415040564,0.3929729999999998,33.569999999999986,1
0.8333065580243845,-0.01981617322973095,-0.4134463472893125,0.04450502940072312,-0.0025517657342006327,2.0280892166242066,33.91922,-1.8455608391843221,33.90321987342799,30.271806896354146,44.21957547773389,-5.880193036203443,0.3878559999999996,33.569999999999986,1
0.8309340339595132,-0.018662424982542888,-0.41671451894503014,-0.0010721279162303515,-0.0020124150907359947,2.028704130288142,33.91406,-2.75942516232162,33.7197217361527,30.191104002760703,44.26301990859487,17.156863225116,0.3929730000000009,33.59000000000003,1
0.8325898328987433,-0.01837336523083255,-0.4135768010434914,-0.04093270179241482,-0.0032439063029081503,2.0261898965571077,33.917183,-3.0714307882600553,34.96705776597145,30.422109647200767,43.207847250867715,-42.13232249904011,0.39297299999999946,33.59,1
0.8330897205580182,-0.017739586541331752,-0.4106712994106892,0.03511778907421497,-0.0024611183542956527,2.0270550590277683,33.917957,-3.0074332726931705,34.62502284337804,30.04623372663689,43.36462961166639,28.430798507746136,0.39297300000000085,33.59000000000004,1
0.8337865300115611,-0.020704148199964356,-0.41190242401301047,0.03566192749524894,-0.0018961683016940022,2.026565323156595,33.91596,-2.6753575967954695,34.53095544118729,30.38070504825365,43.86531167713793,4.229209852651756,0.3929729999999997,33.58999999999998,1
0.832492278325363,-0.01884605157041092,-0.4122722754932809,-0.04195391664502721,-0.00199561590431501,2.0257481975491785,33.91468,-2.2998434598775894,33.47066316480931,30.17735275788403,44.04237209860381,-27.15967155262592,0.39297300000000013,33.60999999999999,1
0.8351215391255099,-0.019746409809380864,-0.40996044680549076,-0.007920526322656022,-0.0026835282543998017,2.0256840631380313,33.91606,-1.924517464289528,33.27427332017354,29.946142794994913,45.27335057640021,-23.29882170904021,0.39553099999999963,33.60999999999999,1
0.833714205531515,-0.020197602531720992,-0.4124857150843434,0.03777039859999734,-0.003647243422121916,2.0273279647258553,33.91638,-1.3348034646153781,30.925588644437187,29.33785652876089,46.713799571012856,40.422254278014364,0.3929730000000003,33.61,1
0.8301710461089779,-0.01985077122261789,-0.4192204658109607,0.019510806547977176,-0.0027178284994162326,2.02553334113005,33.915268,-0.5653885509862233,30.718980841566083,29.53379630170775,47.35763754055085,-13.677687812312627,0.3929729999999998,33.61000000000003,1
0.8294206750106448,-0.01474585311973463,-0.4207781349985667,-0.04745684573570765,-0.002745882278411923,2.0237986820177394,33.914234,0.36781136933607894,26.187794640990624,27.09378315376084,50.00990681630784,25.427327323305466,0.38913499999999995,33.56999999999997,1
0.8300000906665922,-0.014455445073573946,-0.4192741523201834,-0.009508371637803022,-0.0030222442030567375,2.022742385229876,33.909023,1.5627322298480086,28.26832587707471,28.17069370665888,49.74978894846521,41.12259202377952,0.3916939999999997,33.569999999999965,1
0.8280523118432136,-0.015731570355051943,-0.421665860336138,0.050594720974919835,-0.002541480875071079,2.0235595148451107,33.915028,2.8234024475630295,24.579200100504643,26.795875721839234,50.183558517747926,20.944707091725878,0.3916940000000001,33.57000000000001,1
0.827933687452582,-0.01008842339394528,-0.4188265884932506,0.016885530215105034,-0.0029389821249680317,2.0231524499457363,33.910275,3.77870815726625,30.005072409424034,26.391372445142416,48.74783100684638,-35.47780823407598,0.3904150000000003,33.57000000000003,1
0.8324966182125495,-0.015007840623766141,-0.4138178779571744,-0.05838297825238066,-0.0027657483903042028,2.023713021914464,33.911,4.0355428627345304,35.71272212038677,25.975501381467797,43.35212320145218,2.5709309382249996,0.3904149999999998,33.57,1
0.8346585414370234,-0.020509219171739215,-0.40974298761177036,0.01388421604629573,-0.002928192061171339,2.021578402722522,33.909306,3.2969832437089353,54.1121500638994,23.986850198995658,23.030636833892093,-20.76100136593057,0.38401900000000033,33.57000000000001,1
0.8334804992979901,-0.021644150387682852,-0.412206030288159,0.04020326039078963,-0.0026141341173940517,2.0239048798968877,33.91183,1.9176414606896681,61.20451158380188,21.36525235650555,-4.970214157216695,-11.846347355227781,0.3712269999999994,33.56999999999998,1
0.8352642409710936,-0.017947015523150756,-0.40877244368768745,-0.04289348319962729,-0.0024140994608468857,2.021366670462133,33.91056,0.20548967124954717,63.27176174750129,22.8117861563067,12.46877499062515,-94.76352156752955,0.36483100000000046,33.57000000000002,1
0.8327405987305552,-0.03038352270855056,-0.4143251190456925,-0.01817465160835736,-0.0029402534168946615,2.0188906537442093,33.912186,-1.407928641715901,30.40538385200758,31.006367338759105,46.68702069345687,-27.06246349810589,0.3673899999999997,33.570000000000014,1
0.831163556708733,-0.016279343052212118,-0.411146472234529,0.05362357812358883,-0.0036252906217043523,2.020396152562646,33.908714,-2.25850410537189,18.542089069875715,27.183786750338534,45.769348685038494,85.16106814546387,0.38018099999999994,33.569999999999986,1
0.8374481353063454,-0.00864686305229287,-0.4060878973676655,-0.0011130676309573041,-0.001931369996378556,2.019306137890322,33.909706,-2.659944925630709,24.85653580744012,33.66350935944787,49.16997261493464,128.28324454080206,0.3840190000000005,33.57000000000002,1
0.8337127407381522,-0.021399005416403067,-0.4140170276089189,-0.0425427220425248,-0.0020508845572123516,2.0170307425084597,33.910095,-2.8519539380206758,24.751677961440997,33.68985051205254,47.95877397931352,-129.13009741220003,0.3840190000000005,33.57000000000003,1
0.8329078120198213,-0.017034160975299324,-0.4104318896998979,0.02233747584324726,-0.002912417736873005,2.0167005409504566,33.90859,-2.670994673297147,26.69424596541362,32.72078939954688,47.929338930433985,-33.77422652933745,0.3865770000000001,33.56999999999996,1
0.8340212470075854,-0.01959767032064293,-0.4121799190620429,0.03469600455642549,-0.0019102147181285854,2.0164762418223545,33.91049,-2.1269140435758067,26.01750398055843,32.95565428391647,47.56896112066616,218.1993909470689,0.3865770000000002,33.570000000000014,1
0.834246310031469,-0.016418907674060828,-0.4090711074269626,-0.04017731650244406,-0.0028867901545412762,2.014744262435642,33.910244,-1.7083155147518652,26.51217586269357,32.906058800736126,47.12905928913275,-52.90619719699008,0.3878560000000001,33.56999999999997,1
0.8354872077228436,-0.01984627227643524,-0.40858663889277796,0.002183315691047826,-0.002683136362096964,2.0134294763710248,33.910034,-1.3669323291507365,26.399222013079736,33.175124515691266,46.88249342045226,-68.30947326037145,0.38657699999999945,33.57,1
0.8324466804849692,-0.01842699876592076,-0.41252858088868827,0.04052989001122321,-0.00294462985658171,2.0146131743612594,33.90827,-0.8340131382188898,27.940112425161463,32.59660349003154,45.741080937424165,-26.385232394828137,0.3891349999999999,33.55000000000001,1
0.830969151630762,-0.018424555845462,-0.41750349167774825,-0.023405677352550718,-0.002601027249373744,2.01403266716242,33.90988,0.04198545057040102,30.42774390013939,32.93602089783622,44.92047019080195,-82.84055857325978,0.38785600000000064,33.550000000000004,1
0.8298144187541415,-0.014559224626240722,-0.4182083643150897,-0.03819463115846586,-0.0020790189745263665,2.0133755760193086,33.90943,1.1138785808222655,28.292714012145204,30.630208988232877,47.32834853323804,-0.8218262735571988,0.38274000000000014,33.54999999999998,1
0.829700234067371,-0.019175876974963393,-0.41860391026912647,0.07092650505560943,-0.002645731116912871,2.0139208707373006,33.91046,2.509782899644532,30.453519897817237,30.30620130905968,47.54473496048087,53.061282030245096,0.389135,33.54999999999998,1
0.8293059308156928,-0.020151639773273687,-0.41731562607991796,-0.006774213405905863,-0.0022268605210159827,2.014496517008145,33.909985,3.9872774750168825,30.468436372168913,29.530151154760503,44.916687783453405,22.014052732019444,0.386577,33.56999999999998,1
0.8289054305998397,-0.020020450657398166,-0.41901789622957186,-0.030831220280521758,-0.0034334779089661037,2.0152187595790654,33.913616,5.24756003374416,33.619511347019696,26.68753174944341,46.76721529232572,-4.003026254095268,0.38913499999999984,33.56999999999999,1
0.8378010406384255,-0.03358158134139881,-0.39432203092763685,0.09449529090226087,-0.00278909205167845,2.013204578575683,33.91392,5.894163133299311,38.74838722059923,20.428474596438814,37.10873895894609,3.6842374718505093,0.3865770000000003,33.570000000000014,1
0.8657803867298828,-0.03233452053533726,-0.3345906243701205,-0.038106644117685176,-0.0025591694388305483,2.017859353022274,33.91392,5.590478181229798,51.92909177494886,4.216495259422637,44.44647929521734,-19.247907936302227,0.38657700000000045,33.570000000000014,1
0.8864077094079914,-0.045904528124283285,-0.24743686137184195,-0.041005717959026834,-0.0013543009023689618,2.018703512302384,33.91648,3.420567721920016,42.982398874302774,-4.765630808441286,48.397916360459824,-24.686476350834354,0.38785599999999976,33.569999999999986,1
0.8916394906750275,-0.04164816137960065,-0.23431765781329753,0.06893954681592121,-0.0027266786402018192,2.0176727220215946,33.915966,-0.8370563853501651,36.932066224364306,-9.451013339765097,47.128289326781704,27.418713328950496,0.3891349999999999,33.57000000000001,1
0.9042726909719769,-0.04653924766798514,-0.18014199237998346,-0.046974295428826626,-0.003514695345713799,2.018386665097075,33.918056,-3.993368258839204,35.08723981886354,-11.162662510193138,52.71084886729918,-8.26762249434199,0.3891350000000002,33.57,1
0.9121628485866478,-0.05908067547962995,-0.13969481181979065,-0.027379747916577043,-0.0029227150111137195,2.0164471204373737,33.91759,-5.500117528548314,34.29629109169258,-8.762341577888105,51.118398685597015,-28.664778327901242,0.389135000000001,33.57000000000003,1
0.9108115723603494,-0.04521566732294533,-0.1340121186144851,0.06909814960725492,-0.001581510598502894,2.022636128182142,33.92027,-5.147031047203001,40.76218610653407,-9.45339814443882,48.71338733302459,45.91103531686587,0.3904149999999991,33.58999999999996,1
0.9113820197205376,-0.04074654480088882,-0.12528353338679948,-0.05641879403516274,-0.0026938703922102943,2.0242420490507014,33.91952,-3.447247158984311,39.91075612962685,-8.633598549409601,46.70865648924194,-10.788255621602405,0.38913500000000023,33.59000000000001,1
0.9105049644018481,-0.040159513997424255,-0.1301911037292971,-0.0002518353737799693,-0.002776454725263794,2.0252350194111015,33.92054,-1.9663726083209319,40.79989368809019,-8.986910462333139,47.83651802441544,-76.93003811609472,0.39169399999999954,33.58999999999996,1
0.9078961870065765,-0.04224230156798105,-0.1360340924405998,0.07278929948050544,-0.002060432969515382,2.0278747693405466,33.921738,-1.0612247689209315,39.8377555249814,-8.986119386028088,46.71409460606014,46.15980903086346,0.39041500000000035,33.590000000000025,1
0.9092103564286541,-0.043632604878083826,-0.13710146436652393,-0.041370789028467865,-0.0020859849891622932,2.0281398021925243,33.92195,-0.5945884591692846,40.872584590313615,-8.54899755487449,47.34345255630646,13.39770500585231,0.3916939999999999,33.570000000000014,1
0.9077217227225928,-0.04361876522422486,-0.1380661569141351,-0.014353939786003708,-0.0027048024200040845,2.028969488915826,33.92387,-0.3649964305372176,40.25173583280155,-8.938507865178359,46.67133839004499,6.699345983853367,0.3840190000000009,33.57000000000001,1
0.9094267951352798,-0.04108966225407349,-0.13919166894767515,0.05990915715811515,-0.0030802467542688384,2.030424396862973,33.923817,-0.13496011734050842,40.85346148955681,-8.992710906946364,47.30798985223308,23.094196571488045,0.3904149999999998,33.57000000000003,1
0.9087353678498133,-0.04376159112195687,-0.13920310240820846,-0.038653482005934686,-0.0036542610785998708,2.0285582669507467,33.92129,0.029391129074803877,40.27278986975805,-8.631379672683902,46.71233923031387,-4.5375445317090595,0.389135,33.57,1
0.9090954965388665,-0.04359859345122285,-0.13588003999997667,-0.03981562908833159,-0.0030696356135461412,2.028512437619003,33.927708,-0.07361235083899298,40.59379876877327,-8.741966739865836,47.266626691985834,-17.754722524521053,0.3904149999999997,33.55,1
0.9096709682307341,-0.045083511150424166,-0.13043605372784892,0.07459062843247943,-0.0026843024704270822,2.0291248625111935,33.9278,-0.2249236210392951,40.044803936021715,-8.874898000456573,46.974940045260304,36.769178996631126,0.3904150000000005,33.55,1
0.9109020074792766,-0.042218127831793156,-0.12854084466856835,-0.0328141482303356,-0.0022172269373894053,2.028785257171775,33.927742,-0.5390153719557721,40.58121574302802,-9.000668327441932,47.30970155289534,-5.78071861112604,0.3904150000000002,33.54999999999998,1
0.91054359613627,-0.04240357147286267,-0.1327446469179799,-0.06177149226188888,-0.0026101528109093637,2.0265928620453435,33.92786,-1.057056224285532,40.72310663437796,-8.834118909381873,46.87217365940286,-17.67215861175335,0.390415,33.550000000000004,1
0.9084529408567,-0.0418297503605371,-0.14365254558733379,0.026041257036676577,-0.002464705586629332,2.029516517455547,33.932716,-1.116358156475968,41.166916437578934,-8.955895386468752,47.1753474322334,26.89336261644112,0.39041499999999996,33.56999999999999,1
0.9068234813626285,-0.04039780442734889,-0.15162684111768746,0.040846955831794096,-0.0019147951238966036,2.0300775633283537,33.92939,0.33732928473692236,40.84052015653006,-8.968731913828188,46.686134992348805,10.954758480439418,0.39041500000000023,33.57000000000003,1
0.9066980275149724,-0.03788560511144011,-0.15511245770697105,-0.05498895584597717,-0.0028519564177793594,2.031364473483947,33.9334,2.4584236198944094,41.15426329132494,-9.034024226086926,47.199708140823866,-20.03954814987756,0.3916940000000003,33.57000000000002,1
0.9058948776425989,-0.041777754467144754,-0.1569128081778811,-0.0017371340325583622,-0.0022170536040097104,2.03079362725115,33.933495,4.359328615902757,40.850804081167205,-8.966569373908447,46.81356469322264,18.691723479095447,0.3904149999999997,33.57000000000001,1
0.9055779633751219,-0.04081315650985582,-0.15594069417720388,0.0768589024039712,-0.00317894610863083,2.031133809499937,33.932243,5.6591748215104865,41.144063718396424,-9.032467058911738,47.17715773998345,12.14769298967451,0.38913500000000006,33.54999999999997,1
0.906007672464338,-0.0427627097833684,-0.15819016947528114,-0.030220263542643688,-0.0021081727025498167,2.032633539490581,33.930157,6.14502213702576,40.861219370969415,-8.968394787014214,46.83080268407492,-12.66556075272772,0.3904150000000011,33.55000000000005,1
0.9076017217959265,-0.0396883404592022,-0.15330937146652213,-0.04903024557829455,-0.0019695219470446733,2.0314761491848117,33.932133,5.1871253490190705,41.13317209211309,-9.030942748587288,47.161993538853615,-3.8941033097576407,0.3891350000000004,33.550000000000075,1
0.907072080478575,-0.04374100236689614,-0.15310961473292767,0.06982060433692196,-0.0015186675234284332,2.03273535065644,33.934063,2.9578261385929117,40.873174746552465,-8.969497782712672,46.8446602781792,29.13610107909429,0.39041499999999946,33.549999999999955,1
0.9061721549863323,-0.04090874816971449,-0.15621013414719265,-0.006068855424282128,-0.0032350675188291818,2.032456757104992,33.93596,0.6285199926146827,41.11863913973532,-9.030297937265468,47.149127305738396,-0.42628651217277524,0.3878559999999998,33.57,1
0.9069373688669283,-0.04148128843349433,-0.15490017739834905,-0.0500985919651962,-0.0032286930721693386,2.029406209369366,33.93556,-1.4761115540650287,40.89543288360529,-8.969639548347832,46.856715587558384,-11.306806764887504,0.3916939999999996,33.570000000000014,1
0.9071066551822041,-0.0434623658535171,-0.15340933470107637,0.039604601716546915,-0.0025420740903483708,2.0304004073410105,33.93253,-2.8353157553660515,41.04822298930763,-9.030759151159872,47.13775598773369,13.46490284308517,0.3891349999999999,33.56999999999999,1
0.9060198249373138,-0.04097918025421628,-0.1560572824235516,0.02134992260525214,-0.00232713282271534,2.027562787677376,33.93647,-3.4246430995306643,40.79575488149798,-8.968352304503002,46.86750436974355,2.8662866352493053,0.38913500000000006,33.57000000000001,1
0.9062958341433458,-0.04065394400240677,-0.15660190451121506,-0.06980313895410012,-0.0031933657302402425,2.027976068356645,33.93967,-3.644310635528812,41.14821015965566,-9.033390677500263,47.1274612124514,-28.317300859771077,0.3916940000000002,33.54999999999999,1
0.906977822861398,-0.0426153673531409,-0.15426585928994965,0.016590627861251237,-0.001775915872054186,2.0255444809956074,33.93646,-3.54874257483954,40.86524416393508,-8.96297335116038,46.87738839090591,10.41767975260413,0.3916940000000004,33.55000000000001,1
0.9065201660408414,-0.041073542288844814,-0.15427144157792405,0.05358378190284621,-0.002323129474954428,2.028425282512789,33.932987,-3.062635718283118,41.12749399986159,-9.046939397596448,47.11790318207205,11.90260264180271,0.38913500000000023,33.54999999999998,1
0.9057595125198041,-0.040343444399030905,-0.15822363042550983,-0.028770115492040844,-0.0026713699769487175,2.025079153410601,33.93659,-2.477069900174337,40.877626765690515,-8.862830376820481,46.88671530644255,-25.833485290800823,0.3865770000000003,33.55000000000002,1
0.9062628345427587,-0.04126039848235004,-0.15617819331542768,-0.02685708835931771,-0.0026997751661003624,2.024921690048842,33.933487,-2.1446050091996347,41.11828235542472,-8.988465856936394,47.10868829001266,-6.649057201392746,0.38913499999999934,33.54999999999996,1
0.9070263648202216,-0.04229532380919726,-0.15527025813273898,0.06306151309484717,-0.002448189516860255,2.0235712207935874,33.94007,-1.722335839692875,40.88521083245876,-8.979174134092096,46.8959890553977,23.676478341362248,0.38657699999999967,33.54999999999998,1
0.9049114065738898,-0.03954420431473522,-0.160721263420275,0.006063414608483322,-0.0024346594551513437,2.024455792638285,33.939754,-1.1981908656625249,41.111688208609856,-8.82370895139603,47.099070375142865,-14.705186762142283,0.38785600000000064,33.55000000000001,1
0.9058449628590789,-0.039780826951974775,-0.1618221663903637,-0.058876655494830954,-0.001675807707981795,2.0206831659098112,33.937775,-0.8952301362651168,40.89113228171611,-8.924196925354286,46.90651975875745,-19.924079267507707,0.3878560000000002,33.550000000000004,1
0.9065318846385831,-0.04030975689861477,-0.1596969551511225,0.025919534699587087,-0.002100070326324666,2.021197647732418,33.936775,-0.5676774123447158,41.106260609474326,-9.03454633530286,47.08619327281024,19.823056257092375,0.3878559999999998,33.52999999999997,1
0.905167490396326,-0.03908502696742108,-0.16407372038014245,0.050347783963248766,-0.0028236993462210083,2.0218388134660783,33.935497,0.20419780900172474,40.896176557224734,-8.970948487096564,46.80214753696668,5.988328937899739,0.38785599999999937,33.529999999999966,1
0.9048564507472945,-0.03621858637887359,-0.16466567119398073,-0.03620689748117271,-0.0031609368140353856,2.021891405054316,33.94091,1.3666185339856802,41.101526362694926,-9.02752132332423,46.97957503522664,-28.980268618905644,0.3878560000000004,33.53000000000002,1
0.9049785703588372,-0.03913420750488624,-0.16316367335348722,0.0026372835030449722,-0.0027899667070986254,2.0202048628197367,33.94284,2.6791667808721877,40.90065213699365,-8.972945754970993,46.873536398669934,6.820813025889982,0.38913500000000006,33.529999999999994,1
0.9044550398071581,-0.03726711109426616,-0.1620659489850323,0.07646101420800332,-0.002549797896352615,2.020841910665075,33.9411,4.108580433823911,41.097271884868164,-9.026965577668049,47.10193586900219,23.796363949760053,0.3865770000000004,33.54999999999997,1
0.9059230314014091,-0.036180096085417494,-0.16132200187020332,-0.07830645549620174,-0.002741211342051344,2.0202295421734378,33.942707,5.129039427716256,40.90471386867995,-8.972995517078816,46.90693786880178,-15.24285240865314,0.3878560000000003,33.55,1
0.9063141100198996,-0.03837441399540048,-0.16040838544614744,-0.009917872636593524,-0.0023759425595674508,2.0222925344817195,33.94284,4.9363411399777615,41.09338106157974,-9.027025060428363,47.08736275583917,-8.800124312934088,0.3776229999999999,33.54999999999996,1
0.9049896596639275,-0.03987891259039641,-0.16381155742773465,0.058921417287381206,-0.0027339276573403876,2.0200734259018445,33.937763,3.4090247704393133,40.90845070608771,-8.973131182057491,46.91713844620875,23.049348173822747,0.3865769999999996,33.54999999999997,1
0.9058114615876572,-0.035944762181872945,-0.1629689796360537,-0.07044525829958345,-0.0025278678697176417,2.017813713621404,33.935246,1.2351188929721473,41.089785277510224,-9.026231219788565,47.07895320318975,-8.86740859474122,0.38529799999999986,33.54999999999999,1
0.9049742175102423,-0.03677844736105946,-0.1645349381722606,0.01649781140034172,-0.0019097216740567966,2.0183029468088436,33.938763,-0.8191290621061084,40.91191483417591,-8.97579327966921,46.924611158322136,-15.140994241330489,0.38529800000000025,33.550000000000004,1
0.9058118356824493,-0.04167649049103692,-0.16057644317723072,0.0492961220331838,-0.002140158478098653,2.0162993408934025,33.944706,-2.1229273926560706,41.086446869634486,-9.01579369135712,46.9470475543821,12.979255356916955,0.38657699999999945,33.549999999999976,1
0.9051675429859923,-0.04197647185364932,-0.1636023523406351,-0.06538350826186348,-0.0019499535704773378,2.016975745110748,33.93697,-2.939309216466356,40.915129694329515,-8.844057253136336,46.93113451393409,-12.653320123446564,0.38401900000000067,33.54999999999999,1
0.9052016077148065,-0.043793119483447766,-0.1629187611131906,0.024772228941156993,-0.0026566021946671787,2.014760787443819,33.940655,-3.351399926082633,41.08335789868784,-9.048670221081741,47.06581019984652,-13.39807739170494,0.38657699999999906,33.57,1
0.9060259259720538,-0.04059123675605607,-0.162336315409736,0.041030813817976526,-0.0026138783631560526,2.0157297418966205,33.94403,-3.201653584291046,40.91808454345111,-8.956621820808232,46.93712769320241,20.275487930383846,0.3840189999999996,33.569999999999965,1
0.905069332476255,-0.040967155954761005,-0.16459780122751713,-0.06469727041384452,-0.0027733843911147494,2.0163644496289264,33.942123,-2.7847805691374825,41.08055364393165,-8.917239265743541,47.060067088001254,-16.71488956683295,0.3852980000000006,33.570000000000036,1
0.9053395590249874,-0.04277020970940212,-0.1636424858482663,0.010986020740714234,-0.002271091996233033,2.0140789047301313,33.940487,-2.384582476103228,40.920709518539766,-8.95770570979263,46.94255274971783,-9.649569461400354,0.3852979999999993,33.57,1
0.9055390401518197,-0.04172327234837418,-0.16366296521899515,0.0467090121229396,-0.0022427716834169022,2.0142230975289426,33.943653,-1.9891401374409101,41.07815570722083,-9.042898968427695,47.055137328691245,27.428588792348364,0.3840190000000004,33.55000000000002,1
0.90481475425777,-0.04004266706267181,-0.16660130642870086,-0.049772597108675,-0.0025089048364450293,2.013688563768536,33.940975,-1.5117105697179818,40.92280126440663,-8.956164842938469,46.94657537497278,-13.48160208546684,0.38401899999999906,33.54999999999995,1
0.905344377939519,-0.041042190521736445,-0.16535171285763076,-0.009057227330858088,-0.0022482114907988494,2.013822082682978,33.945045,-1.1455541345016536,41.07650407954475,-9.04501275413398,47.05303286152883,-7.792831294085356,0.3840189999999992,33.54999999999996,1
0.9051858356696916,-0.04159561251106309,-0.16654232022148194,0.06542915757857096,-0.002392994147534476,2.0125758862181953,33.93925,-0.47100417046752535,40.923776315045274,-8.953608100101256,46.94383283198928,29.77731397213257,0.3840189999999999,33.54999999999998,1
0.9036489305485527,-0.03853545204222733,-0.17183308651189763,0.003913787919540978,-0.002428534672728475,2.0148699507684094,33.940113,0.877410051681282,41.07665221345638,-9.047956537920031,47.072727771977334,-12.520085813320078,0.38273999999999997,33.529999999999994,1
0.9048811032066199,-0.03912793620810768,-0.16976816575002335,-0.04979499097872346,-0.002652341176987377,2.0139872036278863,33.9386,2.332258656161068,40.92157029131317,-8.950296104048947,46.57397690132197,-14.539421201499248,0.3814600000000002,33.529999999999994,1
0.9042350373117503,-0.040948453884710294,-0.16520040232835442,0.054255161001188046,-0.0030092400075107943,2.0154578264240235,33.943844,3.8089352016304856,41.08321877594634,-9.051639955698706,46.14135381603437,25.957316346232957,0.3827399999999999,33.52999999999999,1
0.9042350455551565,-0.04046747341342771,-0.16558439620624904,0.04011898663909648,-0.00267635804544279,2.014716360479642,33.941326,4.993228651975471,40.90302752814315,-8.946222431344921,46.32589658218108,6.601895409170084,0.38274,33.53000000000003,1
0.9050619686310692,-0.04033362931598788,-0.16682113897855208,-0.08432335584597239,-0.0028610415760185743,2.0133602663090424,33.938805,5.225493460595235,41.16844629370917,-9.056135966319927,46.36194498477611,-23.036472224529597,0.3814600000000001,33.54999999999999,1
0.9052190076260561,-0.041749871384265745,-0.16416370149730197,0.019470353337558567,-0.0027340638538688304,2.012086209610031,33.942406,4.001546404871048,41.14425950143682,-8.941258794700595,46.478726509885085,15.278490708075052,0.3814599999999994,33.549999999999976,1
0.9046526146924674,-0.041797014442670345,-0.16772776565570457,0.04895630572708595,-0.0032325992711317846,2.0135064903215683,33.940292,1.9761807001126983,40.99446937942909,-9.0616274657016,46.715993487565186,16.109400777756978,0.3814600000000001,33.55000000000003,1
0.9049420574605842,-0.040830427313682215,-0.16866174851048862,-0.0598267232909987,-0.0028685858729239943,2.0137664588142807,33.93687,-0.12369622999127473,40.99114574054665,-8.810160608652284,46.90587366144732,-19.620634376705468,0.3814599999999995,33.54999999999997,1
0.9049964415856081,-0.04202796858280159,-0.16629344015031947,-0.0066436472050227,-0.0023539411094713625,2.0163079964507196,33.93937,-1.7962043399936922,41.0048556839124,-9.06843598574636,46.73451103462456,-4.338302413389631,0.37890200000000046,33.529999999999994,1
0.9048905676964315,-0.0430024709130733,-0.1667794718684798,0.07246266825961463,-0.0025214741640584306,2.0184580363780706,33.937767,-2.54460544922204,41.08285103924806,-8.927502854975975,46.28319962118394,19.499936332328772,0.3827400000000004,33.53,1
0.9039953394577542,-0.0408664573031625,-0.16912852966325084,-0.011685517919654373,-0.0028002006082790904,2.0173203836730416,33.937016,-2.7307317233521395,41.06846560261773,-9.077135100024538,46.80486630562494,-16.640277401661233,0.3801809999999997,33.529999999999994,1
0.9050297644911159,-0.04230761715310718,-0.16683569692091688,-0.04376255637242712,-0.0024374670015592645,2.012220940835571,33.93911,-2.8061896207883916,40.95017244311386,-8.917484147934756,46.74008322788385,-14.452354243808834,0.38018099999999977,33.530000000000015,1
0.905012912259405,-0.04281975027338758,-0.1654396389450961,0.041038998376817515,-0.0020109156168433263,2.012964099933094,33.942417,-2.6387834398790897,41.060887709621454,-8.963903119893788,46.64757844036864,25.00742070036753,0.38018099999999955,33.500000000000014,1
0.9046278221645452,-0.04252635674262348,-0.16849860068738337,0.021631326320825924,-0.0021229626840295656,2.0110326372816036,33.939053,-2.1001391970955545,41.09815077572685,-8.90324018776647,46.31022742553755,-2.156239317871393,0.3827399999999999,33.49999999999999,1
0.9038961125394828,-0.04095885236026164,-0.16920298268098163,-0.05946781701799709,-0.002787789001044866,2.011168657675682,33.93739,-1.7292853968756383,40.98161030528833,-9.10702355806093,46.41529502113109,-25.706452764595053,0.3737849999999996,33.49999999999998,1
0.9052006258171597,-0.04303612186544091,-0.165579186433539,-0.005326691496499881,-0.002505108877753443,2.0096851294387044,33.93601,-1.6462027369233243,41.02229803508397,-8.87794355639477,46.24647359874184,18.107975313578343,0.3801809999999992,33.499999999999986,1
0.9043142452907336,-0.04184205298606811,-0.16792203549167278,0.05770119249022419,-0.0028239002349191578,2.0086366881138717,33.935875,-1.4310521514186894,40.95809123627984,-9.150569978826077,46.60498887453837,18.110759473212667,0.3814599999999997,33.52999999999996,1
0.904674965433384,-0.04155122390789276,-0.17015420947707957,-0.023301092802944814,-0.002650048449374592,2.0105477448054256,33.933205,-0.9626105054147988,41.11588557228363,-8.717617675087737,46.47451593449933,-22.586819297101123,0.3801810000000002,33.53000000000004,1
0.9044673394442085,-0.04140496413454626,-0.16916939555883131,-0.044235331013842354,-0.002439725124140268,2.0094151570632697,33.941204,-0.6633193715186244,41.16237541584788,-8.974628419242507,46.2148754893045,-7.283225144540032,0.3737849999999996,33.52999999999998,1
0.905046697860247,-0.04348188174303201,-0.1693190661398827,0.05076844979059863,-0.0024969332246589098,2.0088606298192135,33.934322,-0.2773517455321704,41.04599845505716,-8.92774466734985,46.08299607877843,26.132818525917983,0.3776229999999997,33.53,1
0.9037425252564407,-0.03645771761027832,-0.17295483138700854,0.04367300827025738,-0.002775758945557164,2.0091979635656885,33.93235,0.6421440710415027,41.288339198310624,-9.095072882749054,46.26158275358054,-5.282526373845778,0.37890200000000024,33.530000000000015,1
0.905050395923572,-0.04218310014768248,-0.17380655895219058,-0.053313890737081156,-0.0024146097261562196,2.0082246051980293,33.935123,1.938245890627596,41.695506727892685,-8.745148443632415,46.101421366352184,-22.363337258816987,0.37506499999999976,33.52999999999998,1
0.9045820424213691,-0.03683072834126235,-0.17003965420301312,0.005240595283454387,-0.002027794874287023,2.0088620779681676,33.936497,3.2942052985215535,41.856164497306516,-9.340453074085701,45.92972140894478,14.630807516834308,0.378902,33.52999999999998,1
0.9050538705946582,-0.02356895954001189,-0.1711928382369439,0.07457010009977298,-0.0031288583935348813,2.010953416794953,33.93564,5.244412244810334,41.28440536313863,-9.685203949440883,46.120269341838664,16.45326424130753,0.37762300000000015,33.52999999999999,1
0.9012798782430288,-0.01711478504071598,-0.1884352089376382,-0.06730688674641058,-0.0031436076462597277,2.0095896856906967,33.936287,6.387180739128426,41.07179219165513,-10.939232577166848,46.22368451982249,-17.145989308849835,0.37762299999999926,33.499999999999964,1
0.897161925205103,-0.005789970063604372,-0.1936675166935456,-0.0286762709499018,-0.0017266924308776137,2.0080889248727507,33.937355,5.089734413488656,40.947390001566546,-10.631619041734663,46.99454890240189,-3.1872736648324094,0.3789019999999999,33.49999999999999,1
0.8910490087476833,-0.015092929395775894,-0.23525108462276814,0.06450913152738821,-0.0023900620263411546,2.0105882786577456,33.93913,1.9034360270153554,38.93890853342299,-10.708040458924202,48.51840729189314,17.98058141813967,0.37762299999999926,33.5,1
0.8826408560841805,-0.0003383425627490695,-0.28226672488724797,-0.059133664339101444,-0.002515712180450966,2.0101189019640966,33.932674,-1.9708988939702181,35.3140256322644,-10.935521506210115,50.34596394477983,-3.2321393211320237,0.37890200000000074,33.50000000000003,1
0.8483548252433819,0.0066067258493773574,-0.3607382935822905,0.0023989298655978583,-0.003318609921482919,2.013774964651906,33.93373,-5.086698830700822,32.19395931330957,-8.812644347856235,53.63669882513478,-3.1809167483823866,0.37890199999999963,33.52999999999999,1
0.8222908742943796,0.037282721798094526,-0.40950474696715716,0.056447519279897815,-0.0022503885706693346,2.014285667486583,33.93801,-4.4512168942677866,27.327504357990083,-5.3518785111366265,60.26037798461537,23.78340917440587,0.378902,33.52999999999999,1
0.8358146425930482,0.0373607036194823,-0.3888649008084716,-0.05520124220771113,-0.003597386623121252,2.0126340992948197,33.936367,-3.1239696872585934,28.224046090691086,6.748929840251291,57.11249544420045,-10.453289441924431,0.37890199999999924,33.53000000000001,1
0.8428429945199664,0.05658472042661079,-0.37569990839646616,0.011525968132678026,-0.0033471997253875785,2.0097524912704565,33.93918,-3.8182228159557243,39.46288670222334,21.59602088745635,34.54126295634494,-21.107938325455518,0.37762299999999993,33.52999999999999,1
0.8388965931768324,0.07052045586041746,-0.3752399332883033,0.041859173626828824,-0.00221193372691724,2.010466037071404,33.93599,-4.279743019778148,41.486245394824806,32.36427655609598,32.62248542759987,7.062762378845525,0.3763439999999999,33.53000000000001,1
0.8382167421018081,0.06317952445332432,-0.38044902307861134,-0.05793502878533898,-0.0027165115529319975,2.007873151774044,33.93393,-4.287176389585554,34.716187518345976,23.33757156589473,44.60736865231355,2.562458029980484,0.3712270000000003,33.530000000000015,1
0.8384734788912025,0.07259232267898356,-0.3768647561591186,0.00819712823952388,-0.002113523514977479,2.008794498098554,33.931778,-3.3571854635134604,40.197164477982454,25.26278797101921,45.794964269850645,10.845292577025575,0.3725060000000002,33.53000000000004,1
0.8405326731110446,0.0489648724390998,-0.39083494154422005,0.04531436016534075,-0.00254486910443412,2.0093953148404666,33.927563,-1.14780088204796,43.55081030418164,24.133722537546607,39.07424819030606,99.48069851989122,0.37122700000000025,33.53000000000001,1
0.8313120937582955,0.04332034166026077,-0.3998648469636244,-0.04969824878770198,-0.0028031842974234745,2.0070867518488416,33.926228,1.4813295179088486,43.39107503077361,24.865518873311064,38.85231492990787,-88.55893773256727,0.37122699999999975,33.53,1
0.8339629379686094,0.03827614530799583,-0.35939501482266695,0.020909830313911255,-0.00265551818195031,2.005742447075657,33.92391,4.109206360045373,45.23152365707393,23.69783287091567,35.92405255835293,-51.614939085701636,0.37122699999999975,33.53000000000001,1
0.8580877852613381,0.04232402069445818,-0.3618689097195611,0.0817965674719638,-0.0020068611057262845,2.0082504725533052,33.927834,6.38378103833753,47.5308717635577,25.259213113857104,33.69565166938073,5.14602517501627,0.3712270000000001,33.53000000000002,1
0.8464923752653336,0.02993560349476777,-0.37360337950950917,-0.07449199055792834,-0.003278142017797114,2.005403213535193,33.921524,6.9940745000959295,46.44847408099597,25.356079625982716,34.22179526764167,-98.3820715163513,0.37250599999999967,33.52999999999998,1
0.8458963452698847,0.022025709634308062,-0.3708500046755918,0.03217598336275506,-0.002853164363894964,2.0055068560700557,33.921783,5.8832045711690615,47.12099560797865,25.95916327156513,34.436138388207944,27.32211733602121,0.3725060000000005,33.53000000000002,1
0.8456148413697824,0.02320601365547781,-0.3739393911467038,0.038768251346452336,-0.002474516865662985,2.0066905597204427,33.922733,3.6303944132831787,46.818976986247705,25.71359742707049,33.85888309221694,54.17900408026226,0.372506,33.53000000000002,1
0.8482690855800832,0.026550206787786277,-0.3677303433204809,-0.07409491162030163,-0.002810318584148262,2.0029163351068195,33.920128,1.1826757550908364,47.010980377832034,25.63374332097155,34.192169294764035,1.4181435662442097,0.37250599999999967,33.52999999999999,1
0.8460674084702038,0.02544122837082591,-0.37037987024781177,0.03515563086183665,-0.0023057964972334846,2.0015560493546785,33.917683,-0.7674490856005787,46.61687246762082,25.316149825476312,34.362920714750764,-12.030272902509685,0.372506,33.53,1
0.8476426736337768,0.02451700065695145,-0.36798183939240803,0.02414419708619149,-0.001860389715981935,2.0026655576263876,33.915394,-1.67283878862201,47.02048501165756,25.666443481552328,34.44022452872472,21.366402809578585,0.372506,33.50000000000001,1
0.8469469862731591,0.02342292330594188,-0.36973671037715944,-0.05214678598627157,-0.0027229103349617994,1.998784892395512,33.915977,-2.082439442156873,46.78508269566642,25.935771922983676,34.04959579363435,-15.311708056180311,0.3737849999999998,33.500000000000036,1
0.8481441756762781,0.024808272992009342,-0.36653240282571964,0.026321229383663127,-0.0024726751722716927,2.000374089708261,33.912647,-2.1336850087563146,46.76705217171339,25.606891323484124,34.33665040897678,2.3044843047764854,0.3725059999999996,33.499999999999964,1
0.8462290017209344,0.023276717118270465,-0.3706396059620113,0.013567655668133605,-0.0033170463603659104,2.000378958841414,33.916096,-1.8804761746190488,46.59308095460043,25.533074123892288,33.99412858481428,22.75288517868285,0.3699479999999995,33.499999999999964,1
0.8475028100336047,0.02470153082439869,-0.3693472723104269,-0.054125421059874404,-0.0027990019372928485,1.9995250383195113,33.909714,-1.6486315623554424,46.95613959031258,26.044376782121248,34.12931751893342,-14.542550022026186,0.3712269999999997,33.53,1
0.8473554436042705,0.02320225324383508,-0.3686665353427048,0.008312355971829478,-0.0026806498150686794,1.99815345821295,33.90967,-1.3921475913565555,46.95272806818293,25.794799193749597,33.88847327383431,0.03346932176198514,0.37250600000000056,33.53,1
0.8473351758446355,0.024242638030839002,-0.36854893072398237,0.047911167258544135,-0.0026527063893724855,1.99842573665187,33.91187,-0.9972244557017104,47.06504134500587,26.11814718758315,34.10283214857469,25.5114355423917,0.3725059999999995,33.530000000000015,1
0.8475667408334118,0.023358653465848707,-0.36964886760110466,-0.028452241533649218,-0.002668695629743871,1.9990922684601915,33.90549,-0.7456796582088703,46.89982768705445,25.861781888561797,33.90281340331212,-14.881746539230146,0.3712269999999995,33.52999999999999,1
0.8476547663415088,0.025390225707257866,-0.36785437866785353,-0.026321303639072983,-0.0014151864414057894,1.9977840240532416,33.91106,-0.6452739532269075,46.936196402164576,25.6332054590825,34.093627877091315,-5.96691788138644,0.3686690000000004,33.49999999999999,1
0.8457874828138409,0.025081286364481786,-0.3706952850869817,0.05232352396792626,-0.0028740033988840005,1.9993811963192947,33.90904,-0.2559297432400357,47.010786627903755,25.61170102761674,33.90803596131216,22.326886325271747,0.3725059999999994,33.5,1
0.8451666348365052,0.026099050329036578,-0.3738463083352541,-0.00518875413527861,-0.0033159244478305045,1.998582818548371,33.90697,0.586989920641767,46.88480599033836,25.460842123547877,34.299114288405924,-5.283003955859058,0.36866899999999975,33.499999999999964,1
0.8442959667763682,0.02725524126440358,-0.37472081139460656,-0.05074754194769224,-0.0026296376711718392,1.9981131475711351,33.907,1.5219997539883654,46.81742579934251,25.05382554230525,34.35757561345268,-16.92070861445404,0.37250599999999956,33.49999999999999,1
0.8454500919937636,0.026301252548034764,-0.3731352591240505,0.04349061344900512,-0.002336885957848803,1.9976645736643712,33.904346,2.534977721843046,47.0558920188477,25.023950714999692,34.6358510785552,18.6720422772201,0.37122699999999964,33.499999999999964,1
0.842676371924421,0.026989452519244006,-0.38006634455190114,0.030016853829850684,-0.0032184355155389635,1.998532295932044,33.90455,3.473126379281808,46.74865433336505,24.971918087762912,34.769424221521106,4.692946795251773,0.3725059999999998,33.49999999999999,1
0.8431112421176722,0.028116519561489816,-0.3767025179088327,-0.07283886418445082,-0.0019331050674410773,1.9978586287488462,33.90106,4.067013924895731,46.467987767561084,25.02210167065104,34.97817772535977,-20.704178746362068,0.3725060000000004,33.5,1
0.8450982864233637,0.02648858323483685,-0.36998047767290243,0.052938855478886444,-0.001702081482292523,1.9988175853383634,33.903458,4.325115856230514,46.40478044370536,24.998716374756775,34.76552060708826,3.0400891472199443,0.36994799999999955,33.49999999999997,1
0.8456157774292259,0.0269113252533001,-0.37266080517840067,0.035230494314144184,-0.0026414029168466296,1.998084202316077,33.90193,4.179933385836324,46.60982546084168,25.329756815108254,34.82440001749927,15.653182028794062,0.3699480000000008,33.53,1
0.8467561290541499,0.02553307141019268,-0.37067006329438973,-0.07236966229780531,-0.002753943082516222,1.9954572560878185,33.90259,2.9520774472335316,46.474405078437144,25.468769633262873,34.15885706242356,-11.595828696684721,0.36739,33.53,1
0.8473779612342057,0.02403474712043112,-0.36910119641877176,0.057516956643394866,-0.0027030322307173746,1.994606563150109,33.903793,0.8492959759233335,47.03939334385767,25.713568188676405,34.39466904463922,-0.5523042558627113,0.36866900000000036,33.53000000000004,1
0.8459246160210101,0.02276000957815937,-0.3737500780763475,0.00537334256712005,-0.0020370503312277634,1.9958436095911696,33.899956,-1.1502655484899247,46.79792032481995,25.895559233738688,34.08850794478339,12.417104467997499,0.35971399999999976,33.53,1
0.8464610242735446,0.02509149694656796,-0.37205444267700255,-0.04215534805227146,-0.002934119767209086,1.9930039447463184,33.906055,-2.859161635302847,47.11698650363361,25.741391885028243,34.04877221053214,-15.077888344671752,0.36866900000000014,33.49999999999999,1
0.8459499162431021,0.02371896229170989,-0.37127335029001535,0.048969648438328496,-0.0022651756174835933,1.9932519716471226,33.907555,-3.9749070555761006,46.90899069366244,25.856983709809814,33.94962717315014,-4.655459717041403,0.3686690000000001,33.50000000000001,1
0.8457264983246843,0.023834751166193432,-0.3730294658275416,-0.012156186374978013,-0.002384432730466174,1.9921847672295956,33.902763,-4.365683692620501,47.066948104111255,26.082144706886837,34.051121327724765,8.020463537912901,0.3686689999999996,33.49999999999999,1
0.8460564003064227,0.02285755163684218,-0.3715452119468512,-0.03425502294016127,-0.0027168152461510466,1.990406073639645,33.903305,-4.420676079006211,46.9732437000004,25.953189324025956,33.944434798535546,-26.550007272115856,0.3673899999999995,33.500000000000014,1
0.8470027946198592,0.024161989477897154,-0.37044281493687425,0.0535199916219483,-0.0019836936441477455,1.9915362583071636,33.8995,-3.969385893803258,46.84718136011497,25.921789670081676,34.117625445416984,-2.2438878732969334,0.3661099999999994,33.499999999999964,1
0.8459705710637874,0.022946319469408945,-0.3721475086134692,-0.01145026106351362,-0.002902347558597138,1.9896004575078112,33.90058,-3.2621525332315047,46.543760938870484,25.683052368986502,33.715565048795106,15.330985097257049,0.36994800000000067,33.500000000000014,1
0.8477202513409218,0.022096161961751862,-0.36871232282851646,-0.044729738409424236,-0.0014253122231601396,1.9915572757093212,33.904644,-2.6993021283366834,46.26474141797632,26.045266362913218,34.79723959678322,-25.163868301336468,0.362273,33.500000000000014,1
0.8480254628574432,0.02199334236281091,-0.36779235360443463,0.035627945676261506,-0.0017286879169346459,1.9893115911532524,33.898983,-2.1875408405617645,45.830998823121,25.763870391931505,34.94058786312964,10.850480187296434,0.36866900000000047,33.49999999999999,1
0.8475603778843113,0.022019104658408374,-0.3702223504214844,0.016616780927088255,-0.0030005112956464227,1.9886974684235978,33.900425,-1.6477124590439456,46.14315720607901,26.00046776654123,35.13662349123519,21.56773432460432,0.3673900000000004,33.490000000000016,1
0.8461499385131136,0.02304097946418352,-0.3730889130693004,-0.04908926644012381,-0.002593898375957664,1.98805116001485,33.897503,-1.0811082106107328,45.870141931539806,25.824793018019164,35.118686937091844,10.920262413542691,0.3673899999999998,33.49000000000001,1
0.8458979865837328,0.02368820343460623,-0.3731607487451553,0.017434826302405986,-0.002607654351802556,1.9878333216072182,33.898537,-0.40725095284548224,46.12123050034344,25.896664477900952,35.023044268703465,2.184841507065208,0.3635520000000003,33.490000000000016,1
0.8432481474711809,0.02374374023914137,-0.3797576692187708,0.059378635301541416,-0.002904766632267117,1.988479188316429,33.895515,0.7593022399067797,45.88518477502284,25.476970440483925,34.98906268194283,-4.0302250196721365,0.36610999999999966,33.49,1
0.8413561874739992,0.02629833043743697,-0.38272240374559396,-0.04401800757135871,-0.0025397157703981113,1.9886989787964091,33.89742,2.2048265605600723,46.10949238923795,25.1390818508611,35.3279922430966,-18.984001977596353,0.364831,33.5,1
0.8422963016689663,0.026607071850683783,-0.380702035180012,-0.017184915694653982,-0.0028320527335199473,1.9882692283399859,33.898224,3.538875313928021,45.89547407515905,24.904708526086786,35.72166454162864,-9.54284473329997,0.36610999999999977,33.49999999999999,1
0.8427811840340397,0.02647091894482042,-0.3773068207226738,0.07025432837807565,-0.0026502461999739647,1.9900423983259972,33.899406,4.684294353938259,46.09908018931791,25.087015666562092,35.4187684600623,30.687238400849214,0.3661099999999994,33.5,1
0.8415593754619319,0.028385124664112693,-0.3772873494609917,-0.034478140503764555,-0.0029880678769299085,1.9890798767063944,33.897736,5.316214778980278,45.90879031648655,24.922986325822425,35.36470945882458,-6.884416525093551,0.3661099999999996,33.49999999999999,1
0.8458747089460532,0.026360196515730953,-0.3719962105085015,-0.0452120892559151,-0.002784538751095556,1.9883695660289906,33.89829,5.090262281004558,46.06894259331623,25.28583609731159,35.238164888531095,-10.163782313386083,0.3661100000000002,33.49000000000002,1
0.8462174790159988,0.02373969392327584,-0.3733296500713022,0.0717746698854703,-0.0020582454444195548,1.989575821856763,33.89859,3.831171354950219,45.481187202204445,25.4400332910508,35.586955053196,16.264623833844524,0.36739000000000016,33.49,1
0.845115795469157,0.023817486736169263,-0.3740254658120171,-0.039380200095913635,-0.002509179574199736,1.9894499922765772,33.90264,1.7971402189042802,45.557915402242465,25.86161643060204,36.05259170588252,9.26928804036763,0.3661099999999996,33.489999999999995,1
0.8459734548634138,0.022795626902607447,-0.37279073361064285,-0.034532822153274384,-0.002843678618241047,1.9873093935588209,33.9007,-0.5165159099776842,45.56301694846269,26.006528940240383,35.73494775424017,-18.78432351064177,0.36610999999999977,33.489999999999974,1
0.845900196485913,0.02176173904960689,-0.3726362419988997,0.05602416531664835,-0.002779209995875076,1.987612273899503,33.899532,-2.243537303548933,45.70911293714697,25.909763257456575,35.75276538896145,14.302909952095291,0.364831,33.49999999999999,1
0.8447794517850558,0.021794823802897677,-0.37455862365292514,-0.017792476678794484,-0.0029709319179482612,1.9851250083627727,33.898273,-3.1955153131850045,45.09748814277964,25.938718156496908,35.77027756814024,5.319412667065656,0.364831,33.50000000000002,1
0.8468611595188387,0.022042697413632333,-0.3713065427831672,-0.018541059603376382,-0.0027517600519808352,1.9862275664641431,33.9003,-3.7327659007244125,45.76084450268321,26.06608487794449,35.76477941927362,-20.97203450909347,0.3648309999999993,33.49999999999998,1
0.845887706123156,0.02067884164106714,-0.37278217468602404,0.048196535959503656,-0.0015370543704438231,1.9848328709867042,33.900967,-3.731760945763093,45.63043590449663,25.84451694017724,35.443808663274126,11.465654877271932,0.36355199999999943,33.499999999999964,1
0.845139320195121,0.021645629740413026,-0.3742655584259017,-0.01674281345169847,-0.0027655276441428695,1.983780000994189,33.90022,-3.3405765172370003,45.67542548784348,26.005277515915,35.68671954807665,2.5996310589267346,0.364831,33.5,1
0.8460157607076977,0.021425197373883365,-0.371768766556594,-0.023384454670795855,-0.0029112897299666657,1.9802944230975559,33.90267,-2.88909010069449,45.08263892307922,25.97344172869981,35.94453179881166,-29.678261632028285,0.3622729999999995,33.49999999999997,1
0.8461611207323009,0.01990718858129056,-0.3715334060538895,0.05063008669547012,-0.002111656498430785,1.9817003803887578,33.900528,-2.349556053658648,45.39771381595242,26.032214801778782,35.978511516684236,18.106745142275006,0.36355199999999954,33.49999999999997,1
0.8457359417815543,0.02094079661410549,-0.37392848360954095,4.6993968322323924e-05,-0.0027367473805972285,1.9787811221463676,33.90113,-1.7414667905793058,44.881790025799525,25.965002871109004,35.8791491218078,7.46517432626657,0.36355199999999965,33.49999999999999,1
0.8470456345621182,0.020889088677702696,-0.37228547188245226,-0.042209183003182986,-0.002329443364854576,1.979659839932763,33.90064,-1.223550534131861,45.41677005650525,26.038971212558074,36.02246771780756,-25.62773627101785,0.3635520000000002,33.489999999999995,1
0.8464984934999809,0.02038113732457683,-0.37192845315070455,0.029774103579809343,-0.002560565989290385,1.9774896768136276,33.899548,-0.6641287929526777,45.179978316871214,25.911978567704363,36.14308675353376,15.838493120231876,0.3648309999999994,33.489999999999995,1
0.8451509705351532,0.02185107252161781,-0.3758723162666688,0.031578089210099816,-0.0019638609914955237,1.978350983544011,33.89963,0.0501082338065046,44.8344869999388,25.784343626514914,37.083070073403626,17.961329453784654,0.36227300000000007,33.48999999999999,1
0.8440380644493949,0.023456112191480846,-0.3766026003767577,-0.04490266290039181,-0.002783329721250556,1.977779178948933,33.896385,0.8633007049789394,44.15317663943373,25.112069382689576,37.031470326955805,-29.070575301818277,0.36227300000000007,33.49000000000001,1
0.845486043050185,0.02168873321950508,-0.3740613408133957,0.00327929225137714,-0.0024450093618551263,1.9774750249004729,33.89978,1.7499207755241875,44.2324479681952,25.17375672697184,37.54659557439167,4.528292410783359,0.3597140000000001,33.46999999999999,1
0.8439394327605815,0.023796696049895517,-0.37587866748174537,0.07065206221168652,-0.0027043924604123067,1.9773606155010284,33.896263,2.934715302860927,43.64556946387922,25.04473659508076,37.92757212198076,24.521799866239473,0.3635519999999999,33.47,1
0.8420411494191354,0.027550882822509157,-0.37546452607394615,-0.04331036283012535,-0.0024186677362363898,1.977131080398915,33.89996,3.929750000284398,43.57318648878088,25.02957199722611,38.02701400628596,-7.325580038412303,0.34948100000000026,33.47000000000002,1
0.8478035039141988,0.023343221696044344,-0.3699265043420545,-0.02603357193024865,-0.0025177704931530834,1.9765007794587723,33.901558,4.2127400150106755,43.169376908327386,25.02409319993464,38.0365389882489,-17.194246902646668,0.3622730000000001,33.47000000000001,1
0.8470458725354152,0.021599543497764523,-0.3702170749376133,0.06155694621696481,-0.0024596360315132133,1.9761746038604975,33.90322,3.3811429853014383,43.0106674899885,25.296524417908376,38.26820718944568,26.802395581789828,0.3609939999999998,33.46999999999998,1
0.8440085607099048,0.0225748456404946,-0.37705760057489757,-0.0424039190894158,-0.0024141075398988877,1.9732437752702032,33.903553,1.7498493979931193,43.742077272995445,25.13559341914902,37.88956339464521,-2.7777934237241033,0.3609939999999999,33.46999999999996,1
0.8466541051820368,0.022310025888448454,-0.37233289805003517,-0.03389257513644849,-0.0017689002903533654,1.972839889320919,33.899364,0.014796645096982875,44.08699570444344,25.192819521164417,37.808019122546,-18.60265788568132,0.3622729999999998,33.47,1
0.8461864930260078,0.019633422523115646,-0.3737455249345782,0.05575589488486705,-0.0030244544404423182,1.9722491254697878,33.90334,-1.3879955232846124,43.9685704474359,25.51386236433721,37.54686611972373,17.307222378024743,0.36099399999999965,33.46999999999998,1
0.84527532997733,0.02083142102854633,-0.37470679606507334,-0.00862090512065391,-0.002360988276644202,1.9714539175661279,33.898926,-2.015975641478048,44.181219059053774,25.381428375550787,37.86094308181417,2.8247747721130874,0.3635520000000005,33.489999999999995,1
0.8462334694937004,0.020686120668812615,-0.3730072140851361,-0.03445435076869117,-0.002883393732795952,1.9701709922679354,33.903164,-2.1781814982393928,43.894213996895395,25.466338215051895,37.63449335843766,-29.02633118819055,0.36227300000000107,33.49000000000005,1
0.8462114768747293,0.019612235505245254,-0.37173092867709273,0.04487585276503826,-0.0025800907457005913,1.9691732071466195,33.901787,-2.028599209307343,44.09101054313949,25.5758660036492,37.704822177279695,15.013573814380582,0.3622729999999997,33.49000000000001,1
0.8453188862901307,0.02090204892726503,-0.3737196077236072,0.004844897611409443,-0.0022740119200341732,1.9687546450077775,33.898846,-1.652024316228385,43.917733952350574,25.77879108487059,37.503490065138536,7.161148319891882,0.36099399999999965,33.489999999999995,1
0.8465270933099399,0.021064880633310884,-0.37235246437356895,-0.04851618264692079,-0.0018291628684967583,1.9682412529833875,33.9003,-1.3699817379722656,44.07274524030103,25.474814776930693,37.56344506116631,-25.376320339169624,0.36355200000000065,33.49000000000002,1
0.8474084214000067,0.018750420693702415,-0.37150434719668535,0.04328631940234857,-0.0026982832681823475,1.9664383674123482,33.901237,-1.1091350084762757,43.95130838419366,25.45335081028621,37.46137914680071,7.593173978982737,0.3609939999999993,33.48999999999996,1
0.8463030772388084,0.01947240462504798,-0.37338759402621,0.022001909592478212,-0.0035311279983482515,1.967602522228064,33.901817,-0.6867790100625192,44.19670806908146,26.0735536354354,37.48576555564637,21.529325592521495,0.360994,33.48999999999999,1
0.845179988747485,0.020450072718483703,-0.3760189244746422,-0.054912174096037665,-0.0026478288266326326,1.9660922095464541,33.899002,-0.26808340806793957,43.89495761543474,25.516288009762228,37.37193919644524,-25.600273728791205,0.3622730000000004,33.490000000000016,1
0.845420207476891,0.020226460537766992,-0.3758932801329734,0.017237876294568768,-0.0023670270596177056,1.9664483364813565,33.899323,0.26394262076000324,44.093813565925046,25.323645967482875,37.14990088021394,1.5834885613165617,0.3609939999999998,33.489999999999945,1
0.8421365399363189,0.020730161242897383,-0.38173203975921655,0.053937090110868696,-0.0022115218637894485,1.9653131727892397,33.89679,1.2509077743679273,44.035591044517155,25.375314448056535,37.21142318613704,24.69965589052713,0.3635520000000001,33.49000000000002,1
0.840914262654276,0.022505817829819193,-0.38518779730304664,-0.06088890206706808,-0.0023997003772407784,1.9660085502416067,33.900013,2.573535144498635,44.08840931456508,25.04613550935325,37.792620527886754,-15.57323041880062,0.3622730000000003,33.49000000000004,1
0.8410596391197115,0.023071110588072694,-0.3833262135937041,-0.004480201531325648,-0.0018999847353248244,1.9647672339212294,33.89979,3.683134075662631,43.90640130148932,24.963391376455885,37.45849113052062,-7.941702209565053,0.3622729999999995,33.489999999999974,1
0.8400619652951837,0.02224928918807939,-0.38275604327992685,0.07790736653186962,-0.0028286175798564713,1.9668311824084552,33.898823,4.517678513355207,44.140663056713805,25.037457359133946,37.82363989793197,27.42170247743396,0.3609940000000004,33.46999999999999,1
0.8408188076950787,0.021773330623260676,-0.3832468053125951,-0.05822565348855652,-0.0015355204228265503,1.964718330886228,33.898716,4.972171795451225,44.02571725702363,24.96047937593934,37.43606427873833,-6.78034910168382,0.35971400000000003,33.470000000000034,1
0.8457502200797565,0.021676948029842047,-0.3753939221943753,0.0011718618809883747,-0.002492700862094603,1.9650016875867418,33.89787,4.421942674718339,44.01790859596626,25.047181036785815,37.42740204147534,-13.64711127582366,0.3584349999999998,33.47000000000002,1
0.8442053065060066,0.019871876569982617,-0.3768802908067794,0.06013149009652273,-0.0022545281591856846,1.966087654805635,33.899426,2.7517543121800863,43.984865927152526,25.39779374059042,37.41467863891092,20.017540645206033,0.35971399999999987,33.469999999999985,1
0.8446473435941831,0.019974525201521088,-0.3786241977092365,-0.07255561225611364,-0.0028564166452383056,1.9622517508033943,33.901947,0.48522272850854703,43.998341101518605,25.62115023159823,37.58145370416221,1.5041408523473982,0.35843499999999995,33.45000000000001,1
0.8452059909824212,0.01951960948420017,-0.3749543432182098,0.02025380226857216,-0.002084902770800095,1.9620469104373879,33.900085,-1.4940137445005888,44.041184965641115,25.60386825669175,37.783235957120084,-15.340357481614673,0.3597139999999996,33.45000000000001,1
0.8442775831988715,0.018672849686183532,-0.3771677864752795,0.03516350581417553,-0.0029144534012463716,1.9619095115905747,33.901325,-2.8099883191217416,43.73881111752033,25.732517801249063,38.08678022858478,18.347472245385486,0.35971400000000053,33.449999999999996,1
0.8447380802227952,0.018426655884206642,-0.3763921804911798,-0.050889475848546625,-0.0027790911634998153,1.9606586622324402,33.903564,-3.6565796890556728,43.59395172670784,25.872591104781716,37.81810227015828,-9.098437513889039,0.3597139999999999,33.44999999999996,1
0.8459013271314271,0.018628510379048578,-0.37304026302786714,0.019712812966018713,-0.002329775923011182,1.9618421308759948,33.899315,-3.9065793413665273,43.00574179799902,25.81978648392938,38.92819943992187,-12.487008199402302,0.3584349999999998,33.44999999999998,1
0.8449516397755522,0.017335724053854404,-0.37595623507490034,0.036429435630152975,-0.0024545639548787497,1.9619819774666052,33.90242,-3.542734320870041,41.61405667751099,25.664776635455556,40.02440150865122,22.040094642085844,0.3609940000000004,33.450000000000045,1
0.8452188981145031,0.018711496067692342,-0.3750372693697625,-0.05542397322004376,-0.002793956750132174,1.9614121401304043,33.901142,-3.1038367932938713,42.24565389449503,25.644146828357833,39.793849215732116,-9.398001923981866,0.3597139999999999,33.449999999999996,1
0.8469132549158379,0.01794033496994884,-0.37238781739818533,0.012132872290420463,-0.0030600952229717063,1.9585881848001165,33.899956,-2.6522210729921945,41.79827089675257,25.33006395946144,39.745542003538624,-11.958926355909265,0.3597140000000003,33.45000000000001,1
0.846095188037838,0.016660196059247973,-0.374824765727702,0.047340579820296935,-0.0023578614937664376,1.9604562439047146,33.9021,-2.001298015958465,42.18160491848101,25.619553919309837,39.44386614161293,27.708404805372997,0.35843499999999995,33.45000000000001,1
0.8460753792634278,0.01877921023258332,-0.3751910552561977,-0.02805724569129007,-0.002636782967369803,1.9573619692928015,33.90321,-1.3633091460170483,41.826943763845755,25.691339487072838,39.32108892065593,-17.5479805919991,0.3571559999999999,33.44999999999998,1
0.8460478538139982,0.01775131031205966,-0.3740892888315996,-0.03822682295133712,-0.002863827886217958,1.9577416033931538,33.897633,-0.930805657462419,42.533314276108236,25.48144541550566,39.14217734408862,-18.918420828229088,0.358435,33.45000000000002,1
0.8455959272647864,0.017162785388554168,-0.37604490684637004,0.04249206696417288,-0.002699833078097858,1.957363794861553,33.898,-0.4236117190906765,42.04521194890361,25.332728278752214,39.67317536436036,28.61121983359009,0.3558770000000001,33.45,1
0.8436275633023911,0.019187075771990404,-0.38028822738148726,0.020741494684745624,-0.002230563375802027,1.957819264798114,33.901527,0.5282113557543314,41.12278764268254,25.045408179195146,41.00605735908975,-6.244969941564415,0.359714,33.46999999999999,1
0.8427025329678787,0.019507380624620582,-0.38158255134801583,-0.0470572271213234,-0.0020695807224509906,1.9564955901487606,33.896748,1.6513868671552525,40.89847646710012,24.982838779480147,40.96050069319575,-26.838796750859974,0.35715600000000025,33.47000000000002,1
0.8431436287736481,0.020522157058679012,-0.37791768312979934,0.0067556181355343855,-0.0020292582212207847,1.956674728141974,33.90171,2.7180050991998495,41.08394774355686,25.017467482937498,41.057870019192336,25.1508961742184,0.35843499999999995,33.46999999999999,1
0.8426886965877355,0.019317897694439045,-0.37778247159297773,0.07120290383388923,-0.0031487058619905435,1.9579820634061114,33.899807,3.6657879662730095,41.166185446079425,24.979602271501204,40.860752961643676,18.356713162004702,0.3584349999999996,33.46999999999998,1
0.8438552501802413,0.019494501098018154,-0.37950109089274153,-0.03411498151059908,-0.002246074530481144,1.957660485783196,33.899506,4.323745765883817,41.44673497353528,25.025669504725453,41.006329809750184,-17.462388263481557,0.3571559999999994,33.44999999999996,1
0.8453052480384415,0.01910119446832463,-0.37611740621246237,-0.050854275849232286,-0.0020022653528459153,1.9559129433041142,33.899525,3.7357872496213793,41.101135220552344,24.961415734250366,40.801409823387715,-6.2157755836501405,0.3584349999999994,33.449999999999974,1
