chest_ACC_1,chest_ACC_2,chest_ACC_3,chest_ECG_1,chest_EMG_1,chest_EDA_1,chest_TEMP_1,chest_RESP_1,wrist_ACC_1,wrist_ACC_2,wrist_ACC_3,wrist_BVP_1,wrist_EDA_1,wrist_TEMP_1,label
0.8883852731554399,0.0838314039294723,-0.1946337889527619,0.07121737199113276,-0.0024077772218299024,0.7366205578177248,33.879166,1.2653984728994847,23.694303005436648,0.9371757082222437,58.50682912799368,-82.16976873008059,0.3735190000000001,33.25000000000003,1
0.8862569350687474,0.08505399194150023,-0.19008709839939067,-4.31048676880823e-05,-0.0018407439166785984,0.7342554316132845,33.88125,2.475799179376922,33.52368894554146,5.0500716677200455,51.8686702431638,144.1446525393528,0.37479799999999985,33.23000000000001,1
0.8861918216113609,0.08438997706984253,-0.19435501777847866,-0.015527644125422688,-0.00255483149515,0.7348648495827539,33.87759,3.889517367144671,37.18071384910995,5.268111706496125,51.761378672502154,-8.643345685905974,0.37351900000000027,33.23000000000001,1
0.8860479400156495,0.08433318827448054,-0.19559067912020592,0.04524451280231988,-0.0017499853631313992,0.7343806044636862,33.878403,4.930420010194846,52.30031054055231,1.242752332953884,33.810541141943354,4.449116544515361,0.3760770000000004,33.23000000000001,1
0.8883994822328852,0.08654110671115495,-0.19085293971255327,-0.060933184959558136,-0.0021656141015740727,0.7347685348688433,33.875725,4.76639520401953,60.78041396671831,6.768972109186543,-0.6676061532929627,2.9933853242942923,0.3722400000000005,33.23000000000002,1
0.8849546655850613,0.08270204638588219,-0.19707641420022032,0.05396244187819376,-0.0020819141916863324,0.7360009671633478,33.87623,3.5832612821765086,64.6702221213909,-0.08898882426614843,-27.94308955283351,77.08798427108155,0.3645649999999997,33.25000000000003,1
0.8868550230217663,0.08231314248638098,-0.2031615090504992,-0.012487017540126065,-0.0018023720703685675,0.7360282894131902,33.88112,1.9473732805042625,62.53170071854424,9.038035057325871,6.041949005915097,33.350982668369156,0.3671230000000002,33.25000000000002,1
0.8822640710119231,0.07973889202981616,-0.21068952299556193,-0.109479252713366,-0.0019286565295875253,0.7322304290626188,33.876553,0.2695724935453764,22.28046519180284,7.951510949708838,51.98290836265571,33.117393882088386,0.4042190000000004,33.250000000000014,1
0.8837105934211279,0.08841488692737826,-0.21419319770604156,0.1227376152440071,-0.002313776454559578,0.7381942663951033,33.882145,-1.1770439653007612,24.56218987504963,-1.0510236644038184,57.98083850231598,-18.258136758018683,0.3811940000000003,33.25000000000003,1
0.8848944064654415,0.08625891011399602,-0.21102543884431121,-0.04355690106095003,-0.0019250815650465438,0.7319564142795751,33.8757,-2.2495729883407303,27.470683859378354,2.334762138558209,57.36618271618091,-69.987449726929,0.38119399999999964,33.25000000000002,1
0.8837062324554573,0.07524148101881577,-0.20313804373212313,0.020569932721807536,-0.0022206159060231445,0.7371613235919448,33.880527,-2.7929667640216573,28.44684287240283,-0.5136689614504493,56.68329135419158,80.14867323574609,0.3773560000000003,33.25000000000002,1
0.8868935708723288,0.0842424197827946,-0.20068965938968858,0.009982155418175433,-0.0024967171916956956,0.7346601012495475,33.880604,-2.4984812249187125,24.339287974565565,4.725662014889645,59.14285492735472,-147.52247688635356,0.37607699999999966,33.25000000000002,1
0.8867519259959789,0.07923782937130011,-0.20194696555623057,-0.06014517759043974,-0.0024582657409584372,0.7335396695588583,33.876095,-1.6877438300368908,22.39277010924617,-1.422399394467587,57.94896894535015,0.612753573459139,0.5896990000000006,33.250000000000036,1
0.8857586470966612,0.0809737010865393,-0.19815340705087095,0.07970490612091136,-0.0028531101635238107,0.7369097570380388,33.88043,-0.823826099628508,24.691129047289742,1.3895923270649784,57.63299203019271,174.64176643517823,0.4617819999999995,33.27000000000002,1
0.8870256225702399,0.07999241179578657,-0.2015352029454509,-0.041442938690916156,-0.002597443070004462,0.7351648729050473,33.88342,-0.12255608887623812,26.824099387613018,-0.9220295079920069,56.75169398961236,16.701085562014267,0.4285230000000004,33.27000000000001,1
0.8848156956588933,0.08161488735274584,-0.20249527251634314,-0.005464833576335072,-0.00216572489450188,0.7362947971643814,33.87652,0.26509258863626445,25.62886021556946,0.980080830316495,57.12781701127024,-23.227084929365976,0.4131730000000003,33.27000000000002,1
0.8864856427801309,0.08113862199596229,-0.20737740807491442,0.06052156161533002,-0.002254779979884148,0.7366345707807311,33.878147,0.6118947033422899,27.69180993660544,-0.660232258959158,56.90834962632565,109.04711455355563,0.4106150000000006,33.270000000000024,1
0.8848438759764271,0.08383441391664737,-0.20227282667772342,-0.07268147518687011,-0.00232185086729299,0.7349339961694016,33.88325,0.8832517737017892,26.188667301193387,0.7553092392754867,56.85440727801227,-99.99665051285373,0.40421900000000016,33.290000000000006,1
0.8857817998045051,0.08430122568575349,-0.202495872474064,0.006775830685268472,-0.0020114583435617045,0.7363206166014397,33.881516,1.5877240552242369,27.842004436411955,-0.7521876553489183,57.174713119638184,-67.68245519311175,0.4016610000000008,33.290000000000006,1
0.8846480138572356,0.088149575372506,-0.20148447795576194,0.06831895416907935,-0.0020958581262037206,0.735129932526604,33.878403,2.9456479576990575,26.118568013030625,-0.03613210631184114,56.63669704181446,-40.51343900342961,0.39910200000000046,33.290000000000006,1
0.8849849865201168,0.0901686987329959,-0.2002785731694168,-0.036234503398804636,-0.002537963377887141,0.7364243712809673,33.885273,4.646112866211466,27.9356944833266,-1.786943741804778,56.89501656192903,-15.142183544954548,0.39526499999999937,33.29000000000002,1
0.8834191358163834,0.09336529145088558,-0.20610702634730843,0.008178573091390506,-0.0026556005394817385,0.7369846436110642,33.880432,6.456235383739818,26.11183682923416,-0.10080425424396992,56.339399098302835,-5.179153588314783,0.39270700000000053,33.29,1
0.8825896485387094,0.08954063169894348,-0.20764139855549213,0.06722282602735276,-0.002076520713155848,0.734565364946268,33.886745,7.8376757908365935,28.380080926827972,-1.8046001993358916,57.220812595383855,-27.73189991207571,0.38503200000000015,33.29,1
0.8800445501778427,0.09277595221589699,-0.2083550275901225,-0.06638572622518989,-0.0023822218689062698,0.7367166855324746,33.884094,8.397801305808594,25.341034506038,-0.08171275020744437,55.42986009850331,-6.246030671431454,0.38631099999999974,33.29,1
0.8838366844635251,0.09178988764814489,-0.2110491887146816,-0.006881594571870231,-0.0020111378245723185,0.7364204493571027,33.884926,7.74408395315188,30.47292964355833,-2.1925320864058198,59.081360286628325,9.819980693953962,0.38503199999999965,33.29,1
0.8831794920363375,0.0902538521382871,-0.20457474622869545,0.05698910813330184,-0.0024745132624131574,0.7384428526511678,33.889725,5.504498060285271,21.906247356143563,3.7985706109921846,60.2855047683629,-5.978999435634624,0.38503199999999965,33.26999999999999,1
0.8851661547832929,0.08840700796941214,-0.20243629276228647,-0.08895455163860103,-0.0014910357643308093,0.7365941415077976,33.885414,2.4169263213132965,16.13966937183417,3.8667431513349024,55.68200255872424,3.2650565544870234,0.38631100000000057,33.26999999999999,1
0.8821644940628048,0.09319393079155457,-0.20592289781617698,0.03355967884826117,-0.0023788290634491798,0.7381198377667995,33.88721,-0.4527615238313922,18.14625581600207,0.5970649508604057,62.31358228168025,19.835009175073363,0.37863600000000086,33.26999999999999,1
0.8845439698279275,0.09342634383234158,-0.20732757596784096,0.05367844645328402,-0.002833482578361088,0.7357554772026921,33.88663,-2.78695004133202,28.748927800863896,5.25039769003657,52.73069661988402,-11.337667414516027,0.3811940000000003,33.269999999999996,1
0.8834809117607842,0.08940254209500215,-0.20061694432046137,-0.04802674980872626,-0.0022434506945413994,0.7382215627702821,33.889633,-4.522471037571647,49.98443997790535,5.039805384612915,40.27126977910512,-39.309586459643384,0.3773559999999993,33.27000000000002,1
0.8849752457011345,0.09088917400905303,-0.2024103926815316,0.034284416324139616,-0.0022129868051450454,0.7373902864743356,33.889534,-5.814640460391023,62.394857966679524,5.912390271116534,4.885913521771219,62.128026524943266,0.3735189999999996,33.27000000000001,1
0.8837583442562613,0.0883778725265844,-0.20031302786081065,0.03760147136558774,-0.0020170809578426044,0.733401001024203,33.891174,-7.045469049454764,61.23506249290941,6.234880027392047,-3.9175255884934943,17.934689967270447,0.36840200000000095,33.27000000000002,1
0.886887590924588,0.08773655795357452,-0.19862673072691636,-0.06309190626050715,-0.002426401584246957,0.7354695671404673,33.8874,-8.067539746559818,65.51237584182847,2.252928900832935,27.26530403359325,-64.84340506146283,0.36712299999999937,33.270000000000024,1
0.8853069395052369,0.08942106002279857,-0.19726424891072003,-0.02662578794424267,-0.002561500273898425,0.7321027601945702,33.88731,-8.199132527492358,42.91601747426602,9.799277434984974,42.677476920813824,136.00420613389647,0.3735189999999996,33.249999999999964,1
0.8863847969409449,0.0837081767216869,-0.19907032284900858,0.03492782723411527,-0.0020089584279812584,0.7362193056120584,33.890984,-7.638041118088442,31.23400477792138,7.272799322602762,50.25449421722763,-106.57790307590967,0.3952650000000002,33.24999999999996,1
0.8856423674207472,0.09318155439551887,-0.19389572990155415,-0.03645106404292513,-0.0022718980884440894,0.7332576094163017,33.89296,-6.920776358199582,22.151304185335434,1.9562918807046068,58.22007903884026,14.299218727522586,0.373519,33.249999999999964,1
0.8900223568217202,0.09179318137025283,-0.19165221164923565,0.017556692796229848,-0.0025197598201378555,0.7362722170334657,33.89374,-5.790123726786338,26.428837934528186,4.798424282615763,58.48603656873805,148.11110372598546,0.3760770000000009,33.24999999999997,1
0.8836550339126584,0.08579327355129081,-0.19348742458472065,0.05206064472883844,-0.0019594676890504303,0.7373791886887752,33.887825,-3.963517731087885,28.833856922288753,1.996909889392703,57.718230634630494,-99.08024428553091,0.3786360000000009,33.27,1
0.8843606101167482,0.09351503090232467,-0.20213853960471512,-0.0459272859615649,-0.002308622348571745,0.7364281020063888,33.892494,-1.4210430059265255,19.270954219026496,5.04231581835145,55.85210953446491,-213.33763987848684,0.3799150000000004,33.27,1
0.8849515056261664,0.0905821956805997,-0.19759610127521424,0.0014396287039786931,-0.0018428002898836784,0.7354316927773683,33.889893,1.3709662144244095,21.968444081545996,0.8110671840425956,59.73025111243985,-32.508075012362866,0.3786360000000002,33.269999999999996,1
0.8855657681367554,0.09282929074312356,-0.19695765234239448,0.05007861048077126,-0.0025388399468680165,0.734251217695816,33.893875,3.7221889458836404,29.548096768930588,0.20230936160830676,55.90788969602524,185.5892893434128,0.3760770000000002,33.27000000000001,1
0.8837668959813986,0.09128343941543574,-0.1892466550456057,-0.05927019404589618,-0.002629350638318823,0.7336449941968608,33.893333,5.650210057456764,35.26604213696453,1.9271321211184516,53.90099259495308,117.67766947130919,0.3760769999999997,33.27000000000001,1
0.8863859651943266,0.08879690757450447,-0.19896294054737304,0.054339275719539656,-0.001289485873417006,0.7348518329851987,33.895016,7.075353190432513,39.351771408656894,3.4436582180746464,48.775536667932336,-114.14893178784725,0.38247300000000023,33.27000000000001,1
0.885519312742838,0.08728341127056444,-0.19647374230970094,-0.01235738658147518,-0.002379523332999848,0.7345244477115539,33.893826,6.953088162634857,37.641883456025994,2.320592683057153,50.643280992495896,-78.91180693982842,0.4016609999999995,33.27000000000001,1
0.8887120707068891,0.08332229805039161,-0.19169679356255026,-0.02748399718428866,-0.0021499520213971255,0.7375110317451544,33.892128,5.058831726163744,35.91414177169892,2.3098573263866324,51.11910777279068,108.48633155533169,0.3875899999999995,33.270000000000024,1
0.8880714090403589,0.08000668429165252,-0.19175798153994966,0.050635896139427365,-0.002297378224104774,0.7379090203148099,33.89436,2.557459951958075,37.19088866598258,1.8676469559978148,51.25100616383761,123.6727263223253,0.3863109999999993,33.28999999999999,1
0.8873702532798773,0.07788793957692616,-0.19618501039050049,-0.04809543399770081,-0.002439028506135267,0.7367151690301993,33.893547,0.31781126977340646,36.877542807532805,2.1666813207390154,50.72956039004979,-33.49811088926399,0.3824730000000004,33.29,1
0.8884110607661581,0.07952216643448504,-0.19468159504421456,0.021266414147945344,-0.0019190785843757414,0.7354786241752351,33.89441,-1.5136271948018893,37.08913925224361,2.0149292650817445,51.182926454047816,1.710769513794925,0.37735599999999997,33.29,1
0.8885743271645671,0.07460034727317581,-0.19628910234016347,0.03707422433525818,-0.0021743457326542626,0.7366413427498969,33.893887,-3.076291847128433,36.86870150371651,2.5651937568562864,50.67188058157231,-72.3652314625488,0.3760770000000002,33.290000000000006,1
0.8873765775537008,0.07631117337830019,-0.19794169473273748,-0.06918831993976128,-0.002633478046027413,0.7371225520134194,33.893154,-4.249492350514171,36.958947352235995,2.6965156513588293,51.29988296402928,-57.563763816175765,0.3760770000000004,33.29000000000001,1
0.886502722398837,0.07732384531431948,-0.20336576068063278,0.053044399972072775,-0.0021771070094460743,0.7360812300843829,33.89522,-4.570445541905398,36.72208664425671,2.4705960226914083,50.71229772459854,7.733190454896861,0.3747980000000006,33.29000000000001,1
0.8847651996278406,0.0784675973170653,-0.2032653930622416,-0.01678339464473544,-0.0015590746624709031,0.7366713057052994,33.89676,-4.568010253472988,36.72686603645709,2.0320098644567404,51.28147986046663,-6.881823654749911,0.3735189999999996,33.29000000000001,1
0.886930753545758,0.08006155607457584,-0.20476363207479661,-0.03687134447031271,-0.0022725259133362847,0.7376219965941553,33.894836,-4.489251345726159,36.42354876095006,2.388929545163831,50.71369901871261,7.544086741847071,0.374798,33.29000000000003,1
0.8840106895952098,0.07983257957918546,-0.2067768832183877,0.06585404559523972,-0.0018417945692877412,0.7350040590736905,33.894436,-4.129736881422256,36.06175578230876,2.565896619689352,51.50360948647805,13.659510319373082,0.3735190000000001,33.27000000000002,1
0.8852557445578225,0.07942481941391286,-0.2100335619499839,-0.04268036039920125,-0.002129595356850761,0.7336628029279533,33.898033,-3.4579764027480717,35.704013771134555,2.595954339697782,51.57258541180858,-21.76324560334574,0.3735190000000001,33.27000000000002,1
0.8843521148410353,0.08360443368698625,-0.20919444848731936,-0.022015895516473555,-0.002172162388003947,0.7357349336150761,33.897236,-2.4488557214508924,33.346346167441816,2.4737538734534272,53.38783618837132,16.18184434244019,0.3696810000000003,33.27000000000002,1
0.885734035772995,0.08048757419673953,-0.20445397699367296,0.06608244867985943,-0.002560522951907093,0.7378247515787216,33.898365,-1.2142039109185483,32.64670166203178,2.0475743040778434,53.43037357792901,-1.6166374935105954,0.3747979999999994,33.27000000000002,1
0.8847892880898289,0.08436315886311177,-0.20695212448330239,-0.07683508866599516,-0.0020737705469983563,0.7352605434637428,33.89847,0.5296882660871194,33.21247560288987,2.063278310797368,53.45702225930318,-17.802090983746588,0.37351900000000043,33.31,1
0.8829135953898382,0.08533141108050787,-0.2087687516680295,0.01714297027765323,-0.002808495297341314,0.7366280846607199,33.899166,2.7331449967171526,33.16410794973334,1.9839181797939731,53.182194450534205,32.33596047604231,0.37351899999999977,33.31,1
0.8812020712758227,0.08567580036164252,-0.21127878486438212,0.05920498628025586,-0.0019029655515860984,0.7381661934115019,33.899326,4.615696574469274,33.347108682032804,2.178554155253457,53.61367395945031,2.510359772719026,0.3722400000000001,33.31,1
0.8848621721787411,0.08362845599022843,-0.2120549530320218,-0.06593876734362969,-0.0021676819344083054,0.7385060131747121,33.90194,5.28276303758428,33.228579685925524,1.824899142706989,52.99413069239063,-23.853328847865555,0.374798,33.31000000000002,1
0.8833473613146082,0.08300798012218787,-0.20991396814796875,0.03960112241372168,-0.0021691745710451294,0.7343132109737315,33.904892,4.321994093262142,32.634474951321046,2.003653534258259,53.759766141779615,15.933215584059312,0.3722400000000002,33.33000000000001,1
0.8847134550174925,0.08277561858553306,-0.2110675454904375,0.03695929040734946,-0.002306853744875375,0.7386169717287666,33.90585,2.627270827754176,32.78651937725813,1.9692571613459366,53.652421739326165,-16.71882950184037,0.374798,33.33000000000001,1
0.883917348814654,0.08242278204031278,-0.2110175828474468,-0.06344532397417732,-0.002761622534682402,0.7380394199672815,33.900875,1.345399069264759,33.0793445433711,2.029465533610932,53.50865230566947,14.85646222787555,0.3747980000000007,33.33000000000002,1
0.8845233968668033,0.08083735195952575,-0.21060739094834866,0.06356959455392522,-0.0009277980050167624,0.7391296867160244,33.903156,0.49750259111283074,33.04917022171126,1.9825726479375076,53.11457905629013,5.031156042519113,0.37223999999999946,33.33000000000002,1
0.8839349598196358,0.08085177687268892,-0.20761968882350024,-0.004239386742299012,-0.0017691624080095599,0.7375320671110646,33.904675,-0.19587356644426496,33.29115567228944,1.981267683051919,53.35574708449708,-27.69074448163958,0.3709609999999992,33.29,1
0.8868739710491401,0.07848292760625251,-0.20349222260376415,-0.06161159610412052,-0.0023600281398002227,0.737586926599425,33.906567,-0.6104325106705429,34.40041939294526,2.3470503830315934,52.476731798809425,2.6359614426435094,0.3671230000000005,33.29,1
0.885600023242824,0.07793966284655897,-0.20262359036510727,0.07930319154646445,-0.0021203902852121466,0.7360977749723404,33.90809,-0.6619034624679632,35.80872318276598,3.077124400549571,51.27906980052287,39.84473751955201,0.37223999999999996,33.29,1
0.8854349911996909,0.0795137921736666,-0.2086224934368303,-0.03386152959009966,-0.001959950758942147,0.7364738148036117,33.90774,-0.7024607618611893,36.46599129442078,3.5039999651986764,51.01802713810789,-25.934696398454722,0.3722400000000005,33.29000000000001,1
0.8837844023139779,0.08106844248198572,-0.20677065724160124,-0.03296125075466572,-0.0027043138468207627,0.7377725184833852,33.90752,-0.7241426324661826,38.05175243993343,5.121857449845195,50.34463931483198,15.593401462903303,0.37479799999999985,33.31000000000002,1
0.8851763343494864,0.0817930642871042,-0.2088632043317635,0.0802393219785532,-0.0019413239576728254,0.7371282900348698,33.908737,-0.587728755506974,38.59527222131204,4.3854187185279745,49.221722455508534,7.593985442978343,0.40549799999999986,33.31000000000001,1
0.8852053225353939,0.08187739262986567,-0.2049035992920112,-0.0628893640392209,-0.0014201600999879127,0.7384643998334206,33.90901,-0.37333096927767323,37.194413407340214,4.167664205747271,50.57628634787764,10.246184769229778,0.39910200000000023,33.31,1
0.8870600228210531,0.08039362868512269,-0.19946414993856934,-0.006716368873451582,-0.002007845998617324,0.7369093779175487,33.908962,0.1268277247649299,37.197164680656485,3.557776552807523,49.75579811718581,32.99898929910789,0.39270700000000053,33.31000000000002,1
0.8863572547251207,0.0819004492152532,-0.1971518955228645,0.06021893894272793,-0.00258411230003424,0.7375940224993189,33.909725,1.3359690993932447,37.18501868932344,3.251300279801672,50.46436123798156,-43.44557044766302,0.38886900000000035,33.29,1
0.8860691420508379,0.08296128407892464,-0.20155626594977874,-0.07148219884011098,-0.002828628314547673,0.7374525625963814,33.913094,3.114853946827935,37.93222387924316,2.8575992882399954,49.8398854064913,47.088541584981286,0.38759000000000077,33.29,1
0.8827141434840673,0.08561181849904759,-0.20155192440843855,0.05328112381634016,-0.0018541912509740129,0.7382402186084711,33.908924,4.49432305585953,36.903458070438525,3.1266440801553226,50.59635559658944,-13.98764202651622,0.3811940000000003,33.29,1
0.8845537318165264,0.08369377022746781,-0.20546324620223405,-0.011655221385920312,-0.0019277760674888782,0.7396455267097567,33.915367,5.071300654074465,38.023603724260845,2.884060602418202,50.067814145438916,-53.33934853603575,0.38247300000000023,33.290000000000006,1
0.8849072652810785,0.08606141525553468,-0.20147030699957094,-0.030530652076515865,-0.0021828700046313348,0.7382070302875445,33.91443,4.428069579513116,26.44659942224508,3.5265311542765256,56.370320919364,-39.94505458018065,0.37863599999999936,33.309999999999995,1
0.8874514998991533,0.081655287899802,-0.20266882003798065,0.07460005942119982,-0.0019701245492790005,0.7381152395182439,33.912952,2.7469561597364907,22.622062982017116,3.085974923065558,58.1835021567557,23.044360511593137,0.5167860000000007,33.309999999999995,1
0.8841147099832063,0.07988869894857616,-0.20584926051855043,-0.05397656543800183,-0.0020970104618022903,0.7381310278423182,33.91511,0.7208084401442055,24.074317850894197,3.833643281088813,58.01895214875943,-11.014015968006639,0.6076080000000005,33.309999999999995,1
0.8851402464785227,0.08109275321532579,-0.20649968966991966,-0.01038609363601367,-0.0023389296999683034,0.7383984604160058,33.9182,-0.8266440029208364,25.021399585518395,3.911487451695706,57.457391585059156,10.855657559837162,0.589699,33.31,1
0.8854923185311153,0.08149162939342093,-0.2065945218490794,0.06633547016863454,-0.00301572498887373,0.7381557661513515,33.915787,-2.014744608291445,28.270235982589814,4.779795789829024,56.427738278881485,-76.31221618145597,0.571791,33.30999999999999,1
0.8847678503428632,0.08010515427809392,-0.20841168375768948,-0.06966810975945759,-0.0015678037562562668,0.7382577988546317,33.91541,-2.9506222678013896,27.859957218521103,4.004825254190276,55.95523983476648,-65.02787143441078,0.5436490000000003,33.30999999999999,1
0.8845666634904908,0.0823111562436159,-0.20703902068723842,0.04058630272862894,-0.002267256121430806,0.7383118459086854,33.915573,-3.3092333967714653,29.27383010035579,3.899345581673359,55.91692748752063,111.67424427525901,0.5206239999999998,33.30999999999999,1
0.8851010976851655,0.07910034900569575,-0.20866286438658124,0.021842140817548494,-0.0022573133018700133,0.7382104237671395,33.916275,-3.256445430930731,28.908281981490312,3.8856693997819836,55.699532588664816,79.15531966715959,0.505274,33.309999999999995,1
0.8852140968008726,0.08005099504388664,-0.20810826966228088,-0.07706867570356407,-0.002071486576350228,0.7389157438017069,33.91764,-2.8217566093360977,29.30950950800598,4.148665723544431,55.57521606352144,57.08510981412653,0.4924819999999999,33.34000000000005,1
0.8868466513765119,0.07999604585663721,-0.204909227235422,0.04899138659988844,-0.0022164218835895163,0.7394285874585443,33.918167,-2.041332689237967,28.95785242078495,3.629428986687059,55.31068971584879,35.059646365793725,0.4784110000000002,33.34000000000006,1
0.8858086726464126,0.08050948029608887,-0.19977298156813686,-0.010011611780691794,-0.002608742949388771,0.7394157854956933,33.918373,-0.6835647339086771,29.29699283731733,3.53491872072052,55.56660135257062,-16.477539601230266,0.47841100000000086,33.34000000000005,1
0.8863328022281707,0.08308669787304172,-0.20146381670154426,-0.05103323303611799,-0.001743268126217964,0.7382911980198964,33.917305,1.1799745369177184,29.606477516434147,3.044081428389421,55.00100314375155,-39.35113565033281,0.4694569999999999,33.34000000000005,1
0.8840209547127001,0.08476543714248913,-0.20200104212184666,0.08401840183799264,-0.00197840401932597,0.7395987160086515,33.915123,2.940154680849115,29.71682064005097,3.058220272962851,55.34368573681253,-17.188469667236337,0.4694569999999999,33.32999999999999,1
0.8834089682470936,0.08588753388821199,-0.20566341071970962,-0.023739406652657117,-0.0021441895182082497,0.7404968480433609,33.919468,4.148207377278525,29.714380049649733,2.916682155382534,55.20744758790879,-27.406731896969735,0.4656200000000007,33.32999999999999,1
0.8843306105961015,0.08551686751841321,-0.20661246039665626,-0.03118738213032058,-0.0025203831551062063,0.7377564484597331,33.919655,4.300705235364841,30.024852416922695,3.0962179980847337,55.475597862182354,0.3726692516728014,0.4592239999999999,33.32999999999999,1
0.885424723412796,0.08272036814040659,-0.20487581261114626,0.07692421791142984,-0.0025191906395518253,0.7386837800413646,33.91798,2.9880710642806325,29.164977280779027,3.0439549344390624,55.148760876578855,8.987586381978431,0.45666500000000004,33.33,1
0.8849622281537309,0.08474630983193117,-0.2058564185021186,-0.024731322312992278,-0.002931854469812329,0.7385381841605259,33.91585,0.8845132964775096,30.04717613944161,3.8586895103927823,55.30394704506381,-14.66886379708447,0.45538599999999907,33.31000000000003,1
0.8836281521530127,0.08072862991520807,-0.21501567208446626,-0.019233080901263244,-0.001884819695506894,0.7370125874897662,33.918358,-1.1806706538014256,29.416790705084495,3.949449408307072,55.35158203090179,12.230946243376081,0.45282799999999956,33.31000000000003,1
0.8811203622677318,0.08407430983319211,-0.21539400826004915,0.0603736726434584,-0.0022397264044063457,0.7390848598772481,33.920795,-2.6336348877619917,29.4571375694919,4.077009442184777,55.65417669703222,5.618768098347157,0.4489900000000002,33.31000000000004,1
0.8835420043517317,0.08590961463010663,-0.21684435685005415,-0.0565889183898509,-0.0018968484891414422,0.7385928108587203,33.920815,-3.3911407384800065,29.90276739482247,3.9118621143580405,54.88942587707156,-13.366209657760544,0.44771099999999947,33.31000000000004,1
0.8838190336086216,0.08522614764078851,-0.21066040137805925,-0.010460823175317274,-0.0023537490981263994,0.738758310136472,33.921223,-3.6826152834731087,30.091053821208096,4.0946529828566325,55.214050315067794,10.473276059425245,0.4451529999999997,33.289999999999985,1
0.8837701246223018,0.08254301152796914,-0.21269937457563784,0.07276114320682042,-0.002247286002298914,0.7391033031102507,33.920822,-3.5795925749566058,29.9070528237946,3.90099386119835,54.80920853050092,-0.015216725473542754,0.44259400000000043,33.289999999999985,1
0.8844036408556403,0.07991823169117451,-0.21005709182962432,-0.06255770322829292,-0.0022598871785144835,0.7380271464548344,33.919025,-2.970504418700023,30.09541635591308,4.101903071591724,55.18063275842764,-15.327457495468435,0.4387570000000002,33.289999999999985,1
0.8843580243933509,0.0789380722816383,-0.209199269766848,-0.01960949786509975,-0.0019216402157192977,0.739533088197007,33.920708,-1.8288705291377398,29.901694652657252,3.8966972818626604,54.8251186493523,13.501361958395417,0.4400360000000001,33.29,1
0.8849936842464048,0.07941575661334038,-0.21099119353155193,0.06954190665416865,-0.0024034337366593494,0.7376921437505343,33.92116,-0.15804877775503673,30.10230600254026,4.102246837644048,55.171297632303336,-13.99431642458016,0.43875699999999984,33.31000000000001,1
0.8829430372633109,0.08105865829389715,-0.214850467234662,-0.07071434125048257,-0.0016024210396182682,0.7392513330720607,33.923203,1.7438312007524661,29.889554487598616,3.905375018672452,54.831008476853896,-10.717910240290225,0.43619900000000006,33.31,1
0.8805492735821895,0.08135680470265343,-0.21723135516998854,0.0329950688457532,-0.0032050215332537282,0.7356999031124506,33.921204,3.423629767633773,30.220605682013424,4.043490383117154,55.16753227602381,19.200967155052098,0.4336400000000003,33.309999999999995,1
0.8817620145101916,0.08062847933196823,-0.22125360993456702,0.03882085947763522,-0.0026242735048225482,0.7382417229917714,33.91967,4.30887414657288,29.91657066124169,3.799747942036389,54.8333154853524,-11.359699118001924,0.43491900000000033,33.31000000000001,1
0.882179018864394,0.08150726791972883,-0.22004118711724402,-0.0706814191219053,-0.0017819781427199039,0.7388110751890211,33.920956,3.7727813278566593,30.094943439641245,3.9460328617638303,55.1663073382467,-10.65647892469606,0.43363999999999986,33.33000000000001,1
0.8834571205756535,0.08182828850029164,-0.2168040919026258,0.06206924593401235,-0.002600864598601118,0.738882229858226,33.92113,2.1706000004890686,29.899751505397695,3.5704713824991456,54.833691627906106,19.46386957172487,0.43236100000000005,33.33000000000001,1
0.8827705890345059,0.08040076199339073,-0.21502290614181235,0.018130134563436363,-0.002001126165666567,0.7384731055218515,33.923294,0.33280150227710603,30.104419458861905,4.132751074442898,55.16661876499937,-9.5163798677771,0.4259649999999996,33.33000000000001,1
0.8840676888154773,0.08053116029649528,-0.21527358053123472,-0.07166518985528908,-0.002024370784636301,0.7379255902920591,33.9232,-1.376145362818734,29.89151370133633,3.849580175403298,54.83282462171106,1.2512959551788247,0.43108200000000074,33.33000000000004,1
0.8828348494169809,0.08076798925387348,-0.21430558807027356,0.06264503702374295,-0.0023097920196539566,0.7388766222597907,33.926888,-2.4581823707313117,30.113001561624934,4.157082261399694,55.167901769308564,16.940061953096976,0.42340699999999926,33.309999999999995,1
0.8829801012875778,0.08199410484885873,-0.2161423781817614,-0.015619918748877746,-0.0025740903268055637,0.7375227320268838,33.926006,-2.811521003809226,29.881275642184825,3.8366907382630835,54.831321929738,-11.306372394949895,0.4272440000000001,33.309999999999995,1
0.8831102794423528,0.08177125737248839,-0.21433285906722185,-0.041390381945724586,-0.0022286158723765674,0.738512230510706,33.923832,-2.578277736222081,30.127768402437983,4.17215905214322,55.16928200592169,4.024419800323659,0.4285229999999998,33.31,1
0.8832199099743872,0.08097466857654732,-0.21742323694907253,0.07997096846403617,-0.0027930727808372267,0.7390157143749252,33.92553,-2.2466247825981407,29.847141509100275,3.79784515129,54.830704453483065,2.5149260701231846,0.4272440000000001,33.31000000000001,1
0.8824534548354747,0.08276853808643764,-0.2158700095064681,-0.05401259561201115,-0.0015788674441832515,0.7385012808173642,33.926643,-1.936127578912393,30.00769111775229,3.728864315100448,55.29408713277766,-21.434175062236505,0.4272440000000001,33.31000000000001,1
0.8841811533716818,0.0819662271674927,-0.21364274195130514,-0.016638588987128874,-0.002258643429380371,0.7381137200373137,33.9264,-1.2049967213676067,29.89150436925238,3.3061322296131515,55.02001430600514,11.418264438914811,0.4259650000000004,33.31000000000001,1
0.8833611036517467,0.0823477851107944,-0.21463183463541397,0.07212382766755208,-0.0018994287184257042,0.7389306505044874,33.925697,0.09258225932070673,29.979100185939075,3.3644606300553694,55.421284398270345,-0.8415133492523844,0.4259650000000004,33.31000000000001,1
0.8827643219533458,0.08405304562884533,-0.2176242041443668,-0.06641960735219864,-0.002567434376228558,0.7382691315387215,33.925354,1.6308789653004478,29.9157355391437,2.7995184276461993,55.06524318056522,-18.401103623839024,0.42596499999999926,33.310000000000024,1
0.8783878891400749,0.08737497984327473,-0.22395149686952648,0.03683539040909608,-0.002035912393818664,0.737291676617073,33.92669,2.9869301101725414,30.022938775325756,3.220699186942196,55.540001696111744,11.516089578949497,0.4246860000000005,33.32999999999999,1
0.8789499599097932,0.08655636481998895,-0.2287811767098004,0.03067611890472092,-0.0021484448201598556,0.7382139010115037,33.926014,4.033278285404575,29.203368643414912,2.947308728845365,55.17297543593696,-7.0952952776703855,0.42340699999999976,33.32999999999999,1
0.8791846545231662,0.08561190910832173,-0.2288284224316238,-0.06860017436670027,-0.002261010030759845,0.737076348422948,33.92892,4.156304804180893,29.721685744744267,3.4156285487164553,55.505702092332584,-2.60256253174786,0.42340699999999987,33.32999999999999,1
0.8810414554572341,0.08262873733038383,-0.225591394022844,0.06000441475411539,-0.0019722257110123755,0.7400923304908044,33.924755,2.904594637853548,29.924235257920888,3.2996879783264714,54.879262604935306,19.174217251302547,0.4246859999999994,33.32999999999999,1
0.8814725717701042,0.08365013663518367,-0.22181098118526218,0.0014065777189425164,-0.0023750997446437194,0.7389451409844012,33.928383,0.9782119926260637,30.094388339731314,3.7655437558538343,55.320310918693714,-6.8034617216989215,0.4182899999999996,33.32999999999998,1
0.8813801225227702,0.0836669630375637,-0.22177220905672154,-0.04671318905227615,-0.0018193731772077025,0.7400454881116675,33.927277,-0.6256268706555493,29.89927902372446,3.5207420975091606,54.728090530754606,5.089558625695836,0.4234070000000004,33.32999999999998,1
0.8808506468932498,0.08449222465158689,-0.22131748347795913,0.07045683205115034,-0.0028297666964313536,0.7386515727199194,33.926502,-1.6878685558183706,30.104198306224735,4.27964814631817,55.437848835813185,23.133452855036168,0.42084800000000033,33.32999999999998,1
0.881181431696694,0.08356270848144824,-0.22415755026301662,-0.043778236463389575,-0.003059748936557979,0.7400857799626572,33.9275,-2.3989408522989173,29.849419098700395,3.96226579180063,54.92544810376483,-1.6880341657788198,0.42212800000000034,33.32999999999999,1
0.8809276182278013,0.08482033282262925,-0.2239535489236492,-0.027829050354605915,-0.002010542431765993,0.7391718069244259,33.92983,-2.7155380615095184,30.08155587550577,4.6357417409355905,55.60934506770853,12.456181893177083,0.42340699999999926,33.31,1
0.8812202225911926,0.0829583130881364,-0.22292475079106827,0.07752770290006838,-0.0016072939196624815,0.7386814445671583,33.92984,-2.4575824912333033,29.863299623293745,2.754684867830326,54.57749984109515,-1.8179070942465787,0.42468599999999984,33.309999999999995,1
0.8817199804661745,0.08511354854485574,-0.22104593804818548,-0.06780869138966612,-0.0022503649244215336,0.7398002672058055,33.927402,-1.937327308321573,30.004702048965832,3.3715585153234224,55.44621045500562,-5.950041116156932,0.4144530000000006,33.31,1
0.8824160096123215,0.08449780892522431,-0.21912187501794636,0.0030193494432816247,-0.0021061467949353295,0.7395682000756297,33.929546,-1.2295134744839318,30.25966107891975,2.582983835202975,54.49623072784909,96.8980031355562,0.4093359999999992,33.31000000000002,1
0.8811915774422165,0.08592873186688985,-0.21751399654854908,0.051969816688098934,-0.0024557110659871565,0.7403345582464509,33.929085,-0.060369176222039536,30.45405688085612,3.47237438064174,55.59852334819752,-5.723439415021916,0.40933600000000003,33.32999999999996,1
0.8812016601631014,0.08565062712119462,-0.22112871400085343,-0.07313631798050758,-0.0024888537361393557,0.7398706120676195,33.93044,1.5321998258341365,31.044538533865627,2.4522503053442386,54.239617082723214,-114.43316700173901,0.4067770000000001,33.329999999999956,1
0.8802049317691942,0.08637679558396565,-0.21853241683917446,0.058801765989210865,-0.0027633743659343135,0.7407938707801702,33.929672,3.1727057309914226,30.002292450738587,3.599354864447229,56.04817704196177,-65.1706794167805,0.40677699999999994,33.32999999999997,1
0.8803922490021979,0.08374781712559266,-0.22463900479920187,-0.0027015807146356366,-0.002998638150528068,0.7378425606192724,33.931362,4.006771597460609,38.30643416332556,1.797425339759234,48.14549781174885,-38.87719160766374,0.40294000000000096,33.32999999999998,1
0.8828535744927551,0.08099878071770357,-0.21661743586126628,-0.026048341943723952,-0.002702589098122663,0.7392526458032411,33.931385,3.5586281048190593,58.36425923362441,2.9629752888894756,31.292617760593334,13.181854840081845,0.4067770000000001,33.33000000000001,1
0.884274602656393,0.08552868885087,-0.21702842430311953,0.06690549540060144,-0.0021250726663688503,0.7393241719064815,33.92871,1.6066011701378975,53.95163444404341,4.898309853513762,-12.763334484841314,54.73549729175011,0.39654399999999995,33.330000000000005,1
0.8783590196999636,0.08997963326277739,-0.2240388002532738,-0.03575162685827551,-0.0026254632741043124,0.7398888875839053,33.93106,-1.2025187674196014,70.76605621384833,6.650417207020856,-24.214563608973215,14.468031813328619,0.3888690000000002,33.33,1
0.8837648222078536,0.07985186118538201,-0.21889576124420676,-0.06930955570293405,-0.003154907902427829,0.7398232943556796,33.930336,-2.773596901335136,47.690859795280595,12.40693778219971,33.28503946117522,61.606359973810996,0.3927070000000005,33.33000000000002,1
0.8788077745106726,0.09064258271634766,-0.21599344913631338,0.05219032448913607,-0.002110884501757533,0.7388994687793398,33.93442,-2.9824075507651098,19.76354671124418,-0.8472803359747828,55.16831199970199,10.838160480297871,0.38247299999999956,33.32999999999999,1
0.8811693756532921,0.10053190062580587,-0.21732547484547612,-0.036730844847147386,-0.0021486687491694884,0.7398808754905813,33.93343,-3.299152227769654,23.904257619944605,5.2026346135054595,61.44210750127261,-17.45116338942506,0.38759,33.32999999999999,1
0.8851127112374673,0.08452121914774298,-0.20470838808575834,0.04301154920251707,-0.001559432936493071,0.7401060723774671,33.933125,-3.419007487572181,21.39147661750879,3.9138670173393777,61.233298648189376,-61.33978513769279,0.3901479999999996,33.32999999999999,1
0.883884857758748,0.08643369880595292,-0.20620319319965352,0.01909814358469251,-0.0017743114928736826,0.7440204297586722,33.931156,-2.779680584506665,19.536399263798803,5.7123629488925936,56.34054039284856,-142.21092337566665,0.39014799999999955,33.33000000000001,1
0.8863521258469951,0.08465150478759002,-0.1940300462845204,-0.04140385842635209,-0.0022292672028636678,0.7405922942550106,33.930744,-1.1397624370072252,17.792281591808443,6.231661360835743,58.943739965081136,-106.23827821595063,0.3888689999999992,33.32999999999999,1
0.8886011326088583,0.08765152268355565,-0.1901613810977428,0.08911397514420909,-0.0017632530860200479,0.7407183520256215,33.930664,0.6825632356872797,20.01600751735693,2.332820365148115,61.97211249812185,212.16017046960528,0.3850320000000003,33.329999999999984,1
0.8840476251739191,0.08727274094085034,-0.1965247270216515,-0.06880104107569471,-0.0032189120452905937,0.739867965307728,33.932137,2.7055619168172202,25.72972472094853,4.093242893292865,56.236057942685036,164.1683338932184,0.381194,33.33,1
0.8855362665160227,0.08668584596745066,-0.19572760183661483,0.016641271017394328,-0.003141642053519736,0.7398090062239692,33.936913,4.482497463508399,36.08994146186249,5.791081422126366,52.18316215189768,121.65517996194569,0.3824729999999999,33.33,1
0.8859808241306402,0.08765262768924675,-0.1983608170878041,0.019614045050011047,-0.0024759476009792165,0.7411867718501923,33.9342,4.899324988132309,52.682473968684114,9.079780911616623,37.503527125702526,-153.1953375678794,0.3837520000000003,33.33000000000002,1
0.8857107541168524,0.08496984468431194,-0.19933265831035768,-0.045304873480464324,-0.0022851838519143777,0.7368912795485822,33.937088,3.46399798755608,37.64490174902754,6.42898224204474,49.32356208648744,-175.16385988646033,0.37863600000000036,33.33000000000002,1
0.8854734542593669,0.08771920000715297,-0.19899690520742594,0.05716923684642135,-0.0024139978524758965,0.7391113263228838,33.937366,1.282475473158224,29.83161968567595,4.241760872249815,53.4489909844934,89.24290865198718,0.3773559999999999,33.33000000000002,1
0.8844461418072835,0.09268232452614301,-0.20027290044362425,-0.022049499880106967,-0.0030943037482055427,0.7378062813842406,33.94038,-0.6647355182042064,42.55872818495573,6.771690100313177,46.354583293420944,128.70523277698,0.37735599999999997,33.330000000000034,1
0.8847627547844528,0.09027434988052305,-0.19658294330087395,-0.02554546059105914,-0.0026497137524302927,0.742593614039878,33.93494,-1.9624979609924453,51.598622672599724,5.618504030473557,35.430655781453844,-36.38625234685464,0.3747980000000002,33.32999999999998,1
0.8858584089082332,0.09108265904890496,-0.19696494985879254,0.07041144030457269,-0.0020881338225542264,0.7377484877071021,33.93821,-2.5099429744252477,63.837067220598,7.4497828854280295,8.926126083043842,-183.6205309277438,0.3799150000000005,33.329999999999984,1
0.8855447721606253,0.08960630131182673,-0.19473158833465395,-0.06144523504169598,-0.0029466449435822987,0.7423763609538628,33.93739,-2.756773527210581,58.46531710097817,6.1235477013939565,-11.668044154575556,-54.72970920063562,0.37351900000000027,33.32999999999998,1
0.8857362030058851,0.08816009471909728,-0.1939220865620979,0.023442894174913576,-0.00249021963750963,0.7426795480947185,33.94069,-2.5765676485742297,60.05482046894785,-0.05067601689276322,-27.92705672470989,178.4004703277845,0.3722399999999996,33.32999999999998,1
0.886042673261195,0.09182492233816965,-0.19751669362290017,0.033174307595582826,-0.001846298413798312,0.739032996590544,33.93941,-1.8984328554604686,65.61027486335452,0.9622802149466801,-22.615226042839375,134.3100474350822,0.37096100000000004,33.290000000000006,1
0.886141166787869,0.09405523927712245,-0.20137375013212216,-0.11462177875409994,-0.0018815334185623006,0.740924571415419,33.937298,-0.9356549948136097,53.93350121219654,10.918437461150287,20.9729868245248,-63.14002506307354,0.37096099999999965,33.290000000000006,1
0.8818945654293759,0.08990872629316946,-0.20791412066070328,0.05001981658847139,-0.0022902567230231436,0.741127811636849,33.941277,0.03331385127897105,16.563248683154022,3.4075122696390436,59.10273309481185,-136.16863452965566,0.3696809999999998,33.290000000000006,1
0.8814317288075023,0.09792311967431327,-0.2059312472361698,0.0320494327938197,-0.0024353281888732925,0.7407326394238438,33.942635,1.0567534582209288,14.188815505697338,4.839648135719693,59.912253029563885,-63.83997450182209,0.37863600000000003,33.29000000000001,1
0.8834901982053215,0.09457872056756483,-0.2018585001063308,-0.051440685790927726,-0.0022451674721709913,0.740138282778482,33.939613,2.345473097242958,17.112525576116468,4.742179676139173,62.042451427069004,59.909950306120884,0.38247300000000023,33.31000000000002,1
0.8832853043580873,0.09032426173610225,-0.20121079340527037,0.07261784143580528,-0.002018024588387453,0.7402763650722007,33.944122,3.5187026970663022,20.295962373294344,3.0499085838926674,59.42629400346244,-2.646058317532408,0.38247299999999973,33.31000000000002,1
0.8844210801934105,0.09375803575644424,-0.20216091974709022,-0.028663501083847766,-0.0028382413236561466,0.7398049329833738,33.942265,4.073695016398016,16.390723485634318,3.8717201150990137,58.39777629141557,-180.64250851017908,0.38247300000000056,33.310000000000024,1
0.883405476694352,0.09077127353942029,-0.20553203274579163,-0.00170632213199017,-0.0013733788582439386,0.7380431777804541,33.943653,3.3529409832683137,16.616040360947178,1.5461837633525795,61.82305893137308,190.9766985525475,0.3811939999999993,33.31000000000003,1
0.8832509600694604,0.09425642582174472,-0.20439234223703812,0.06171022930375923,-0.002314211321895346,0.7403124960932242,33.940136,1.5812914959706639,22.370832530030885,1.0322768045592856,59.04704951369624,145.80770868380472,0.38247299999999923,33.31000000000002,1
0.8832488627747331,0.09309580673512034,-0.20629558770420695,-0.08571753713437862,-0.0016796366877335196,0.7410543023567404,33.94335,-0.3785967406657913,24.01191481718595,1.9699547822739643,58.53920974376878,50.71701805328112,0.3811939999999999,33.31000000000002,1
0.8836383485958954,0.09056343560275426,-0.20404825315572614,0.036454771284924546,-0.0027986252499966192,0.7432988307334674,33.9461,-1.7858401347873807,26.622551926468955,3.134667124868715,56.44399383318408,-17.68788596309877,0.3863109999999999,33.31000000000002,1
0.8832142410397633,0.09112276697019903,-0.2048914349729181,0.028222210406968935,-0.002133356136546352,0.7396032308418091,33.946987,-2.5919766003071256,28.875109824042607,2.867340620024074,55.86193091424654,-156.3182952613342,0.3901480000000005,33.31000000000003,1
0.8857347423738385,0.0890649837219349,-0.1977790991322649,-0.07617986011067217,-0.0023211016151161367,0.7412120985430577,33.94583,-2.5775176495597094,31.712870856700995,2.9807456103585914,54.15984845613075,29.030574434195337,0.3837519999999995,33.34000000000002,1
0.8870488725407882,0.08657098259553701,-0.1955413979138214,0.0807510024463448,-0.0024816165009072543,0.7446545284168044,33.9439,-2.0717743573360945,31.596844502892722,3.7637844347209866,54.70529844438763,113.51881966758897,0.3824729999999999,33.34000000000001,1
0.8854975470742751,0.08428168902918577,-0.1979752180296839,-0.05740391892333053,-0.0018156516088795643,0.7404998350835549,33.948715,-1.6158326453015042,29.14319558674386,2.3042171703873207,55.05188799571512,-75.39228222941306,0.3850319999999998,33.34,1
0.8861708815992344,0.08886839283315996,-0.20269694791748807,0.004271290498245448,-0.002592322691489905,0.7451212955688545,33.95,-1.2014440137996898,32.75786625387109,3.4438819390654682,54.21168805318826,-46.92702581899423,0.3837520000000005,33.34000000000002,1
0.884279690424982,0.08466533547762546,-0.19761074443531584,0.045647919918621,-0.002632805762295902,0.7427133170464646,33.94994,-0.5660941559919768,31.680407185008335,2.4863167388620537,53.93909251735853,0.6776842861364749,0.381194,33.329999999999984,1
0.8895246041563167,0.08464297255907854,-0.19232999076313567,-0.07141233448662339,-0.0013176545038257974,0.7401621369048753,33.948044,0.7276865633636388,33.26266870145519,3.163443241920765,53.71866674436815,-25.707247063324953,0.3811940000000005,33.32999999999999,1
0.8860759106259269,0.08055096025507257,-0.19478555822401872,0.08285985738911261,-0.0021658647197214105,0.7407978928951195,33.950554,2.2390263021924044,32.518879740291226,2.8089600924927303,53.854710165283976,15.288098228123221,0.37863599999999986,33.32999999999999,1
0.885367092113822,0.08205699310202483,-0.20214128095193404,-0.03180901716579696,-0.0017516479041879587,0.7446838018629639,33.94933,3.3120967820843146,32.98234791247069,3.1790366231837743,53.894481443831054,1.486724900829153,0.37735600000000025,33.33,1
0.8849105870358944,0.08346737639193659,-0.2034639210887383,0.003485135872491669,-0.0025941598588561225,0.740138447100086,33.951004,3.7378345576574743,32.09716771610099,2.8347713231255556,53.73936852593991,-20.964724754245417,0.37863599999999936,33.34000000000001,1
0.8858845713503675,0.08272021932186382,-0.20070287316760943,0.05580943031380434,-0.002027278661264936,0.7420351248221412,33.95129,3.037308432655681,32.617570261462696,3.1526470484906004,54.10534814187908,-26.009862268565588,0.3773560000000003,33.34000000000001,1
0.8868773086265235,0.08337437439999308,-0.19879617908952274,-0.06168978889946827,-0.0021752428787608935,0.7429507734235279,33.952435,1.425561290079991,31.835800987489566,2.858445483875668,53.910889756217976,-5.445110397816786,0.37735599999999997,33.34000000000002,1
0.8866076454835315,0.08161786617977775,-0.20032997989228987,0.06305875410102077,-0.0018373157906525935,0.7409318371419423,33.954876,-0.41318840862722767,32.09650546971065,3.1317785391420827,54.10150504317769,14.513741829153707,0.3696809999999998,33.34000000000002,1
0.8851137497531401,0.08396960437797929,-0.20217466356194166,-0.05319960830869826,-0.0019194073628231911,0.7403409354541163,33.95691,-2.0641065071049347,30.66248912865158,2.8769086908444215,54.39008946332918,5.12339999848747,0.37863600000000003,33.32999999999999,1
0.8865815466555338,0.08563053618169944,-0.19902830906821264,-0.0022440480363425217,-0.0027029793838102235,0.7409096950557433,33.95276,-2.848501745659722,31.533026224206083,3.1152824916722652,54.63564587281968,-5.353798819742167,0.37863600000000036,33.33,1
0.8858855059760351,0.08368745446105666,-0.19966980057024902,0.0477529112257702,-0.0024307190607905063,0.737668362917015,33.955227,-2.903552372954261,30.758428314789,2.8918344482279927,54.95821753762573,13.668846515110603,0.3786359999999996,33.32999999999999,1
0.8861623284132689,0.08452094694502539,-0.19871571084356082,-0.0775960873795928,-0.0024371718047244877,0.7459764489614445,33.95451,-2.6953298379852004,31.25068564812027,3.1015652152906115,55.04848446957883,-20.97862585659487,0.37863600000000003,33.330000000000005,1
0.8866064930410023,0.08324567083289441,-0.19747727172768667,0.06308360729965216,-0.0016584146673452103,0.7392135943925758,33.955376,-2.255110967882,30.752332584633084,2.904707831574828,54.861639167182034,10.128951055403709,0.37863599999999936,33.310000000000024,1
0.885764490447077,0.08360930320736563,-0.1993105327752431,-0.0246770435305838,-0.002294696935777204,0.7431332532515467,33.959465,-1.7165987230482347,31.245652996019484,3.0890911941184704,54.987622897583535,-7.688037950326535,0.3786360000000001,33.31000000000003,1
0.8868860882395404,0.08557528046729526,-0.19871664191569255,-0.042547975421181695,-0.0016691137415808315,0.7429418786571992,33.956898,-1.0111437586436745,30.750071845458784,2.91749259201198,54.86699048357378,5.682623996220021,0.3786360000000005,33.310000000000024,1
0.8867834610988923,0.08497173115405615,-0.19612637422461754,0.07972730590890152,-0.0026644158646329454,0.7445230874417162,33.95737,-0.4234422957811861,31.276610082503172,3.0744340187084283,55.01255525667395,14.091502524592428,0.37863599999999936,33.310000000000024,1
0.8860058087241123,0.0858849485790945,-0.1999447691151029,-0.07627951485924495,-0.002339247380553771,0.7425981823148542,33.960598,0.37714619423766943,30.403216953769498,2.939128644202275,54.98627293540218,-5.926839701392567,0.3773559999999996,33.32999999999998,1
0.8840867661882178,0.08694431428896866,-0.20404548708073625,0.04017252640211126,-0.0024213741837752103,0.7394666395368857,33.95644,1.7017742888917058,30.482556136946172,3.009890848643999,55.01336863620464,18.179725268256167,0.3786360000000006,33.32999999999998,1
0.8838811351065671,0.08716674255906,-0.20116107294322957,0.026255735102143588,-0.002889872666010535,0.7431155011358539,33.957348,3.1806186560317014,30.503291668122237,2.2106498085175477,54.98825271779615,8.852202560057,0.3709609999999998,33.32999999999998,1
0.8841187756876637,0.08559787896091708,-0.20529042531270592,-0.05783804195168011,-0.002300887729962201,0.7425728764437151,33.963634,4.244502195087059,30.793926785985928,2.7615871104447316,55.00822647531659,-2.7693039745447483,0.37735600000000014,33.32999999999999,1
0.8841479938796658,0.08841018473573564,-0.19990567939414794,0.07838218983177805,-0.002359983758384229,0.7431767010913554,33.96462,4.2741838257166584,30.81864748402729,2.4578334026986512,55.00015493544964,11.695431370698154,0.3786359999999989,33.340000000000025,1
0.8883760074525812,0.08401045955246862,-0.1989672047525952,-0.03757215497447337,-0.0019130726586228173,0.7428119524321671,33.962452,3.0307738420827577,31.02940055148176,2.9816878121228334,54.96384708105918,-8.698537062886166,0.3773559999999998,33.340000000000025,1
0.8842700230001084,0.08098808256507907,-0.20621361636100427,-0.001185371707424692,-0.0020130552605472753,0.7432879642543043,33.961514,1.4844744314813862,30.88234074371076,2.9532384297160563,54.879115066360725,16.55504133054248,0.3773560000000003,33.34000000000003,1
0.8854400532793063,0.07987189723270602,-0.20619510779955524,0.05330810612389943,-0.0020705206583719127,0.7417451210026182,33.960915,-0.06663022329120175,31.130665392134897,3.052953893782644,55.049810744436115,10.849311220821148,0.37735599999999947,33.34000000000004,1
0.8851208285975768,0.08333718927642433,-0.20347905200610797,-0.0767702173611567,-0.0020457252608095263,0.7423650692582039,33.961464,-1.644496325479842,30.73952080109876,2.9465481311086332,54.96118927886106,-6.21424297912137,0.37735599999999975,33.33,1
0.8864891614242895,0.08411003974835986,-0.20417228191432912,0.0525519081213972,-0.00253674892835344,0.7436874809575735,33.964397,-2.7169813535908194,30.37449972343189,3.0524437867811227,55.03453137148085,12.283171873928161,0.37735600000000025,33.33,1
0.8832957328736017,0.08479212935429713,-0.20779321271219617,-0.009002407927644262,-0.0019718573691336967,0.741928216655712,33.963226,-3.389053374562583,30.16470721585087,2.9491000967820353,54.96759267005927,-4.994348942747012,0.3773560000000004,33.33,1
0.884054021983107,0.08516380903111664,-0.20778488119344238,-0.04884289785084733,-0.0024734008575370103,0.7434210683129564,33.965366,-3.5526361045672594,30.158042908724052,3.0491448302841446,55.03127584578873,-4.866541516168677,0.37863599999999986,33.330000000000005,1
0.883371603777008,0.08587112396118221,-0.21126182485465803,0.08689293908335634,-0.003093390412983187,0.7413942157062082,33.968872,-3.339650741078312,29.871093952038304,2.9526900180674005,54.969292233498564,8.608458797646636,0.37735600000000014,33.33000000000003,1
0.8840307200044367,0.08546982509387854,-0.20908704022120325,-0.07586331820877777,-0.0015208905670413622,0.7423419636168309,33.968204,-3.000111916692542,30.118603917362083,3.0454545003729447,55.03051033395717,-22.374152079941975,0.3747979999999997,33.33000000000002,1
0.8845089075988349,0.08570634953528292,-0.20481520265809577,0.033840014839590614,-0.002638061361377639,0.742711716593581,33.965607,-2.0911202897740293,29.887883214983937,2.956393729496502,54.96941354071854,11.961246635172552,0.3786360000000002,33.33000000000002,1
0.8855308336262814,0.08486176780408121,-0.2002810023339182,0.021810469635365513,-0.0024894852261814013,0.7442189280934388,33.966717,-0.5732344347449293,30.10731250586508,3.041778194098237,55.030884278275394,-2.3286738534772993,0.37735600000000025,33.33000000000003,1
0.8860040921824226,0.08632276039539655,-0.20267995786836276,-0.05739354764685659,-0.002466132408799013,0.741760122172677,33.964935,1.3719618175477748,29.89609962342966,2.960024595337133,54.968623918788204,-7.574516443928609,0.37735600000000014,33.33000000000002,1
0.8821856552528707,0.08556879597360387,-0.20620092179904564,0.0825228716489234,-0.0025617975147443853,0.7483782787785608,33.96519,3.2536295037332366,30.102633085231023,3.0381987341245753,55.03204856887377,6.9937795759344406,0.37735600000000014,33.33000000000002,1
0.8841055552986966,0.08676194990134871,-0.20599575315338853,-0.0622548957064049,-0.0022169984354400577,0.7420319365316276,33.96824,4.417279646868703,29.89302355801932,2.9635535239722595,54.96710192420221,-18.750478358911675,0.37863599999999953,33.33000000000002,1
0.8854800430707397,0.08371875960429086,-0.20380644040422843,0.03018717257801414,-0.0021463838370165502,0.7432666186586538,33.969383,4.244939375548536,30.143143097073374,3.0347153135674967,55.033928229723266,1.2982059456412658,0.37735600000000097,33.330000000000034,1
0.8850724974308263,0.0842160148013476,-0.20280468735285653,0.028735544624284032,-0.0019052557353800353,0.743214393055453,33.96742,2.7082705580008173,30.18036610442372,2.966999188777619,54.9648510438792,3.745843137041382,0.3773559999999996,33.31000000000002,1
0.8866655044772145,0.08226206564676256,-0.20007697022741647,-0.05987462722536539,-0.0022400490943930793,0.7425602403870982,33.971195,0.7426440355035708,30.27939088918499,3.0312976657477466,55.03657634749311,-13.73212126562428,0.37863600000000075,33.31000000000002,1
0.8862180454975268,0.08285825689194788,-0.1998474231573698,0.07727010825631161,-0.0020708489447990148,0.7462729226593843,33.969257,-0.8130156453057304,30.152695305391276,2.9704001802717546,54.961766785857805,18.52643356298405,0.37735600000000047,33.31000000000002,1
0.8861700739585915,0.08028979867323062,-0.1988555322178284,-0.05295418500405479,-0.00224204787725386,0.7427534025251394,33.96812,-1.9584253618092617,30.20783273753777,3.027900499128125,55.04015031168037,-4.696423323799748,0.3786360000000004,33.310000000000024,1
0.8867121549907834,0.08337912543718132,-0.1960867273745077,-0.001035292276848249,-0.002249336644398171,0.7418112466715476,33.968605,-2.415302093818552,29.948401375537582,2.973807777155867,54.95763160890564,4.3188702842284,0.3735190000000006,33.309999999999995,1
0.8868320404507605,0.08101762791102801,-0.1950447829342692,0.05089067866432733,-0.002015836323015449,0.7446021004232448,33.96847,-2.5072093912897695,30.02231971380757,3.0244668428090065,55.04494140244322,4.075609059430285,0.37863600000000036,33.309999999999995,1
0.887013819385433,0.0838172518308953,-0.1972929457937634,-0.08870492264281069,-0.0023603148828184248,0.7448827436359627,33.971134,-2.355447787618455,30.111353975713886,2.9772842809318965,54.95205851747401,-12.811502327426492,0.3773560000000008,33.309999999999995,1
0.8870843525891938,0.08098808513073942,-0.19588972271132868,0.07477451366151384,-0.002174585955540034,0.7421412092263522,33.971737,-1.9339152533393835,30.31727181832907,3.020930254423026,55.05146692501558,13.347652747578495,0.37863599999999936,33.31000000000001,1
0.8870949176886658,0.08310909017818768,-0.1979835017537452,-0.03210422375043333,-0.0021730615431774336,0.7430508689323269,33.969784,-1.4769898351033885,30.06631703234222,2.9808966832074595,54.94434445394673,-9.599314637870046,0.37735600000000047,33.33,1
0.8870035715464384,0.08276824970528399,-0.1949503612328303,-0.03301532354844961,-0.0025058050441270152,0.7462419615883867,33.971703,-0.7852422074050276,30.060041056729688,3.017232881344899,55.060708790640945,1.4898416351511707,0.37735600000000047,33.33,1
0.8855086047101199,0.08502907476762754,-0.20123029279278004,0.08613251186772133,-0.0017725494951650288,0.743778512355846,33.971863,0.47896687664652654,30.24277072061219,2.984668459344497,54.933059840037465,12.171276696805716,0.37735600000000014,33.33,1
0.8841025797711967,0.08397607113717419,-0.20105974170321528,-0.07566330973564551,-0.002440161453261242,0.7466028335408886,33.970943,1.9921537968876828,30.21748856445039,3.0134530452082955,55.074889870521126,-16.099007666900967,0.37735599999999947,33.33,1
0.8838458173886388,0.08794965301095749,-0.20549480113593097,0.05391762469372123,-0.0025481132983168515,0.7438481649726079,33.971527,3.3747392735097894,30.265905460516382,2.9882241789724175,54.91432224677812,12.530699435577246,0.37863599999999986,33.33999999999997,1
0.8851358576724652,0.08216491186663369,-0.19893355465265528,-0.009382317364116315,-0.0024303410420729345,0.7450165231358722,33.97314,3.9519799581861923,30.15198228044056,3.010924335483904,55.10270448152559,-5.531176263194544,0.3786360000000007,33.33999999999997,1
0.8888603950985658,0.08347336674821593,-0.20396042004643333,-0.03820706172617245,-0.0023608862573787294,0.7440519357806071,33.97485,3.584955086499618,30.656202063668864,2.98625840090698,54.847277148086576,-4.8997091326930455,0.3786360000000007,33.33999999999997,1
0.8960135012892512,0.07112830510342609,-0.1857213202708496,0.05815017575977868,-0.002138207204965733,0.7448790041386766,33.97045,2.286408706009699,31.7174635809466,3.047721114703571,54.279302833383525,14.201181673832057,0.3684020000000006,33.339999999999975,1
0.8946114106752007,0.05132128619087072,-0.18232665590086677,-0.05032788829450914,-0.0026042269494280655,0.7435745686400974,33.973866,0.6386627149013815,33.47127525553577,3.6253541726389913,53.356586339220605,-4.491224036439626,0.37863599999999953,33.330000000000005,1
0.8952934920755794,0.00018619404647632592,-0.21149275283583907,0.03724349173454299,-0.001996667467382175,0.7458844988964323,33.9762,-0.6259290324328509,32.898183185994846,4.300603691954753,53.57880733909651,11.196222748436993,0.3786359999999997,33.33,1
0.88536907665265,-0.0094378439709144,-0.2501264640340498,-0.01203314351116879,-0.0017339828878900963,0.7470194318299369,33.97482,-1.8148087474881527,33.52054465267774,4.643732538532246,53.05162325373194,12.9425779712635,0.3773560000000008,33.330000000000005,1
0.8950459453324968,-0.022200282697285096,-0.2180617051773011,-0.09743273181250534,-0.0020632762963865387,0.7449221253325441,33.97741,-2.4792854179310995,32.893502786389185,3.4566028006103995,53.947743359644065,-4.893049112975095,0.37607699999999955,33.33000000000002,1
0.890492772358391,-0.0008050283928780396,-0.2137576243578587,0.10605859649297592,-0.0029832559274024025,0.7476633525670519,33.977432,-2.6098722773987064,36.65691190334998,-0.327854268281159,51.21169578162881,5.473294930696288,0.3747980000000002,33.309999999999995,1
0.862343119318455,0.04824276072427258,-0.24716918873980115,-0.03072076517895877,-0.0023503290432639354,0.7466601092303385,33.977055,-2.362650776299521,31.853308822015986,-0.37931483014214046,53.99787772621535,-9.701919575007107,0.3773560000000003,33.30999999999999,1
0.8775230963716828,0.09367359585000673,-0.24312782237439892,0.044761289578298794,-0.0023214487094984286,0.7437899416405572,33.977596,-1.5408048944033,28.5683685605411,-1.7620278026951386,56.074500647155574,-1.2782839622008109,0.37863600000000003,33.309999999999995,1
0.8735596539095869,0.13253222423553968,-0.28010211696094434,0.04110798709875904,-0.0024762390808127214,0.7475681549735459,33.979504,-0.14149969832201184,31.372825276302223,-3.8930412074545924,53.9811039064561,12.54173691189809,0.38119400000000114,33.31,1
0.8527747609362814,0.1728325513535794,-0.23674597112082016,-0.08278194292070447,-0.002648605120128767,0.7466160599142054,33.97688,2.105486179583133,32.29248963283041,-2.527337519868604,53.571793552261106,-29.66894634428584,0.381194000000001,33.33000000000002,1
0.8879826484877753,0.09148079075563485,-0.22892798779337217,0.046766767382414746,-0.0026734230634437744,0.7444722953237748,33.9795,4.111824198210564,35.61178881336615,-2.992005802459071,52.035817914653464,53.56168264632253,0.3786360000000005,33.33000000000001,1
0.8855260713480145,0.01945189639053391,-0.24532444234154602,-0.04717882321791437,-0.002199392220170675,0.743458801179015,33.97845,5.346780652641155,42.15290037834436,-1.8893299353739934,46.40355763137097,82.53774297283914,0.3747980000000005,33.330000000000005,1
0.8994470578077202,-0.024298593254828874,-0.27194391795696976,0.08204734868975243,-0.0026328576047324487,0.744817121861277,33.976196,6.288926766745192,44.359809163363344,0.43784829360653327,44.5509389844846,-6.406747053908093,0.37607700000000055,33.33000000000002,1
0.8435294739334188,-0.016843804077426687,-0.32154001429949636,0.08673384508574121,-0.0026498405616336824,0.7421866219210048,33.979996,7.649052094026849,35.54103069787782,7.013015954949897,51.848467387341415,-134.47246160039646,0.3722399999999998,33.33000000000001,1
0.8557145854161258,-0.007985700469831165,-0.32825785970367427,0.013095616276789875,-0.0016161948906872428,0.7481838016846339,33.977898,9.723109924881257,32.25749948135857,6.024867956718572,53.75918488721459,-88.63685676631538,0.37735600000000014,33.33000000000001,1
0.8754073930236358,0.021855719303902107,-0.2963294131723709,-0.06571228278788564,-0.0017360256161247903,0.7448311175138459,33.98084,11.637586072413523,35.447338617391914,2.9561303779298176,51.509395363984616,91.33334219998063,0.3773560000000003,33.33000000000001,1
0.8675226113599077,0.05946079506418052,-0.31501268629191115,-0.09253375998398494,-0.0022426519302688845,0.747012169747032,33.980232,9.342130649203781,35.652696952176534,1.300024117367358,51.28654872521402,-8.808110987443607,0.374798,33.33000000000003,1
0.859759339741921,0.029909425979145258,-0.32029759400223645,0.05984515505224267,-0.0021187944715006647,0.745902724429197,33.979412,3.3220444665370925,36.32313548523105,3.1616635220959837,51.078891435657155,-29.640303428748542,0.37607699999999894,33.31000000000001,1
0.8555611598294005,0.031651019787076545,-0.332541622127405,-0.1299157972603675,-0.0017778226903925724,0.7468505325676877,33.97785,-2.948638950567223,35.0837322635684,3.5160856619211454,51.821199771249596,-23.341759541695527,0.3747980000000007,33.31000000000001,1
0.8541092675030887,0.04501900709913398,-0.3352255271897238,0.029033369417080408,-0.002539025682567344,0.746482278474253,33.97925,-7.990491050767419,32.555998451119244,3.18842248379102,53.72432590072351,-21.5041897278675,0.37351900000000043,33.31000000000002,1
0.8582354380459186,0.04614810890260696,-0.33157949552438254,-0.025632005674979166,-0.0029470862862746258,0.7462071707516308,33.97789,-11.228944577164231,30.8007022979473,3.2182247274990186,54.476852359493535,-14.747149159954915,0.37607699999999966,33.31000000000002,1
0.8530891847792186,0.04244504960485323,-0.3337321972653543,0.010398853946900091,-0.0021782270865147646,0.7443081639035285,33.97741,-12.589357270152915,29.508203599127068,3.3328894970602967,55.29353585483313,-15.055324868474646,0.3747980000000005,33.330000000000005,1
0.8598225367575449,0.033530274345756075,-0.3351833776019697,0.07212663420230438,-0.002426198645475901,0.7449794729903104,33.980595,-12.39347245105592,29.85903638517585,4.00726709434217,55.348444928069405,-36.385359396643544,0.3747980000000007,33.330000000000005,1
0.8550044982237327,0.04348921861310126,-0.33438260543340276,-0.06785150237860375,-0.0020844523317280024,0.7461074869166852,33.984856,-10.859251619009722,29.098888735843275,3.993971411837516,55.474934406504346,-43.72511819560833,0.37863599999999953,33.330000000000005,1
0.8538414321991272,0.04467090099043211,-0.3380685406175646,0.09231469464486977,-0.0024141462974090907,0.7472862899506981,33.984318,-8.471826218249557,25.930558600539857,3.9395620535856546,56.82584052222499,50.70563712124603,0.37863600000000003,33.33000000000002,1
0.8531338827770232,0.049535328121846495,-0.33556328712349426,-0.08765333173878105,-0.0024896979763910808,0.7460028905478885,33.98253,-6.354259739964762,23.980558066072366,3.3994252993234935,57.45851054408182,60.09334745241612,0.3888690000000005,33.31,1
0.854827538107223,0.045944492125117344,-0.33810216048519304,0.11037675868002797,-0.002818510093162426,0.7462686695754318,33.98689,-4.504522846359927,27.061664241469675,3.589030318124011,56.80977330359278,78.4485783496872,0.3901480000000006,33.31000000000001,1
0.853718001673855,0.04364273794078258,-0.33571299843480423,-0.04862585770351155,-0.0018697587858516242,0.7468727844373646,33.9885,-3.074357177841009,26.498206754004755,3.4826916660709255,56.94751347742713,16.89895072753842,0.38631100000000024,33.31,1
0.8549281650124441,0.048279437280603056,-0.33633089779702957,0.008378749621488034,-0.002214825298526316,0.7460862223298743,33.989777,-2.1754520138518383,27.72333397317587,3.4264685411040463,56.046685892661024,-19.223104657936275,0.38503199999999993,33.31,1
0.8552632780918473,0.044721683652876494,-0.33280382647742424,0.03642706096975587,-0.001501101719223521,0.7454653877529803,33.98894,-1.4596570438470182,27.67768471520619,3.613697548376141,56.07582337057075,-19.4287181270103,0.38503200000000043,33.33000000000001,1
0.8579013214983258,0.04833125224659278,-0.3281249828503012,-0.07563682471390405,-0.0033696455062180337,0.746782758476589,33.991703,-0.6753930193302924,28.326573152253584,3.5599612053647793,55.90372874040229,62.71678551963522,0.3837520000000003,33.33000000000001,1
0.8611575608904887,0.043681237124558354,-0.3172309274709929,0.095962613392731,-0.0017255440200736856,0.74615277291025,33.992207,0.48076725938378573,28.097414476029027,3.436091890611128,56.12508824324499,39.47353477183972,0.38247300000000006,33.33000000000001,1
0.8688884594090249,0.044485567952539794,-0.2957299465205283,-0.10813084920058397,-0.0027527439765952346,0.7457607381814892,33.99184,2.395798558941266,29.451117922922407,2.970064517133155,55.681887927086784,-5.569446476480627,0.3760770000000004,33.33000000000002,1
0.8693400547251621,0.04618333185809143,-0.2805927773686394,0.10099038105164762,-0.002237903383439385,0.7454741638027531,33.995636,6.139871189225027,29.80844696326912,3.0232313518447684,55.076446002500404,3.4231420406314226,0.3786360000000005,33.33000000000002,1
0.8712814908140324,0.04515611379638043,-0.28438361794700806,-0.040431911794670206,-0.002242949257638981,0.7462794763251944,33.99697,9.974985648279189,32.54085330907294,3.2060361062150564,54.0135683066902,-6.1292108197193675,0.381194,33.33000000000002,1
0.870794714230199,0.042254811294086925,-0.2869597528799448,0.008928436458274068,-0.0024537024222152388,0.7462145151846664,33.99845,11.2420338645198,29.827584981941907,3.324402644845142,55.24355123401746,-5.91473174692573,0.37863600000000086,33.33000000000003,1
0.8684794353048553,0.04184069535225306,-0.2955195321000736,0.021892407420876055,-0.0023178356384372764,0.746531624172127,33.99971,9.33995559335323,28.92856697440898,3.5386487574586876,55.9014445499949,11.370493813912049,0.37863599999999986,33.330000000000034,1
0.8664495409162102,0.04384630691841989,-0.2992800652305594,-0.06931739868008206,-0.0029364984630420475,0.7466037142257426,33.999256,5.797402460111471,29.26701468710247,3.558260865684258,55.60839368032524,6.2327165325661245,0.37863599999999953,33.33,1
0.8661345885126124,0.044755474415630554,-0.3056883751300937,0.0970952613934365,-0.0026313319783819933,0.7472795691942898,33.998856,2.4811827565139777,28.99051904542923,3.1559061979284193,55.93793327132273,9.783110111515292,0.3824730000000004,33.33,1
0.8632104617790161,0.0434291788324813,-0.30812606608925724,-0.11109816755356383,-0.0026722910797826447,0.7480969748320612,34.004444,-0.1569052932030898,28.957511146806343,3.270278823735574,55.93942197393999,-85.41120359964506,0.3799150000000002,33.33,1
0.8639516858399036,0.04575471211275125,-0.31239339031950164,0.09966075057282112,-0.002368091378846067,0.7487177406831026,34.00473,-2.120312454477499,29.067908303520156,3.3685961352880436,55.79462773737103,-1.0736947468320193,0.3799150000000007,33.33000000000001,1
0.8611197738617448,0.04520519069793189,-0.3137373297871028,-0.059546195897142155,-0.0022074817102666977,0.7479733570479725,34.004906,-3.4209517540493386,28.917393478876953,3.2013891147748077,55.839275889807446,55.69880005512719,0.3811939999999998,33.330000000000034,1
0.8612797045352163,0.04768699912171219,-0.31672418783560413,0.01690772199164098,-0.0021290319796550055,0.7459300987899441,34.008926,-3.9223954593206587,29.091808179612347,3.1897543096039387,56.034417385301666,-42.36202313981507,0.37991500000000006,33.330000000000034,1
0.8602487293683011,0.04625584051172264,-0.31730062702969286,0.0354537487841522,-0.002564039821417286,0.7464110528985023,34.009098,-3.8703351134173807,28.90217091105728,3.313247458038335,55.86041908248417,-24.846396068724196,0.3799150000000002,33.33000000000003,1
0.8613633143337946,0.046742790207619164,-0.31744093401570905,-0.07259007081061118,-0.0028450732064853944,0.745794306662873,34.007526,-3.704544541008424,29.10186428982431,3.5473342418440468,55.999230241776424,-11.11204806321591,0.3747980000000004,33.330000000000034,1
0.8604481474552853,0.04516917352340348,-0.3173759844876763,0.10475870228844597,-0.0022483278363768016,0.7453875621854622,34.00954,-3.2982546467280867,28.895406660052114,3.3043882981523476,55.99065286188826,3.6871972831330835,0.3799150000000007,33.330000000000005,1
0.8607494724747808,0.04700093218637092,-0.3184580368187037,-0.09939425558508792,-0.002340192473532813,0.745978599704456,34.01429,-2.8760640884205975,29.106430211443527,3.6695359436449744,56.01762161024814,-5.902338349394415,0.38119400000000075,33.330000000000005,1
0.8597615164542122,0.04668220872972232,-0.31931008235657504,0.09220561817806072,-0.002214204081131154,0.7454068605087839,34.015057,-2.396574598323567,28.892359406383726,3.868748493502915,55.87340197720098,6.156121091800274,0.3760770000000004,33.330000000000005,1
0.8593294054294895,0.04776154464690788,-0.32192815423679094,-0.04445172662778675,-0.0017763435331516614,0.7476740157445255,34.012447,-1.9658108385274726,29.108402269416388,3.7063756533730263,55.98716023721108,-4.4890499050515915,0.37863600000000036,33.33000000000002,1
0.858857712234643,0.047206790678713195,-0.32095225888725376,0.0029424980331977852,-0.0028717871815324195,0.7476292299736081,34.01197,-1.6250249345075818,28.891161522493068,3.6603895225886065,55.88256567364781,-1.1502457735230622,0.3773559999999993,33.31,1
0.8592328365054936,0.04756307836122838,-0.3223452794949023,0.057584941840034785,-0.002040866729126646,0.7474898259003492,34.015057,-1.189612994637784,29.109037460692296,3.491676845631398,55.91702160969702,4.916818770447228,0.37991500000000067,33.31,1
0.8583753450458877,0.04731090260812217,-0.32301862821632976,-0.09155920614807572,-0.0017772474591987231,0.7457325885921673,34.013947,-0.7291518164183434,28.890935443670084,3.692468108725952,55.67010617028833,-4.081412893120198,0.37863600000000025,33.31000000000001,1
0.8594245014052201,0.04764669199800288,-0.32365439734872586,0.11012026806700018,-0.0017782115640160993,0.7479602533596919,34.014427,-0.4223501397727061,29.108970140181395,3.503023387374204,55.87667489002292,4.937030423578682,0.37991500000000034,33.31000000000002,1
0.8581419104073076,0.047012802878232805,-0.32215361912924073,-0.09568706521937055,-0.002060861564948914,0.7477286321957571,34.017593,-0.24834976494208388,28.89120467543876,3.578306396583613,55.90500929142423,-1.4440777106915044,0.37735599999999997,33.330000000000005,1
0.8601356251136859,0.04720684948143833,-0.32155602512675746,0.04375010233677426,-0.002279721194491379,0.7466898517097714,34.02041,0.07308171406339818,29.10857671282534,3.252556406933983,56.00539503987277,4.37300767623917,0.37991500000000034,33.330000000000005,1
0.8591454493183728,0.04701138806194051,-0.31853312883034574,0.032229047779417014,-0.0018916598396151911,0.7474407287088773,34.019234,0.61264646552716,28.891648523816695,2.9462475732733115,55.894766115145835,6.155048457626148,0.376077,33.330000000000005,1
0.8589590470228021,0.04628257092730232,-0.3203609762828897,-0.0831189965187374,-0.001920045912974625,0.7474141009983314,34.018135,1.4360476976269276,29.108164735022257,3.122030044018041,55.900616499762904,-9.788643748835016,0.37863600000000036,33.33000000000002,1
0.8594298816823621,0.045216440201580284,-0.3220430084383259,0.09520414479654542,-0.00202552769603748,0.7478957658352653,34.02235,2.194589018582529,28.891916207729164,3.2964872441241413,55.92358527956788,6.108368792462203,0.3786360000000002,33.33000000000002,1
0.8599351538869519,0.04625011217491802,-0.32191228162645735,-0.07452837062061367,-0.00238002413135815,0.7463179645248912,34.020668,2.1791901116621224,29.108232677381146,3.342078724040351,56.064817515348466,-15.06584579333677,0.3786360000000006,33.33000000000002,1
0.8591065103609499,0.046160144961274685,-0.3208737484000863,0.006658781811230676,-0.002432779068398596,0.746778562849819,34.019135,1.5834924837130275,28.891102376556102,3.4154370876798623,55.79827326022779,17.222565860632134,0.3786360000000009,33.33000000000002,1
0.8594324440067409,0.04674010905574767,-0.3220560321321815,0.066289171211212,-0.0022084424583077348,0.7495857628523334,34.023483,0.9029401394809726,29.110970179014174,3.515099077699948,55.89050181439032,-2.5749469270949903,0.37863600000000003,33.33000000000002,1
0.8585138364459858,0.04650068847095231,-0.32216164353423943,-0.10481479399738108,-0.002576109041588251,0.7466084832253314,34.023144,0.4457539310404498,28.88056496087456,3.354958254932334,56.03562688556632,-6.861529382447266,0.379915,33.329999999999956,1
0.8596845986709266,0.04666954449329882,-0.3228463994450289,0.08407154661881155,-0.0021069596065301315,0.7500293066572066,34.026318,0.356575209310459,28.979313883356042,3.7886909582993296,55.98088710527651,15.532044681037918,0.37735600000000097,33.329999999999956,1
0.8578051488160365,0.04687287221259915,-0.3213400070149267,-0.00779085299711681,-0.002167481313983493,0.7484737129875934,34.02209,0.29332554973049707,28.913462088830485,3.2938897496727026,56.01134278566007,-2.8644710672837568,0.3799150000000002,33.329999999999956,1
0.8598655241840774,0.04726337690737302,-0.3225122291599503,-0.07359293518220653,-0.0020725329524596135,0.7474018327223914,34.029125,0.24259556226597517,29.091594591917197,3.5397925619895148,55.993649097442415,1.6315150284754267,0.37735600000000047,33.32999999999997,1
0.858384989791066,0.04557689274796547,-0.3231155996481197,0.10984049438002472,-0.0022643915553514247,0.7475439700570523,34.03034,0.18854622653565736,28.90795512845658,3.658702630703083,56.00233964649449,3.008651856301876,0.37863599999999953,33.34,1
0.8585293833253833,0.04691662608967189,-0.3240365922982524,-0.06677418748789206,-0.0019602679224980817,0.7490020257477874,34.032272,0.10244727785800223,29.090046952554975,3.6851214502355716,56.00168643355888,-12.802624586161464,0.3747979999999999,33.34,1
0.8584797294431922,0.04690075171039044,-0.3242678624652267,-0.005276454425278268,-0.002594020132429072,0.7473616334183313,34.030804,0.15918491935924883,28.917440729022015,3.692664328531157,55.99295716660771,11.315657242222036,0.3773560000000001,33.34000000000001,1
0.8591364876422878,0.04704932073279438,-0.3251560114644388,0.08514598210796623,-0.0024200478377904002,0.7474695044762122,34.032993,0.14792075107034097,28.99890239566427,3.764009666877265,56.01820897021048,-7.161942599840607,0.37863600000000003,33.34000000000002,1
0.8581975085133875,0.04730975876515058,-0.3240595347852294,-0.10530366219490392,-0.0022357489092412475,0.747731657382773,34.030567,0.09479439854505399,28.742878087775303,3.419955513274964,55.89088891629208,-2.4412812814468308,0.37224000000000046,33.34000000000001,1
0.8596401831464654,0.04650902268064857,-0.3240312180970696,0.060539153544312045,-0.00269602427673399,0.7489389477908875,34.033417,0.23801266340026428,29.096298660517807,3.765277471932264,55.959628431873455,5.93903016279417,0.37991500000000056,33.34000000000001,1
0.8585341772386685,0.045701731779955894,-0.32113666822131537,0.027083652162608586,-0.0024432557042487735,0.747304592162775,34.03646,0.3866885559711745,28.90047195853691,2.956766245405767,56.01875663130758,-10.337374910723645,0.37991500000000056,33.34000000000001,1
0.8603126799665242,0.04738818368471658,-0.32120457547445047,-0.07269875567353042,-0.002491287640617,0.7474870013346029,34.035862,0.7558482889518027,29.09940805976326,3.0591053651640205,55.9866042897688,4.423130557746784,0.37863600000000036,33.34000000000002,1
0.8585205963086746,0.045592609683272174,-0.3225156188652085,0.1184957205839031,-0.0022078280572366666,0.7476325563451108,34.037003,1.621801882039772,28.90101660689121,2.9477249162392956,56.01271460886059,8.628879882920065,0.3799149999999997,33.33000000000001,1
0.8569357405139403,0.04567084889976076,-0.3222432394123135,-0.05672287339071494,-0.0020640451466733952,0.7466944245835399,34.035625,2.645804036095957,29.0985651212384,3.044695463489323,55.98023986481016,-15.549182667223612,0.3799150000000002,33.330000000000005,1
0.8586326558687238,0.045260312148869365,-0.32694015924858455,-0.0089131525791114,-0.0023147735761611327,0.7479812515495153,34.036438,3.413884564974486,28.901791552822907,2.9633358760363264,55.8790273890895,10.372756404760999,0.3786360000000004,33.33,1
0.8583187136938157,0.04537973924839395,-0.326291172415153,0.05483285584465713,-0.0027983176362840704,0.7481187809571657,34.039234,2.8422345675664427,29.09792962251291,3.0250339995396436,56.013641199381944,0.7087782734331068,0.3773560000000004,33.33000000000001,1
0.8581522940135382,0.04608715390365855,-0.3261050813285428,-0.09720904693299942,-0.002083825473001857,0.7481995648576092,34.042564,1.2284303841806417,28.902258131946283,3.0870709000319385,55.99247798683965,-3.453522320884938,0.37351899999999993,33.31000000000001,1
0.8577480467425272,0.04761914871008495,-0.32922415199338495,0.10012278484938138,-0.0025040955018523145,0.747000006393984,34.039085,-0.32611252655665035,29.097665121920258,3.2662021444890614,56.004153118230285,12.141966709228443,0.3786360000000006,33.31000000000001,1
0.8551872743165281,0.04797209491036657,-0.33054096980134734,-0.04528113172633427,-0.0025052631765822603,0.7465333750020927,34.042202,-1.4672129838927348,28.902267360114998,3.5198721018361825,56.00247993902966,-3.0430094778940986,0.3760769999999997,33.31000000000001,1
0.8560178421135597,0.04856795721272717,-0.33284583933969447,-0.04664996760094478,-0.002549718738002323,0.7479183004769935,34.04085,-2.156773712488741,29.098001180336105,3.6764278220748223,55.888763280788716,-4.623579784613284,0.37863600000000086,33.31000000000004,1
0.8556785491872363,0.04833291824058449,-0.33136701710908933,0.09101174138350335,-0.002302650936666291,0.7478979079198416,34.04298,-2.594342488973809,28.901428121407022,3.604012336185103,55.974728936761785,5.610808997583992,0.37607699999999933,33.33,1
0.8567308430864204,0.04888652194962248,-0.3299029904672647,-0.11792090076101491,-0.0024791854656384628,0.7479995250929327,34.04402,-2.562462073353816,29.099639098337096,3.67614198554805,55.993008715943404,-10.310843739814247,0.37735600000000047,33.33,1
0.858342762793946,0.04766646082257317,-0.3277659199049671,0.08403988241530982,-0.002438197856535919,0.7484739660095754,34.04665,-2.119519851131436,28.898376664045173,3.496936801992649,55.77819996303557,10.364292345067138,0.3760770000000004,33.33,1
0.8579384443867092,0.046877695799264915,-0.3235084094231029,-0.014906714890123707,-0.0022682849502243967,0.7468958206678529,34.0445,-1.2351929857249,29.10562344713354,3.0632068124425054,56.001972467005366,-12.30070292728828,0.3773560000000009,33.330000000000005,1
0.8575281233465145,0.04987642197297818,-0.32601629312592,-0.03595408573184183,-0.0020146155710325216,0.7464139640818545,34.04562,0.396999598032694,28.88432195243806,2.956533640931673,55.87250332814458,-0.8438435548575414,0.37735600000000047,33.34,1
0.8569439441925473,0.05100389835556935,-0.3234113581555872,0.08135204044048719,-0.0021641862408111195,0.7491685386590554,34.04668,2.3140043915748802,29.168162536653167,3.037138605663189,55.597177123096436,5.500420879770506,0.3773560000000008,33.34,1
0.8560528886467327,0.04863859117736553,-0.32552036891218034,-0.1037775521749963,-0.0022453799796845197,0.7463012195631393,34.050186,3.9536293422351876,28.991572188896065,2.9673124227209415,55.71120441964575,-11.792084134488169,0.3786360000000005,33.34,1
0.85759407570836,0.048178554774424,-0.3270462105098772,0.07445420572155605,-0.0020709191328242005,0.7465473614033715,34.05024,4.417871627686115,29.185890321815233,3.0282929308325173,55.89332535132025,10.234768274554611,0.37351899999999993,33.34000000000002,1
0.8576910687513929,0.0486394266881296,-0.323074788120345,-0.08220938326696406,-0.002173797873344113,0.7478682734018919,34.04507,3.1558108587838762,28.9290831564808,2.9773849470409677,55.814191821501915,2.874709018003295,0.3773560000000011,33.34000000000002,1
0.8599810290367975,0.049442759669634316,-0.3220535924664032,-0.006163043107751764,-0.002338709662847696,0.7477327103150992,34.047874,1.1612495635184268,29.0749302466976,3.0120695292285093,55.98864678320141,1.10561580600591,0.3773560000000004,33.34000000000002,1
0.8575247990400776,0.04864000011339137,-0.3240433797953998,0.05524927055645545,-0.0023586451579151054,0.7476168654359758,34.054493,-0.6223323961235422,28.922897968604612,3.0314461556738284,55.87887055446241,11.092485183688224,0.3760770000000003,33.34000000000002,1
0.8568507515199257,0.04988820972456563,-0.3296396416638987,-0.07116363399116264,-0.0017578414929088242,0.7475999198527099,34.050617,-1.8493770878432974,29.07894373666147,3.597222508282647,55.9592217083923,-14.095126387411698,0.3773559999999999,33.34000000000002,1
0.8557687131597218,0.048691720905531304,-0.33082129721783204,0.11452947590325652,-0.002562780517908296,0.7461731028259664,34.05144,-2.656374347599974,28.91749398900883,3.3723628306926092,55.73470386679188,9.837186177257147,0.37607700000000005,33.32999999999998,1
0.8551261454204387,0.049956648754846,-0.33374521925340456,-0.06685311611832395,-0.0021647996574910406,0.7481672986387917,34.05683,-3.1960972322390435,29.099762140189483,3.6805282855945167,55.575112858470874,-10.42226695128693,0.37735600000000064,33.32999999999998,1
0.8559801277209733,0.04803443846065159,-0.3336649844005857,0.03257991505407773,-0.0016255333793836267,0.7475904574472965,34.055634,-3.3640075696076,29.057983606133615,3.934687332183891,55.60454233276315,1.3006183550742374,0.37607700000000105,33.32999999999998,1
0.8573777937978034,0.047883794064196336,-0.3294506442514583,0.020752098076427593,-0.002766388600683747,0.747352768412284,34.054573,-3.04221852052444,29.014670682467823,3.4517678519097093,55.66062730652715,0.6040933434015912,0.37607700000000055,33.329999999999984,1
0.8570899080740944,0.048901765661553916,-0.3255559038937944,-0.05787578763005829,-0.0026885585780182975,0.7479466035867555,34.058098,-1.9417207513199635,29.086528444655173,2.8864501256049833,55.47250644389617,-6.38272299851757,0.3760769999999997,33.34,1
0.856285393697972,0.05043163136035959,-0.33197301013797237,0.11075931764064054,-0.0024945424042047836,0.7466854280525026,34.060627,0.18990627326168774,29.325902336012753,3.0772579993942637,55.532955475229215,11.08982931414289,0.37607699999999955,33.339999999999996,1
0.8540260589477647,0.04978593207127249,-0.33228614263174394,-0.08547566261302747,-0.0024095319729887047,0.7476913971482255,34.05883,2.595592910260532,29.707830669923755,2.9357927240740067,55.121129241896526,-11.329780106601865,0.3735190000000008,33.339999999999996,1
0.8561650708315812,0.05085287600245917,-0.32760931173838714,0.051745585510251595,-0.002160627951794523,0.7468327119297409,34.059704,4.345334830097196,29.88118257921724,3.0579164395921,55.15710757218868,5.8109215251840585,0.37607699999999966,33.34000000000002,1
0.8552845462911057,0.04995279869228611,-0.33056991583347173,-0.0174983760794867,-0.0023940837241306846,0.7460848775561456,34.06032,4.974497276563324,29.22496106558552,2.9453419897674746,55.57632905633035,5.913732370152931,0.37735600000000014,33.339999999999975,1
0.8561445608514147,0.0487628770937699,-0.3315483682502974,-0.03549027254728225,-0.0018836995916821204,0.7456792222716464,34.05666,4.3121824685387296,29.210561670850954,3.053317825738672,55.86124829685288,-9.046507160214702,0.3773560000000003,33.339999999999975,1
0.8579719016064674,0.04850964681103433,-0.3261288661236477,0.07377265740136027,-0.002498647148971434,0.7479637242296223,34.057884,2.719220506929126,28.8732653148433,2.9461827736168322,55.95879649245615,15.525757815336636,0.3760770000000002,33.339999999999975,1
0.858285741452601,0.04911072437313984,-0.32435324525776843,-0.09688660272879547,-0.0019957359424234676,0.7473349659473674,34.059216,0.747841321291482,29.117006433977597,3.057267155093033,56.02678295983217,-10.384806932854849,0.37735600000000113,33.33999999999999,1
0.8583352948280055,0.049493397835767235,-0.324356005599058,0.06840578788010518,-0.0020850379862795976,0.7479285758051049,34.06072,-0.9739919193757052,28.88729261937558,2.930813332218136,55.977452237703005,9.306185727659294,0.3760770000000007,33.34,1
0.8575523832100929,0.05050186805084304,-0.32602104257978587,-0.0021010411823486575,-0.002518546177928696,0.7478926799180732,34.06103,-2.285113751474193,29.110255622934574,3.1535152211574324,56.008685240487374,-5.8145404733953585,0.37863600000000025,33.339999999999996,1
0.8570435002805247,0.04808716478628006,-0.32710926829150255,-0.04581976872270553,-0.0017019812049721822,0.7465161653570075,34.062183,-2.906378811555601,28.89124746351985,3.3832409756754016,55.73123255999426,-6.893214841717877,0.37735600000000047,33.339999999999996,1
0.85707889075067,0.04683177289292272,-0.32877977796147284,0.09144541157766028,-0.001733827943529973,0.7475546177464765,34.06166,-2.930836913239624,29.107837799407793,3.8072490907891434,56.041485930816535,12.216076037094853,0.37735600000000064,33.34000000000001,1
0.8564763493868697,0.048040115462701045,-0.3289457255083695,-0.10316770440198318,-0.002419422617625737,0.7476142463388095,34.066723,-2.747106979643314,28.892668322423717,3.6713628021758704,55.957184618727666,-4.536542317483121,0.37735600000000014,33.33000000000003,1
0.8583040123472773,0.04887079885960552,-0.32869801953600125,0.07164057194882976,-0.0020664096030239736,0.7465573313740335,34.064846,-2.359555069110028,29.107133408365115,3.434641716270984,55.91884445217205,12.704341164522921,0.373519,33.33000000000003,1
0.8574103130835076,0.04822082936939373,-0.32420910079904236,-0.022355644131045512,-0.0016702408418641397,0.7471248070829273,34.062912,-1.8557208847004887,28.892817289263075,2.9363694810948253,55.954937676397414,-1.64865670979657,0.3760769999999999,33.33000000000003,1
0.8582032731812613,0.049661066007401555,-0.3261232767133901,-0.019932054001700852,-0.0024559269815187038,0.7484690489034755,34.063232,-1.0527984716963903,29.10744241326359,3.053296550873895,56.0458055690108,-7.0306653337415845,0.376077,33.33000000000004,1
0.8563833090115158,0.04960631160932528,-0.32801342674266504,0.0863063858308071,-0.0020313591998078265,0.746433710377526,34.066544,0.14327268554265915,28.892110335601625,2.9496270276376193,55.95672213328316,10.192935820065482,0.3799149999999994,33.330000000000005,1
0.8551576079094155,0.049807371190311096,-0.32779222512858136,-0.09024272553163847,-0.00217087099219702,0.7469910318583112,34.06788,1.5791603230323032,29.108511128965734,3.050063545374035,55.94027023918059,-16.200100209276826,0.37735600000000097,33.330000000000005,1
0.8559426976318023,0.04914041958900885,-0.3301495857897048,0.07331565905957389,-0.0022435083274959205,0.7473441042795297,34.06531,2.775402033897762,28.890699772831773,2.948849130438596,55.91026063278862,18.070030101240857,0.37863600000000036,33.33000000000001,1
0.8561247896567742,0.04886249859414767,-0.3312913014489371,-0.034688684235885565,-0.001939232280688664,0.7459989557548621,34.06993,2.808275519048651,29.11025550498876,3.053267291911765,55.92409510696446,-6.3692687020097685,0.37735599999999997,33.33000000000002,1
0.856783432629401,0.04824909676676315,-0.32869576684686497,-0.026066413809374585,-0.0021836655349043678,0.7464496241239775,34.069393,1.5936091067930953,28.888620324604418,2.9439580842819106,55.66526470063041,12.932496242079578,0.3773560000000004,33.34000000000002,1
0.8569852117909854,0.05029976723216178,-0.32952630062732496,0.08120391634983515,-0.001638129423268326,0.7471590415243148,34.07112,-0.03415425806458303,29.112679084606583,3.0565419358889705,55.887129193389036,11.648884821073898,0.3811940000000005,33.34000000000002,1
0.8561649082983377,0.048641305990861985,-0.3292183323115866,-0.09524085800265979,-0.0024778274177606557,0.7462803441722907,34.07123,-1.2197470273827786,28.885836532075242,3.024202681906794,55.7054105530675,-15.263258368099693,0.3773559999999998,33.34000000000002,1
0.8577731988484241,0.04741989603509114,-0.32974681095866076,0.08795788907743886,-0.0025440551963572316,0.7479234539368687,34.071583,-1.751688485473722,29.115845920080403,3.7525668345147,55.83010334882469,5.689554320584937,0.379915,33.340000000000025,1
0.8562941712350897,0.0478377521935619,-0.3288927607235461,-0.030821118340089052,-0.0023086258889935046,0.7474125743347462,34.07091,-1.9648692494090763,28.882256959639946,3.6504882049697582,55.881486762639746,-4.175036039505252,0.3735190000000006,33.32999999999999,1
0.8570749120314942,0.0486808703065608,-0.3301804050139263,-0.03555860447041723,-0.0020230327018302117,0.7463406417893039,34.072643,-1.8852082435763977,29.11987523501203,3.402685349279148,56.05134508526241,-4.622149123626845,0.37991500000000006,33.33,1
0.8559396853169291,0.0486855195156934,-0.3291992319532764,0.08771847273874159,-0.001984306205667982,0.7478325383462314,34.07412,-1.4987378288062068,28.877732825481043,3.654685944142611,55.95250133255232,8.543918710542279,0.37735600000000064,33.32999999999999,1
0.8560254166234696,0.049533623933136144,-0.33113781180297547,-0.10774603716140399,-0.002523018981582349,0.7461073252482484,34.075157,-0.9960589952410798,29.124948414425084,3.2908116016248856,55.943261430420044,-18.306265443519916,0.3773559999999998,33.32999999999999,1
0.8575061772979296,0.048653666860016716,-0.3292073800240036,0.07214947831060918,-0.002180146461446554,0.7459348553999838,34.072742,-0.5252484306032724,28.872045803032492,3.199462537137039,55.91597698812839,9.743571835060116,0.3786360000000001,33.34,1
0.8569874717944623,0.04835885207460859,-0.3261545943336277,-0.016982759392758964,-0.0015639233237079526,0.7465860553320791,34.07313,-0.1599113555300186,29.13132645731217,2.9983321470718076,56.05518956751115,-11.586473424362175,0.3773559999999999,33.34,1
0.8573458985854581,0.04902705665590563,-0.3260176088020451,-0.03174753472782595,-0.0020526110435247916,0.7462778379829048,34.07655,0.5699540516568755,28.864884936788844,2.9934721605993446,55.71603431283027,-3.9467181614299713,0.3722400000000003,33.34,1
0.8555268550969555,0.04992052827399933,-0.3285655746851509,0.08669140734636407,-0.0020267314289939982,0.7466444627870216,34.076607,1.6102774238728168,29.139379324274405,3.0160528764704013,55.96291404023396,-0.46400747405446197,0.37735600000000047,33.34000000000002,1
0.8544484095560964,0.049215227268848714,-0.3308076825019076,-0.10714718210811285,-0.003160340166908855,0.7460471554701986,34.082603,2.502557953609696,28.855810160233794,2.970408448223049,55.7962110552435,-0.5282083082916259,0.3773560000000006,33.33000000000002,1
0.856912842296954,0.04770103357332058,-0.33133417599039516,0.07372141232862824,-0.0020081154855399897,0.7463426059700429,34.078426,2.800952512372275,29.14963092555353,3.07254582517892,56.05141053906329,6.593190514534528,0.3773560000000001,33.33000000000002,1
0.8568830442514705,0.047004842880819034,-0.32728039139489595,-0.02383491452814085,-0.002511235212535101,0.7476645867592074,34.080177,2.015491558350591,28.84419527991086,3.3315140646965364,55.72130688962274,0.21954009634342925,0.37735600000000097,33.33000000000003,1
0.8581726250514563,0.04732012573353452,-0.3268028969362163,-0.021866593334792284,-0.0027770879799826355,0.746968855039866,34.082253,0.7198668277789302,29.16284243964049,3.4664949201604927,55.57247963144467,-6.22008005698447,0.3760769999999999,33.330000000000034,1
0.8577568297531507,0.04606759218140368,-0.3257966724100701,0.08668261291678792,-0.0019828534880287022,0.7466559520430192,34.08134,-0.4209734100103233,28.829047142156842,3.45117015693076,55.58103364397575,16.001114872856785,0.37735599999999947,33.34000000000001,1
0.8568907865275547,0.048990324526302934,-0.32768936064689874,-0.09627848022809615,-0.00238544984546584,0.7464251255044742,34.082237,-1.1098778680923185,29.180708705103076,3.302480120012471,55.966418792526426,-11.711622981204407,0.3799150000000002,33.34000000000001,1
0.8567133902799423,0.04781704586816879,-0.3283965054789989,0.07823049589443101,-0.0030047717712643044,0.7473844967184047,34.08028,-1.193528854820857,28.804468385403364,3.414015375989413,55.75532925848274,10.32190395887052,0.37735600000000047,33.34000000000001,1
0.8561777959597243,0.04886323176160401,-0.32982179261850697,-0.01824981560971131,-0.0020154880802815698,0.7455484977358489,34.080963,-1.0780627144971744,29.27999469702392,3.4189553626699944,55.638128776439096,-9.59980207399642,0.3786360000000002,33.34000000000002,1
0.8566720499950665,0.04807134519192724,-0.33025636785101337,-0.04522020746567251,-0.002072664943767974,0.7482935347048275,34.085117,-0.921051540204532,30.722186854062393,4.180339068575433,54.26660466474954,-1.3279185159655011,0.37735600000000014,33.34000000000002,1
0.856219037227448,0.049174910049755695,-0.331048030733165,0.09304680476585546,-0.0025799694168250503,0.7465561252320281,34.082096,-0.762248034516186,32.47460487175228,5.151332508238382,54.16883277257311,2.0057880941932806,0.3786360000000002,33.34000000000001,1
0.8571544222064287,0.048698135513515185,-0.3289625043015992,-0.11585366624304484,-0.0021383259168257225,0.7461309280906222,34.083614,-0.4802215340459784,32.12469842915352,5.183623803023468,53.17863181335706,-8.075374094626262,0.3786360000000002,33.34,1
0.857982125581233,0.05138532581533166,-0.3259224476483898,0.09149738245555687,-0.002763090113957236,0.7476280378932422,34.08735,-0.07326630674390573,34.884315228800055,7.114334729382249,52.51824564883028,6.33025130407364,0.379915,33.34000000000002,1
0.8575006493297758,0.049005384430320334,-0.3268097363532079,-0.020353572803042015,-0.0026105061507908467,0.7464662972411283,34.084225,0.6399992530189804,34.560768397810975,7.069515697324709,51.47516061814452,9.645922777390139,0.3965440000000005,33.32999999999998,1
0.8561353297017676,0.049101738990386376,-0.3271340878777491,-0.03161926308668614,-0.0022060796548344285,0.7456390818581384,34.085484,1.6359952654815249,35.392390737356386,6.9866402359636615,52.51504418843262,19.942490992195253,0.4016610000000003,33.32999999999998,1
0.8566809818891714,0.04659853670837134,-0.3292638311066601,0.06613118446625216,-0.0021611607285380464,0.7477250309737313,34.08845,2.6280040270277607,34.537689770467765,6.9812237147966085,51.372632658500414,46.29342914593172,0.39526499999999976,33.32999999999998,1
0.8563189551382405,0.04892982952473849,-0.329611154111159,-0.0852249608596213,-0.002864401564899693,0.7447707967087782,34.088642,2.8011956093557426,35.53031428868975,6.512905910358912,52.86841197622803,105.11169054819655,0.3939860000000006,33.32999999999999,1
0.8593089275403782,0.0468575178936441,-0.32810786402735737,0.0651384429021506,-0.0022031870793142966,0.745829037550487,34.087196,1.816760438720829,34.374843132589504,6.152530991869454,50.24966438191796,-4.608251631330912,0.3939859999999994,33.330000000000005,1
0.8537961270650284,0.050485136511973575,-0.33076898423307854,0.028623918586438125,-0.0020560974986543225,0.7500314616610121,34.09074,0.4607233269022901,55.30884977913215,5.076832618826336,37.388411688399245,-156.81893660583304,0.39398600000000045,33.330000000000005,1
0.8600059500627579,0.05418277986931855,-0.3141374238938123,-0.03946681668637928,-0.0019785791589738678,0.7467227581796909,34.084747,-0.7095896814680216,56.07443382010337,3.1178093158867717,-2.8062381472997795,-33.3873749685231,0.3863110000000004,33.33000000000001,1
0.8618045387985787,0.0601265696134436,-0.3160822520968628,0.07506349488759795,-0.0018286828955679194,0.74781926258054,34.08961,-1.3233357351476274,66.47725966878534,4.524195976501629,-33.86567593556389,-18.77928746479451,0.37863600000000025,33.33000000000002,1
0.8637164032113317,0.05394565748241306,-0.30768540713882336,-0.12113942780496183,-0.0016082293846200234,0.7453758726176586,34.090637,-1.27930225318174,56.10213747141149,14.207911086720468,13.937763055851002,75.22781286089388,0.39270700000000003,33.309999999999995,1
0.8561749573311459,0.053951610879116825,-0.3177847253970629,0.05128884478317964,-0.0018274026577024547,0.746883007123331,34.088528,-0.9803631380045109,17.855108786531147,0.631455003245649,54.74964512150893,7.095880120494597,0.3735190000000006,33.309999999999995,1
0.8602930616323916,0.08542316262413382,-0.3058746974805056,0.019640104420906912,-0.0022498111244176186,0.7477376864795555,34.092945,-1.4775822876095523,26.983475938534,4.495615745813135,62.764289156286715,-40.60041580028339,0.3824729999999998,33.309999999999995,1
0.8692881379824788,0.06008774718730332,-0.29242929618111374,-0.0626416435841448,-0.0025026622842929404,0.7476118888327831,34.09172,-2.051150085948582,24.321099323842397,3.9639679380401573,56.10567985749471,-57.08785662921348,0.38503200000000015,33.31,1
0.861913099872794,0.06617786871936457,-0.29792953474479117,0.09936139092154159,-0.002353030402409089,0.7476842665126194,34.09735,-1.690409076383046,19.848183909489546,5.348557162474475,56.56574457723401,-84.79657014730057,0.37991500000000006,33.330000000000034,1
0.8671040964973669,0.053531321539599934,-0.2973066200568774,-0.09803170644765749,-0.002683481591468057,0.7457329879559194,34.094234,-0.10010985676909527,23.059444305282103,1.4429519344767694,59.92308303875402,-208.50712022892372,0.38119400000000025,33.33000000000004,1
0.8649076043335361,0.047437643100845396,-0.29667830604495277,0.05954429485098633,-0.002323027861787051,0.744647019828429,34.09488,2.1745248565151845,34.72255882014335,3.633343729435354,54.403449198799166,338.43337482222694,0.3824730000000009,33.330000000000034,1
0.8679322684542998,0.03694568386682254,-0.30097162471853744,-0.03738765083790228,-0.0023512724855851035,0.7478809048917247,34.094948,3.2811454232828803,34.446553324665906,4.636577231037352,51.190977048351606,226.98431565720986,0.3786359999999997,33.330000000000034,1
0.8641694183478273,0.04300055284703431,-0.305747124933829,0.04031436849187081,-0.002008185327475617,0.7479137603551681,34.096813,2.5807019518628063,39.95546859033433,4.8638441933605305,49.01710910009284,-261.2762827653229,0.3824730000000003,33.32999999999996,1
0.868775595682649,0.03435192518134516,-0.3026428115960213,0.018837708115892218,-0.0021426775334068516,0.7486258880338401,34.09628,0.7085476075007666,46.039795519070296,5.469162564701223,42.49837120598373,-158.99527183266207,0.38503200000000115,33.32999999999996,1
0.8636423011048324,0.04018050709352584,-0.30677683747135504,-0.054210250940415636,-0.0020972079530529346,0.7482095856567328,34.097492,-1.3906225349830321,49.298487085362176,4.685050938088716,42.01914994975376,170.09765290257272,0.38247300000000023,33.32999999999996,1
0.8650450660094332,0.04245660036363484,-0.3080701948505099,0.06309777650467945,-0.0027130391113067928,0.7473909058178062,34.0985,-2.4638676419256513,30.601679666915423,4.541033087428501,52.790607336155205,46.70023579676176,0.37735600000000047,33.32999999999998,1
0.8632891929983137,0.04647027724419034,-0.30824167087487153,-0.08475342210819051,-0.0020912697257898247,0.7474770040948024,34.098858,-2.650107167929021,25.846361341561206,3.526556486643696,56.991947171970224,17.36181637459735,0.3773559999999993,33.330000000000005,1
0.8655645169936687,0.04655129215971442,-0.3098464506981375,0.06068438439347425,-0.0022318729314352854,0.7481359080916183,34.098625,-2.210893215716159,31.107286684284578,4.069408774247482,54.35037710444625,113.69132275877071,0.3799150000000002,33.330000000000005,1
0.8647632441866249,0.04639732626091053,-0.3017907807523189,-0.009902116615262297,-0.002315400093731636,0.7480723519978817,34.10075,-1.4008533983240794,29.19240733384395,3.1023296733053756,55.51101689866473,-140.3656874339962,0.3760770000000004,33.33000000000001,1
0.8671562349938019,0.04462739989413783,-0.3014198152628393,-0.03662984979503652,-0.002389984336316891,0.7493381424865052,34.101788,-0.16716683471800053,31.69610887887607,3.071952921113651,54.33870686189153,-164.63943660782698,0.3773559999999998,33.33000000000002,1
0.8642721666166879,0.04233186840837079,-0.302298305847769,0.08853150632714703,-0.0023973795293158327,0.7477334864534833,34.099354,1.5702999572138836,31.464692324072214,2.6982045495307734,54.21800674622327,61.861298273778914,0.3722400000000001,33.33000000000002,1
0.8647550950600371,0.04513725830582517,-0.30411003656991525,-0.1050660383052388,-0.002558727465549223,0.7498336527053626,34.101997,3.195636608498727,32.19229450049726,2.838377285262453,54.00132780794408,123.127187281285,0.3773560000000004,33.33000000000001,1
0.8641492173009286,0.0451329901792416,-0.30713859331118326,0.06706420943684892,-0.0025020180866035307,0.7486872786287193,34.0996,4.240792375594527,31.531972290639928,3.0511846918436007,54.49699054219797,-35.58678121596489,0.3760770000000002,33.33000000000002,1
0.8652573283542323,0.04371419679020695,-0.3067779255896806,-0.04150495752961101,-0.002497094082652135,0.7480581375473153,34.101036,3.6833434158592406,32.078205673126426,2.972895044983266,53.793788206019606,-46.36510856076813,0.3773560000000006,33.33000000000002,1
0.8651608402120442,0.043651451655387814,-0.3047556315570454,-0.005828197289474485,-0.0025698684646939056,0.7471713126049253,34.100227,2.2229126302568725,31.67292247533453,3.017104640982245,54.19218544864207,-25.604083245701837,0.3709610000000001,33.33000000000001,1
0.8656424321681374,0.04297805492881083,-0.30478438464355506,0.06684410911487661,-0.0023611192666287023,0.7477648740515417,34.099846,0.704098368756652,31.985125340295443,2.988103394526805,53.81433204064597,34.24234856422022,0.37863600000000036,33.330000000000005,1
0.8639014825158381,0.0434484702579732,-0.307259685382127,-0.09222642616865494,-0.002340960841225627,0.7482180243777181,34.102375,-0.578934703173002,31.556852248037146,3.0088309682695984,54.23481443181613,-21.078869484150943,0.3773560000000003,33.33,1
0.8655075046375844,0.04393447222164733,-0.3067008132912703,0.09069276165382055,-0.0023027572533878306,0.748160694792104,34.101017,-1.4099364054432573,31.973553420957558,2.9931232545345297,54.002573081915344,27.63834933756918,0.37735600000000014,33.33000000000001,1
0.8637784316147527,0.044749726475405996,-0.306476922112978,-0.0280245659661864,-0.0025180402804056766,0.7479287042224496,34.10226,-1.8658390639970863,31.704292522056303,3.0055570563848946,54.182446886485494,-12.83425897394034,0.3773560000000001,33.34000000000002,1
0.8652010002081486,0.043995690287278184,-0.30717588445362576,-0.024474532080960322,-0.0024395241189375297,0.7480227496965512,34.101704,-1.8643348263900765,32.12979378245401,2.995374828743349,53.85217548034148,15.911196820512135,0.37735600000000014,33.34000000000002,1
0.8640843429386358,0.04429929915211268,-0.30681802002637776,0.0908164002524663,-0.0020107065606552255,0.7464391200173763,34.10406,-1.5997555357906035,31.783947319524472,3.0039429079830358,54.136809401099725,1.6389044075196006,0.37863599999999953,33.34000000000002,1
0.8653410380086094,0.04445025479750263,-0.30730378131985864,-0.10793398890678861,-0.0023951891033039507,0.7475862384911712,34.102806,-1.329977343526523,32.06015093251341,2.996571869800278,53.870474269906865,-3.1145104454048367,0.37479800000000074,33.34000000000002,1
0.8654033765099226,0.04397949583531742,-0.3034151179199075,0.08096902838769293,-0.0022134857342109735,0.7490153806310575,34.102825,-0.966939997529254,31.923741478581256,3.003029680559299,54.12367525598779,12.080639528511599,0.3773559999999998,33.34000000000002,1
0.8676248878505323,0.04433339471818102,-0.29879539313697484,-0.029058607959197885,-0.002587889887989808,0.7486863988972893,34.10292,-0.4223667259357489,32.07744502462803,2.997285534396365,53.881362155882314,1.2478132621028348,0.3786360000000007,33.34000000000002,1
0.8666742685745822,0.043553645948644415,-0.29730344076013293,-0.01033953811639421,-0.002336914947369548,0.7487746503860473,34.103397,0.6776116191973764,31.92388388855148,3.002460390847465,54.114162797426765,1.2329273609663076,0.37863600000000003,33.34000000000002,1
0.8660992906345556,0.04211884670446313,-0.29848473068733816,0.07197850640587303,-0.0020636636934146108,0.7489556739106578,34.102833,2.060809988608259,32.07415320729842,2.9977476958315976,53.889880746053834,13.93484922209886,0.37863600000000025,33.340000000000025,1
0.8659230631944996,0.04359503041243888,-0.30142037494808155,-0.10518762935926453,-0.00303290060440709,0.7477540307867087,34.10385,3.0641675639516275,31.927924104661365,3.002079571156463,54.10642631217432,-14.923038752836165,0.37735600000000047,33.34000000000001,1
0.8667429861184696,0.04269621196688676,-0.30308826664819183,0.08925335241261985,-0.0022730465688459516,0.7483527227047748,34.10592,2.8814589461532147,32.07006083714872,2.9980654240119082,53.89697192557635,18.076507507944214,0.37991500000000056,33.34000000000001,1
0.8646311335676151,0.0434752026071787,-0.3033548291513093,-0.05011841275998808,-0.002402119941027896,0.7493060271027981,34.10714,1.4435450164781458,31.931830012782314,3.0018117672765245,54.099882999318865,-9.517156895285842,0.37224000000000057,33.34000000000001,1
0.8664218127361645,0.042670661343715534,-0.30417584665027864,0.011238593572276568,-0.0019241914557082973,0.7467681635867595,34.107166,-0.1630950497247959,32.06642076207363,2.9982929646629497,53.90304131844044,4.501344281812136,0.3799149999999994,33.340000000000025,1
0.8643649183534343,0.04294433627906409,-0.3053261171044543,0.04785087892959325,-0.0028441571550984444,0.7471346006647478,34.106724,-1.2176480214691832,31.93518805336698,3.0016172967338237,54.094228989704746,2.978107167765746,0.3786360000000007,33.329999999999984,1
0.8654804382097168,0.04386984041478064,-0.3066865725537556,-0.08766645169893186,-0.0017427304250380502,0.7491605661443694,34.10594,-1.7060338510623878,32.06333440311711,2.9984597882811923,53.90832765135469,-8.579393712222242,0.37863600000000003,33.329999999999984,1
0.8644833302567266,0.04231761277887293,-0.30699777798635963,0.09864705638707157,-0.002178655174143669,0.7496000276163618,34.10811,-1.7167571246205637,31.938024202242044,3.0014739887759063,54.0892706317924,4.776449795698902,0.3760769999999999,33.329999999999984,1
0.8652781126518372,0.04264257830483958,-0.30742803522348133,-0.09421592295100306,-0.002076139350635378,0.748166033281376,34.10616,-1.6871283301810243,32.060722730464306,2.9985827525858983,53.912991595552015,-8.685668264660578,0.3786359999999997,33.329999999999984,1
0.8643833331674091,0.04353882465901035,-0.3065921342618043,0.06167348035321004,-0.0021335335257468965,0.7499360733321383,34.10929,-1.55196396671275,31.940438352758864,3.001368920640306,54.0848723831973,-0.05502327568119905,0.3799149999999999,33.32999999999998,1
0.8650280463442374,0.043320657521706725,-0.3072748602651815,-0.026168666333883813,-0.002461077141186709,0.748246060841089,34.109592,-1.3209645520824966,32.05847913797853,2.9986718150617775,53.91714896432558,2.6203164961757004,0.37863600000000036,33.32999999999998,1
0.865665254657849,0.04348558297388358,-0.3029465201446054,-0.03793411466364977,-0.0022447961530389984,0.7498083511121576,34.109066,-0.9677115262736655,31.942538110838004,3.0012944096434793,54.08093427578856,-13.001484862271573,0.37863600000000086,33.32999999999998,1
0.8680430383331126,0.0413732411292673,-0.2971777321247012,0.06755536762344741,-0.0024344501899084,0.7484891232556967,34.11162,-0.40366291748485195,32.05649640176235,2.998732879763498,53.92088677365439,14.73443193388769,0.3786360000000007,33.32999999999999,1
0.8662859409233765,0.0418643071834384,-0.2994512578354535,-0.06861163660894556,-0.0021472538494530726,0.746897129453545,34.109627,0.776992011434513,31.944431506429236,3.0012459718139306,54.07738003074539,-17.704357919809443,0.37863599999999953,33.33000000000002,1
0.8659923615949189,0.04061708130681224,-0.3016041824960634,0.09299190966794385,-0.002528565014725295,0.7492326938526253,34.109596,2.328189702432603,32.054662533334586,2.9987692698323465,53.924272298665315,13.98268341578192,0.3799149999999999,33.33000000000001,1
0.8649096086340751,0.03998275662390242,-0.3037252692198396,-0.09388764727932687,-0.002687244836510228,0.7494017758507064,34.11134,3.4267375281452574,31.94623973243227,3.0012212587050584,54.07414999572849,-6.648778607064096,0.3799150000000007,33.33000000000002,1
0.8672630904984322,0.03944193133345682,-0.30362953604413473,0.06217672721151603,-0.0022741976418177994,0.747702513961607,34.11461,3.2525136308310767,32.05283895831094,2.9987824899916595,53.92735868515045,4.6162621251763785,0.3786359999999994,33.33000000000003,1
0.8656085766938661,0.039601681945840135,-0.3032532130394326,-0.02031777178936215,-0.0020766899795715468,0.7473593897859483,34.110027,1.8212209996118334,31.948131728410427,3.0012195212429287,54.07119661809122,8.766540067821353,0.3786359999999997,33.339999999999996,1
0.8658472713516184,0.040205321843316884,-0.305849104444814,-0.012857661457677532,-0.0029203859049742042,0.7505607844151284,34.112923,0.1747243284742364,32.05080475360709,2.9987725870646753,53.930188647847984,-2.3603494581510267,0.37735600000000047,33.33999999999999,1
0.8651107495862704,0.04154781261394666,-0.3051837263098778,0.07070767478371907,-0.0023344878324781794,0.7493278512529024,34.11476,-1.040846486795818,31.95041869581486,3.001241390894904,54.06848139090999,13.429394956904652,0.37863599999999975,33.339999999999996,1
0.86505611981462,0.04153786425842216,-0.30722621878788675,-0.09043553389442309,-0.00229388114094534,0.7478433001142846,34.1145,-1.801471729285578,32.04808531120077,2.998738248726239,53.932797015703485,-8.103190050057453,0.37991500000000056,33.34,1
0.8638796876910946,0.04117718092442272,-0.3078987525337288,0.10379329666204463,-0.0019836257989916104,0.7478906621071598,34.114376,-2.169153210996564,31.95389207386389,3.001288888975825,54.0659727145709,6.909645911520789,0.37863600000000036,33.33000000000001,1
0.864467598032094,0.04144897539660146,-0.30901663471516755,-0.08183597410677354,-0.0021491323248070747,0.7487882338611498,34.117336,-2.2243548897506056,32.04320723315528,2.9986766901429776,53.93521254127414,-6.1449832445818116,0.37735600000000014,33.330000000000005,1
0.863110422692152,0.04250165237280529,-0.31021430548633355,0.04048334132830289,-0.0027664677259748665,0.7496699595733376,34.11536,-2.037206606641821,31.961753597863858,3.0013656474335804,54.06364435600763,-0.7205023267464967,0.37863600000000036,33.33,1
0.8651126080853698,0.042483063794462025,-0.3104942568246115,0.007949093001702977,-0.002343071600953483,0.7488095724296967,34.118023,-1.8630090501666254,32.027104124165504,2.998583314837139,53.937459220270824,6.0386891072773885,0.37735600000000014,33.33000000000002,1
0.8661165576508334,0.04202004391214141,-0.3020175420279605,-0.0833464325148571,-0.0024678973494882545,0.7489973327684643,34.11502,-1.4893012146425317,32.0268265943889,3.0014773858274495,54.06147431270725,-12.329472923747701,0.3799149999999997,33.330000000000005,1
0.8680155975512996,0.04113400366058795,-0.2997918648275061,0.1042148217374842,-0.00231298909488775,0.7491084315870246,34.11932,-0.5804489726058198,32.13016587819583,2.9984510697994318,53.93955727422675,15.622961448629303,0.3799149999999997,33.330000000000005,1
0.8669705848848898,0.04265326417270494,-0.2961046370570716,-0.08115108496896005,-0.002184000479614051,0.7492383055049621,34.11563,0.8338809869546222,31.93445961122857,3.001632768097926,54.05944395890541,-15.186076601560558,0.374798,33.330000000000005,1
0.8662066172710622,0.04170549946474408,-0.2950648682694614,0.08464499633455906,-0.0024263338888950757,0.7488442111942983,34.11816,2.6427437426974185,32.294894350402664,2.9982693137210115,53.94152389539576,14.00121826057339,0.37735600000000014,33.33000000000002,1
0.8649235113886653,0.04294550863629279,-0.3012663446869305,-0.03620273269209553,-0.0025847379202406455,0.749104103314111,34.120182,4.1576731985779345,31.949837329950228,3.001844899698399,54.05753739319742,-1.7144103192912605,0.3760769999999994,33.33999999999999,1
0.8668385963280443,0.04188619287251205,-0.30323314708083404,-0.02827707228510034,-0.0025198096451080833,0.7495519353595527,34.11824,4.314879071927106,32.05898790417184,2.9980218242688874,53.94337382019143,-1.601911510463172,0.37991500000000056,33.33999999999999,1
0.8663756267022577,0.039978806970263216,-0.30233516366855306,0.06524539606081714,-0.001919119039026609,0.7489154822229461,34.12013,2.8558971545193703,31.9406840844115,3.0021340058983625,54.055740932767264,5.504429321605343,0.37735600000000025,33.339999999999996,1
0.8658690098147892,0.04077421027696209,-0.3039923159835238,-0.07890315750028137,-0.0027389374677905813,0.7496940256282238,34.11928,0.8310619023665723,32.05884836982599,2.997683152484929,53.94511977672905,-11.511888451493764,0.37863600000000003,33.339999999999996,1
0.8647028205554789,0.040798337699016626,-0.30823685297942066,0.10759144523552473,-0.0018978650892376482,0.7484544322445655,34.12012,-0.8730988767433342,31.9416787191876,3.002532470755643,54.05404271613757,12.162057775734358,0.37863600000000036,33.31000000000002,1
0.8630931548661053,0.0428948335530226,-0.31217318555432466,-0.08092132611420123,-0.001989503284110065,0.7492967108597411,34.12007,-2.0557237335404785,32.05785610200015,2.9972115310163683,53.94677283848906,-4.861750885881791,0.37991500000000056,33.31000000000002,1
0.8626034010767981,0.043257393222191395,-0.31307805719424325,0.02747826040599215,-0.002273764019714617,0.7474501972090749,34.121346,-2.740935072987484,31.9425311984781,3.0030950297968877,54.052432387400984,-1.1395533282821528,0.37863599999999936,33.31000000000002,1
0.8630872007041829,0.042576077236747334,-0.3129341065310999,0.023017052838300838,-0.002222907297582117,0.7513652744690728,34.121723,-2.99841524939261,32.057153445940486,2.996533862613933,53.9483427070434,1.8413157941473177,0.3799149999999999,33.310000000000024,1
0.8641738299895692,0.041656522126589234,-0.31103213939610114,-0.08020276911653088,-0.0018837889859881936,0.7507387411851743,34.124866,-2.8490402805065185,31.94309959466605,3.0039215185839905,54.05090084238321,-15.995985623117424,0.3799150000000004,33.330000000000005,1
0.8656263921820029,0.04027887220099629,-0.30621162574805183,0.09560934838056522,-0.0021453301017902004,0.7483452928735081,34.12228,-2.255271870330213,32.05670067874832,2.9955100640245003,53.94983794057185,13.337781198862931,0.3786360000000001,33.33000000000001,1
0.8644552783157144,0.04183170224168695,-0.3062117706126561,-0.09652982534221627,-0.002181606879542969,0.7474076240919463,34.125206,-1.0977506825936365,31.943453240867772,3.0052150714018446,54.04944002236811,-19.875177128191844,0.37991500000000056,33.330000000000005,1
0.8640530894816032,0.040166011252913365,-0.30861378170138165,0.08761138348227525,-0.0020290508529324197,0.7484245961332907,34.12612,0.5317941158830181,32.0564325972181,2.9938332237390286,53.9512661405613,9.306259015772717,0.3760769999999997,33.330000000000005,1
0.8623179006278461,0.039736666715531804,-0.3097417560044015,-0.03867480945307049,-0.0020388702066943074,0.7496409333126365,34.124413,2.135607573843055,31.943646637843756,3.0074645613826636,54.048042744657,-1.6900283401463165,0.37991500000000017,33.33000000000001,1
0.8640806704726658,0.03892548305341848,-0.31382546290965846,-0.011443248053725798,-0.001973245666460378,0.7477861473439171,34.124413,3.0667498125538017,32.05630519337025,2.9906671367103392,53.95263410600986,-1.9863631119003244,0.37991500000000006,33.33000000000001,1
0.8637606988098062,0.03838443307348244,-0.3123111062805191,0.06054294848218787,-0.002417354955017905,0.7520231098810188,34.127712,2.635051331555059,31.943715008293395,3.0122558209149664,54.04670256183078,16.790394845538728,0.37991500000000006,33.33000000000001,1
0.8639879322130162,0.03932282355718039,-0.3118964943368287,-0.08390120097125159,-0.0019403393647807255,0.7471355838891544,34.125816,1.3029425307126457,32.056290254925834,2.98244547088859,53.95394796225605,-6.706922975723432,0.37991500000000006,33.33000000000002,1
0.8641422589003064,0.038756282178310404,-0.31126506611816945,0.10673112132833265,-0.002272278790433803,0.7481436415204786,34.127567,-0.11482760009129742,31.943681048854383,3.0313297297763024,54.045413643453216,15.666833051512867,0.37863600000000003,33.33000000000001,1
0.8631497704346193,0.04005269739761465,-0.31224507919017713,-0.07752315699579695,-0.0028940548055997406,0.7492517430835276,34.12892,-1.2066073469521064,32.05636942211067,3.097327402791485,53.95521326996271,-3.8798065765070366,0.3786359999999999,33.33000000000001,1
0.8635275047126535,0.040519753754839787,-0.3124160704557251,0.03125468336943515,-0.0019439147447144855,0.7501978001654684,34.12705,-1.6948548485770032,31.943559690844516,3.0639467805703675,54.04417067531187,2.8193505576711466,0.37863600000000036,33.33000000000002,1
0.8632487252897209,0.04050942753093065,-0.31242808878735107,0.02541849852692115,-0.0019369930279907201,0.7499067450647137,34.12621,-1.7837492489858329,32.05653049623635,3.08889456175671,53.95643511862797,4.252090477776354,0.37991499999999956,33.33000000000002,1
0.8638344331285203,0.039746643735453766,-0.31284431749318975,-0.07015176751097668,-0.002558343837368239,0.7504402423482639,34.1276,-1.7320814717007995,31.94336093421965,2.966393408572843,54.04296877227425,-11.413800241161121,0.3722399999999993,33.30999999999999,1
0.8663344455107996,0.039089950007270106,-0.30722263552731827,0.08926270585060415,-0.0026556572028209307,0.7486510455261481,34.126015,-1.4795917541642107,32.0567652641869,3.021872652028587,53.95761820816274,13.11661022353854,0.37991500000000006,33.30999999999999,1
0.8653748325360411,0.04026233181981596,-0.3033897591858558,-0.09692197169075832,-0.0019912441820786448,0.7492644199775442,34.129864,-0.6985378044294895,31.94309152536137,2.9833362660200358,54.04180340154266,-15.379408197939728,0.3760770000000002,33.30999999999999,1
0.8656583962318245,0.03987669652111703,-0.3042143073883917,0.09174838424421217,-0.0021916247157601153,0.7502899613449648,34.13161,0.8861661287535039,32.05706819548271,3.0137120561264097,53.958766921482784,8.155756659515681,0.3786360000000006,33.309999999999995,1
0.8640317571270474,0.040284224547341006,-0.3025698495837522,-0.0436241455998076,-0.0018112728454744568,0.7470731938341701,34.130344,2.4547725491694754,31.942755977113265,2.9881837569469307,54.040670313579156,-5.068335415643958,0.3799149999999997,33.33000000000002,1
0.8655728324742507,0.04038897502683821,-0.30663653343995245,-0.009292304306769788,-0.0026618219235240758,0.7516427672802207,34.128536,3.5137707245813767,32.057435636794494,3.010502048070329,53.95988539066867,-4.434825638711817,0.3786360000000001,33.33000000000001,1
0.8643705667788378,0.038914443217818014,-0.3082368829294101,0.04097551488102935,-0.0025174989012204992,0.7490014362758828,34.13463,3.37427380800406,31.94235721055522,2.990456615191269,54.0395654782832,8.831996445507954,0.3811940000000001,33.330000000000005,1
0.8653314275553339,0.03947298542592403,-0.3063853407916514,-0.07642127584345565,-0.002639583827838557,0.7542391515954274,34.131744,1.983590161887946,32.05786529588783,3.0088184272751017,53.960977559014694,-9.782444364614664,0.3799150000000002,33.33000000000002,1
