chest_ACC_1,chest_ACC_2,chest_ACC_3,chest_ECG_1,chest_EMG_1,chest_EDA_1,chest_TEMP_1,chest_RESP_1,wrist_ACC_1,wrist_ACC_2,wrist_ACC_3,wrist_BVP_1,wrist_EDA_1,wrist_TEMP_1,label
0.8965873198192301,0.03888704858986713,-0.17332763249819838,0.0478303591239883,-0.003759540428420616,6.642501194270089,33.65704,2.070511954536295,-52.459300756858696,22.884051910132328,30.239135183133428,-6.51005328578474,5.248977000000001,34.07000000000002,1
0.894617737758458,0.040964834144096636,-0.17576878545207553,0.018799509942436236,-0.0038499091726937203,6.645095898541647,33.65634,2.2812943586301593,-51.96709706754181,23.111911754776727,29.75178771015352,28.489020836235134,5.2515350000000005,34.04999999999999,1
0.897084657446261,0.0398630081713114,-0.17441536772308353,-0.07868582250632916,-0.003363475762470584,6.643381197370492,33.66017,2.0689409595368162,-52.74464056728789,22.889835784322713,30.335199561390546,-4.050332989713703,5.251534999999999,34.04999999999999,1
0.8947682196758199,0.042759249934551484,-0.1746515371279284,0.03424224021302916,-0.0036571890317724895,6.644443852465873,33.661037,1.4313265919107871,-51.86231235805986,23.11114342273966,29.815212961977945,-34.3853099742366,5.2464179999999985,34.04999999999998,1
0.896340898368678,0.04267373495107969,-0.17290116297594,0.029856983619633393,-0.003868478737741432,6.649651612521036,33.663334,0.764991230579339,-52.57181493887572,22.8829329037596,30.277638912644353,11.313562174106867,5.241301999999998,34.05,1
0.8952245953815939,0.04342040153424231,-0.17418014270264429,-0.06420537152084474,-0.0035038708985536144,6.649589590109809,33.664112,0.1494329863194757,-52.01765425377159,23.137201843938495,29.935286161426554,14.959276270921077,5.247697999999998,34.069999999999986,1
0.8956382227492229,0.03893800070568159,-0.18278470046461043,0.008908195789991765,-0.003668638094383088,6.65147945409204,33.664265,-0.4090264543765486,-53.168942691613985,22.731038977370126,30.503057052486167,-28.029387800028903,5.243859999999998,34.07000000000002,1
0.8924730257265436,0.039403315980645955,-0.18618785581314198,0.06173876400309366,-0.0032517420799220258,6.655129549266289,33.666103,-0.9474157653880335,-52.46240271370541,22.28620946330228,29.795076979835834,2.9898217049623215,5.240022000000001,34.07,1
0.8953705277292577,0.038384241036488874,-0.18630608394336287,-0.037681449000274626,-0.003694374021852718,6.655213507528533,33.6696,-1.5024085698060623,-53.045149245377615,22.54817083796567,30.306841864586847,16.04337028711388,5.242579999999996,34.06999999999998,1
0.8930650620347045,0.04211030159024043,-0.1879574340296641,-0.054046122996765485,-0.003243800791109442,6.652984281098991,33.669518,-2.096360170981711,-52.10001212541352,22.70732166277216,30.193338854646445,-36.24457878668254,5.237462999999998,34.04999999999996,1
0.893434369141134,0.04300815446913081,-0.18836681284787102,0.05827290590841183,-0.0037600989925596125,6.654586193484546,33.672703,-2.292697860305623,-52.511133586590866,22.875740989102514,30.89867066230839,0.7787321263155472,5.245139,34.04999999999998,1
0.8932822677044179,0.044729806252095834,-0.18584091312811324,0.06336291654128201,-0.0031861909055320293,6.659198392443321,33.67497,-1.876498095071321,-52.09619759065316,23.04643817861356,30.27598265817694,29.686557217420756,5.241302,34.050000000000026,1
0.8955416872702554,0.04146801393373327,-0.1848254145608636,-0.0482318147034688,-0.00337945086251348,6.658381033521803,33.67373,-1.350656475330694,-52.4824787400017,22.95862394329991,30.746203022652026,-25.131277875009847,5.241301999999995,34.04999999999994,1
0.8921675992312617,0.04656006970503505,-0.18513203888573304,-0.03326196534874471,-0.0037683452337611252,6.6568645053732185,33.675575,-0.8340406911388755,-51.770268504600075,23.039299796565558,30.678594353790494,-27.182252392082972,5.240022000000004,34.05000000000006,1
0.8955502883707734,0.044255974551864856,-0.18002536648560935,0.06780932781985691,-0.003482406758825026,6.660785833231445,33.677654,-0.11799160702251828,-52.22685988003875,22.9625727019799,30.998000432315234,37.88036430109468,5.238742999999997,34.04999999999997,1
0.8941536356355502,0.04602697298296332,-0.17783961110194654,0.022124064301772387,-0.0035147455993205976,6.6655049230917305,33.678337,0.8233868000569019,-51.774088630950935,23.035390897836436,30.589160112797607,22.642092302632083,5.231066999999999,34.04999999999999,1
0.8952399257668203,0.04501197634641453,-0.17820547565518058,-0.0584070238526115,-0.0037565875192022155,6.664012880610233,33.677746,1.9043735099569867,-52.22572697741096,22.966853915190278,31.17180144300862,-35.358526664789466,5.231067000000001,34.05000000000001,1
0.8930046821295754,0.046222380128739464,-0.17797293131736028,0.021371122834672945,-0.0035813556552505986,6.663268289262912,33.679367,2.660420386531983,-51.77415044579291,23.03070311469594,30.859210413813777,-15.33876131453625,5.234904999999997,34.029999999999944,1
0.8958341453153329,0.04557444623017882,-0.17429639033642685,0.043536464011692914,-0.003323269590934762,6.6663482844183015,33.682175,2.902871330941198,-52.22614216318235,22.97192282217432,30.903065936950608,44.24397006381097,5.2310669999999995,34.03000000000001,1
0.8941906677127763,0.04546649610468718,-0.1763673955800332,-0.06414189859760133,-0.0035222580006856585,6.66299676442897,33.68346,2.728524439889412,-51.77342895957664,23.02527815170578,30.528485420440077,4.92103464862667,5.238743,34.03000000000001,1
0.8955014866091962,0.04473835751566575,-0.17560663724771747,-0.003382247453709363,-0.002774249729377748,6.661014076817768,33.682186,2.10063204594055,-52.22714126322997,22.977691255780545,31.242032235253305,-40.751568046198656,5.227229999999998,34.030000000000015,1
0.89479677879896,0.0490919256946841,-0.17184087086488423,0.05655550309891319,-0.0030664650446882236,6.663887268626031,33.68581,1.1699310946262156,-51.77212307102945,23.019164120773297,30.780274808640378,7.566170376647242,5.232346999999998,34.050000000000004,1
0.8974881256755691,0.048162856323756914,-0.16939405952230716,-0.054451914805778025,-0.0034441673855177134,6.6646496961303106,33.684917,0.2932285111781433,-52.22881617126011,22.98416890076196,31.20873765266127,40.13347615394956,5.231066999999997,34.04999999999998,1
0.8946924866259323,0.0490283088750683,-0.17524973691726584,-0.041583672057256015,-0.0034565832450565693,6.660596599675846,33.690052,-0.520649718440938,-51.76998729239256,23.01228591476899,30.798357588079792,-26.907915850442112,5.229788000000002,34.050000000000004,1
0.8943575529446879,0.049432400757917286,-0.1803076132321008,0.07287643025706705,-0.0032341040538171086,6.661965214453474,33.688198,-1.329660273203675,-52.23154223646772,22.991510915100964,31.196431680321172,-5.763968760492434,5.229787999999998,34.05000000000001,1
0.8937529292734276,0.0512910206346131,-0.1790265276842332,0.0003860508610186301,-0.003449056141455808,6.660327887793793,33.689762,-1.7930142827903846,-51.76648480479104,23.004373851511573,30.807583846248615,41.40468713288063,5.2310669999999995,34.07000000000001,1
0.894832389863833,0.050569409650994976,-0.17930297117271213,-0.07675446045717776,-0.0033911106780595305,6.657804347507443,33.690434,-2.0708508066922926,-52.23610061639875,23.00018194729416,31.189480330378345,-19.778041018493106,5.223392000000001,34.07000000000002,1
0.8932485904128683,0.050024205914628715,-0.18001816219452887,0.029161206317536683,-0.003640395151219987,6.656193617895538,33.693695,-2.068715495469039,-51.760431170104084,22.994563832386874,30.811848545432515,-29.58201266387927,5.197806999999998,34.07000000000001,1
0.895878865392112,0.05144610179731537,-0.17558325315693482,0.07998334286900262,-0.0038578114530175363,6.657253844025602,33.690693,-1.7466117392391782,-52.244322923711856,23.01208753173774,31.19117751915466,44.20147328740094,5.214437000000002,34.07000000000002,1
0.8932039770190222,0.05196014283669371,-0.17611420543704878,-0.028581845130749864,-0.003442235555392798,6.655756379118943,33.692978,-1.219304847525603,-51.75036037577889,22.97649177683933,30.775546841563518,-5.172190387217424,5.210599000000001,34.04999999999999,1
0.8958377046317614,0.044949224902115656,-0.17697698914954707,-0.026666753292315454,-0.003477908293024407,6.653390932629166,33.691742,-0.2288798233228129,-52.56699796718554,22.668222027567445,30.7720527779656,-44.84994944031155,5.215715999999997,34.04999999999999,1
0.8968053973507214,0.026840281554095857,-0.17278128593975747,0.06220394272270946,-0.0035394327202990894,6.65603528454988,33.694935,0.9816145938810072,-52.526719519061125,22.76599001789771,29.589627015870242,21.545253194234988,5.214437000000002,34.05000000000001,1
0.8956633888022778,0.033575974778519875,-0.17953553162518335,-0.003784083905878037,-0.003571969686055196,6.657527089481107,33.693382,2.082964356313175,-52.54636142318828,22.857154473326744,30.415197329911727,39.067963021376904,5.2157159999999925,34.04999999999996,1
0.8929272536095375,0.04053392722323304,-0.18377386916437136,-0.06406578417625845,-0.0034583738792902663,6.65084800016665,33.698868,2.7005701982666324,-51.96588450464901,22.956816831542223,30.160581749305205,-29.386615926257292,5.216995999999999,34.050000000000004,1
0.8955242293796832,0.042052553707949886,-0.18278246081470997,0.03684672562577192,-0.003443294528525685,6.648352805901593,33.69623,2.471123338478948,-52.51935620079116,23.036600762293595,30.819061610261542,-21.051563193972623,5.213157999999997,34.04999999999996,1
0.8946168196006283,0.0441678938401513,-0.17754931298225438,0.018939758718025654,-0.0033549415104379334,6.648245538261026,33.70084,1.8004066964409682,-51.89554940696515,22.9578734760225,30.42451894035442,37.791816260868806,5.215716000000003,34.05000000000001,1
0.8957925477498602,0.03840456213980695,-0.18320345969549046,-0.06857292746491513,-0.0034258409960516685,6.642610690870486,33.70024,1.1351877068171077,-52.502127658943024,23.05237525563914,30.21427578169621,8.402796035994276,5.206760999999998,34.04999999999998,1
0.8938468016725772,0.03770167218098122,-0.18523692491457036,0.013357337146914137,-0.0034485745740981556,6.640600366199777,33.70229,0.40816586656379295,-52.070226222067795,22.89026886099919,29.848300878796735,-32.15465421958059,5.2080410000000015,34.06999999999998,1
0.8944834109934869,0.037423923615627845,-0.18756573756722478,0.057773424131955735,-0.0033166763146035665,6.643713756870876,33.702465,-0.15199341931411744,-52.75613574198473,22.81448502086219,30.138211732531826,24.13180188279156,5.2093199999999955,34.069999999999965,1
0.8933993971216796,0.035158746442666575,-0.19099048160817864,-0.049095301884105505,-0.003163714079616791,6.639793714764313,33.702076,-0.4674383471977056,-52.77634314136884,22.0192255339489,29.86592260538618,15.723680906155618,5.213157999999999,34.07000000000001,1
0.8934451524713295,0.03643107213362591,-0.19680563564031153,-0.04508847636578065,-0.003348047325280942,6.633147560301826,33.70241,-0.965550964232453,-52.75168998613816,22.470608516315252,30.157594835950565,-39.65263592157011,5.2118790000000015,34.07000000000001,1
0.8912377378415359,0.04096158374164962,-0.20071658288517027,0.054609026477521416,-0.0034419684624073456,6.632185717955068,33.70484,-1.5245119062595822,-52.28830690540928,22.201944587530516,30.011930247444706,2.2090283943261646,5.213157999999998,34.029999999999994,1
0.8910376899708311,0.036606026375816704,-0.20375381840178058,0.0378983262679683,-0.0032162065109439314,6.63244792824048,33.701336,-1.7030157455625567,-52.63412677465809,22.78081627695249,30.107598596701052,36.58845441730272,5.220832999999997,34.02999999999998,1
0.8916962085969391,0.04236599667828581,-0.20069549989977348,-0.07071073019165945,-0.0030523512980786018,6.62886516082568,33.704895,-1.7248184873336534,-52.391921607026205,22.2003393180728,30.28340801477257,-31.811275865131652,5.211878999999998,34.029999999999994,1
0.8935162107946011,0.04077637218851909,-0.19514828133919074,-0.008079461703607306,-0.003142622981615876,6.627287845084467,33.704777,-1.7697662478761276,-52.526539603244075,22.715716863481948,30.514596152054022,-16.780111395520482,5.216996000000002,34.03000000000001,1
0.8925127977974336,0.04251799110982534,-0.19175209970064666,0.07528849722169012,-0.003449998428614188,6.628510672720236,33.703556,-1.5644625969864057,-52.15927388095221,22.781459916154795,30.325350744890784,34.51111528999682,5.215716000000003,34.07000000000003,1
0.8947851938302144,0.03944296675116368,-0.18583564234999358,0.012603586630475295,-0.0025713256035563297,6.62986680138081,33.70393,-0.8088967193996223,-52.65406410803628,23.204531403631442,30.66800890808631,4.442687987381427,5.2118790000000015,34.069999999999986,1
0.8935848686631641,0.04247228879190066,-0.1863576827283669,-0.06208603736071937,-0.003392891373153598,6.6261047492378085,33.705135,0.416053453625033,-52.29464345661737,22.636351978566328,30.150213252591186,-38.541790760429784,5.211879000000004,34.070000000000014,1
0.8947692989157833,0.03920173966728482,-0.18215345894049034,0.03485599651948258,-0.0034726865901882477,6.626251476365563,33.704834,1.4682431414568915,-52.28945659206861,23.288233098591046,30.190718782702113,3.6784508167146353,5.208040999999998,34.07,1
0.8937583246927199,0.04116549552176156,-0.18223400850514843,0.04125827721346968,-0.0035909494409919677,6.629135976806636,33.706394,2.1236557036763464,-52.05598352709042,22.64271796968377,30.319106004211047,33.68376276913474,5.210598999999998,34.05,1
0.8947659186289816,0.040874157303538515,-0.18451122115979132,-0.06732254406447777,-0.003816829357696034,6.624688954772382,33.703648,2.6124411243984715,-52.38627799349645,23.458187866125467,30.206614154701967,3.929817858751426,5.2080410000000015,34.050000000000026,1
0.8933957433599117,0.043185172597479095,-0.1849695607227691,-0.00412142632306708,-0.0031681769681707913,6.622527364878803,33.70455,2.436172979065271,-51.600645626761086,22.381534327906834,30.449207673681897,-31.109595974996136,5.205482000000002,34.05,1
0.8950762723223886,0.04126801066108304,-0.1830225202213632,0.05072559149296345,-0.003320548867639893,6.626729139534285,33.70551,1.704642490754974,-52.60408742634379,23.909261106308207,30.43933072649208,11.688347864766438,5.200365999999996,34.049999999999976,1
0.8938632829065555,0.04540757404617433,-0.18445999204974076,-0.05179147021041272,-0.0031108651502563113,6.624525548306526,33.70353,0.7595094010635239,-51.14689083225398,21.414244670076823,30.582566192347464,20.186886440731406,5.201644000000003,34.07000000000001,1
0.8940173379532165,0.04161214295740009,-0.18799865133567908,-0.04748447441800818,-0.003357358552212274,6.62115002292026,33.705353,-0.27246690608570195,-57.83360115412409,28.856724833556484,32.002106207661726,-32.16270805138952,5.197807000000002,34.06999999999998,1
0.8963087996897442,0.05160871022290485,-0.17613026213734298,0.06140412960566114,-0.004082826967965023,6.624674447638566,33.705956,-1.2704325708655875,-66.40279476775282,12.72477681951848,26.886847071618586,1.681749083350568,5.201644000000001,34.06999999999998,1
0.8971325898108343,0.02703083356918436,-0.19105022769538438,0.04857495472099563,-0.0024731406422346318,6.625309799376474,33.70766,-1.6031949751228058,-49.28328319291061,-23.051510224356434,5.052103345916265,23.20376873534852,5.208041,34.06999999999998,1
0.8844822491979624,0.035189133382653386,-0.21499347677805108,-0.08283638373360608,-0.003322688556055461,6.6163775871083015,33.705467,-1.5220459420399275,-39.57978173716798,-25.626934997479598,31.769967719348116,-24.227183066869337,5.1530329999999935,34.04999999999994,1
0.8905806353257217,0.05648363117562536,-0.20331155472526,0.004720008150575547,-0.0036771803736621585,6.6132156171798435,33.708485,-2.4047055041267216,-48.94267853839451,-22.294221490718066,39.740082550198615,-42.266533287547375,5.208041,34.04999999999998,1
0.8905824742250454,0.04257202977307833,-0.1915592240247552,0.08670823005913184,-0.0034756571874640834,6.612851615821314,33.708767,-2.8060213749619045,-54.00731248453421,-20.06867234085038,29.450892577421556,67.21285303057607,5.210598999999999,34.050000000000004,1
0.8940181661306549,0.04538734462323341,-0.18042648563692773,-0.013081982596985111,-0.003923241718470875,6.612822098118791,33.70824,-1.3232300694172545,-55.59673699203558,-19.708079519381307,28.12648064784108,113.7999670096522,5.265607000000003,34.04999999999997,1
0.8947234676692839,0.04852523359511125,-0.17446361667726812,-0.04405117602965524,-0.0035350452936021267,6.606386050042265,33.70747,0.5294325514692189,-57.19657596990142,-19.489333934563767,22.132203406733783,21.59505475167792,5.280957999999999,34.07000000000001,1
0.8967792274512281,0.05194489596569882,-0.16424429310546146,0.054677165747755205,-0.003683562465481841,6.6045947416205655,33.709717,2.1103270286913776,-57.4814130292682,-20.161400292279428,23.370633875712382,2.2573771330408565,5.264328000000002,34.070000000000014,1
0.8944447375248031,0.06124038673068753,-0.16349318832319573,-0.003761004547251702,-0.00392323821548147,6.604494895994947,33.710396,3.1021759051530444,-56.85111627351736,-18.693094084378682,21.949709112869204,-131.92713406626416,5.238743000000002,34.07000000000001,1
0.8983491526390237,0.055222353268386704,-0.16675220410500327,-0.0659748638372088,-0.003814154915113093,6.597683219777782,33.710037,3.1796870708645124,-58.19954239510209,-19.49774815944502,21.79318232322408,-4.5430601534948325,5.231067000000001,34.070000000000014,1
0.8930918461634128,0.055016115235869294,-0.17801419444033395,0.040613579619317476,-0.0037556385206498526,6.593513529893432,33.711727,2.4116197807300987,-59.2867771095938,-20.210270180815275,16.64795174621121,41.03779024450661,5.204203000000002,34.06999999999998,1
0.8952980742738975,0.045652164605988914,-0.17855632419786815,0.02148857623311223,-0.003609249649829978,6.593578218173072,33.709446,1.2939772599008639,-59.37797132942843,-19.793721989375353,17.634055051553258,14.893578006499919,5.1978069999999965,34.06999999999999,1
0.8945584393397683,0.05191831875155436,-0.17594019223840462,-0.07241993580919634,-0.003359791133057957,6.588731398824297,33.71251,0.04287986462071507,-59.061306911544506,-20.00617502586605,16.166195666440778,-146.57321129114118,5.192690000000001,34.07000000000001,1
0.8944651540921523,0.048852143632241225,-0.17919945524203276,0.012897188514538707,-0.003543460030748037,6.586022769356613,33.712906,-0.9279548302814857,-59.61828745805736,-19.896322441274624,17.72729075068003,-109.19610832931447,5.185013999999996,34.07000000000001,1
0.8945407181521664,0.052403943081485174,-0.17364339768025558,0.0831156280720682,-0.0031428102346705905,6.58727268298086,33.715107,-1.498541829230381,-59.00795585362729,-19.606960290769848,16.31547032990998,36.085303205618665,5.178618000000001,34.090000000000025,1
0.8943711399231528,0.050556221605378655,-0.1772222640389754,-0.015507014622888666,-0.0037039458408949033,6.585180880367521,33.715504,-1.551941085172345,-59.400817864766324,-19.815293412378317,17.55693517076447,46.53323854118723,5.168383999999997,34.08999999999998,1
0.8937336772923371,0.05505599422942029,-0.18170983364356424,-0.05356393769099511,-0.003759166856809943,6.57823915125396,33.71654,-1.3055580607781658,-59.00850125842769,-19.465614784781657,16.273931247769564,-40.75112782186725,5.168383999999998,34.08999999999997,1
0.8941514087574305,0.05266947220451999,-0.1799108367607198,0.05292395988738767,-0.0034060775178840113,6.579033778367814,33.716515,-1.0386287538582508,-60.234068248946876,-19.783523884866106,16.801247576623236,16.265360271056615,5.153032999999998,34.08999999999999,1
0.8938622470062343,0.053617706052150056,-0.17921286781887855,0.04510380447813993,-0.0036254780427184574,6.578100193971139,33.71926,-0.8563966122706511,-58.62100787514956,-18.961967799406835,16.977333335378837,66.93663128940919,5.154311999999993,34.069999999999965,1
0.8942985118857623,0.05218458588261056,-0.17928891697213672,-0.05685134090972677,-0.0034774085594160287,6.5728499260683835,33.72135,-0.3422092149857052,-60.02873410468459,-18.719946336482334,18.004589023913383,-11.51953713245708,5.1645460000000005,34.07000000000001,1
0.8928516135778112,0.052544503744203684,-0.18193002885849271,-0.005969756555258808,-0.003215485255718411,6.568984766678927,33.719906,0.49232252970729723,-59.318318616053794,-18.727435925938888,16.693244282075657,-24.64107841427505,5.168384,34.069999999999986,1
0.892707803438249,0.05015238536683139,-0.17984610902339235,0.05805733664736443,-0.0033040164816979015,6.570595501888779,33.72176,1.3844839077418316,-59.64307956130196,-18.79609919150056,18.671086127575947,69.0804127234882,5.158149999999997,34.07000000000001,1
0.8929438489619937,0.05301567576672215,-0.18174651399153807,-0.04317950946684247,-0.0032278014435463127,6.569646314875927,33.72322,1.9982828326886546,-58.84143455113023,-19.089372708701216,17.353706683785514,28.666971492538746,5.169663000000002,34.07000000000001,1
0.8927071427631526,0.049144403410518955,-0.1846820080516977,-0.01696897113589688,-0.0033255411667892647,6.565479438422331,33.720745,2.1543583825723043,-59.59679639436372,-18.91266814306348,18.795034466175608,-47.342065455163095,5.169662999999998,34.06999999999996,1
0.8931736408152638,0.053532097060279345,-0.18236040772246578,0.04787225399666261,-0.0027956758404291465,6.567468308016865,33.723644,1.6363166180385635,-58.692353690788124,-19.093071750710127,17.29288872347927,-17.12940705759034,5.167105000000005,34.07000000000001,1
0.892801840883121,0.05230872050286161,-0.1864088550199312,-0.05126181737849798,-0.003607357512330291,6.564328376031875,33.724827,0.959217106054627,-59.51838704066154,-18.89732812182856,18.697740315851654,80.05883672391502,5.163267000000001,34.07,1
0.8918320393705393,0.05579517706843501,-0.18768865499289303,-0.03562880735734707,-0.0032111191894196177,6.558924863188982,33.729702,-0.07821740155868542,-58.73205914695391,-19.115281519609304,17.34347771272314,-10.44992810142425,5.151753999999999,34.08999999999999,1
0.8928385498086097,0.055295393671471904,-0.18222109804980793,0.06891346731139181,-0.0037010457115320256,6.562022966449136,33.728638,-1.0744333638251105,-59.38613280962747,-18.869244803207714,18.834338344139933,-4.686879406916996,5.164545999999997,34.08999999999998,1
0.8938390993050713,0.05655460514574779,-0.1796793818522132,-0.0010441153300313865,-0.0035018737870335416,6.558583625688086,33.730328,-1.5408218987974147,-58.72283921373524,-19.149180022502055,17.19209207399902,29.84572268561451,5.151753999999995,34.089999999999975,1
0.8936405793034847,0.05317886931652924,-0.1793784879267573,-0.05996144759419308,-0.0031716760816988166,6.555570618712144,33.730194,-1.5083640356393802,-59.420983435207035,-18.829612333285308,18.84426056868294,-19.55735935766832,5.155591000000003,34.09000000000002,1
0.8940696126067669,0.05782662876892429,-0.17983224565967348,0.03024700855769081,-0.0034773235875346403,6.555446768257384,33.731243,-1.5461114862106744,-58.713884012232725,-19.19054481283653,17.28025386939606,-25.046982981984062,5.141520000000001,34.069999999999986,1
0.8946669435682311,0.053945605973640655,-0.17570572459469336,0.05619161900104009,-0.0031729350400093235,6.556877847165278,33.73222,-1.4073558519795168,-59.87968162644105,-18.633611834920845,18.838978168615363,54.73989907415007,5.151754,34.07000000000002,1
0.8930145123658761,0.055281736687262245,-0.18322916256089214,-0.037621348833498554,-0.0038833629321441627,6.5524613826800815,33.735077,-0.9209206740089604,-58.61728710555703,-19.17961596731096,17.190856369290437,-19.93935251536851,5.146637,34.06999999999997,1
0.8920412778758219,0.05098806020395896,-0.18528904885547015,-0.03055192085756614,-0.0036401059178233527,6.549702171089469,33.736465,0.06743219932607994,-59.91674107832387,-18.641891729514317,19.027534931603245,-36.83024948894022,5.145358,34.07,1
0.8938689579436605,0.05483661071064138,-0.1833952839915945,0.06017685795020596,-0.0035031393261372415,6.550753823765175,33.73671,0.9685373537617149,-58.28913849931037,-19.42146447066298,16.906640554406305,32.92453986806616,5.1440779999999995,34.07,1
0.8917423053407251,0.0471709615159925,-0.1851004374318474,0.019366795341861323,-0.003508103257901722,6.551954711200654,33.736862,1.8481445099695735,-60.546459386766514,-18.06541822559399,19.208002590139113,38.364770505583174,5.133844,34.07000000000002,1
0.8933102910131058,0.053604894408049594,-0.1838764893915254,-0.05387901784753664,-0.003569909074030473,6.550886780911791,33.73808,2.751518986223748,-57.58698609793889,-19.08991371061537,16.611589407151303,-42.21664544780743,5.133844,34.06999999999996,1
0.888745956989941,0.04012464489049604,-0.18139896432575184,0.032967699547789796,-0.003741349269157712,6.551878925595676,33.739983,3.35484907789221,-64.44023039826554,-18.830454292235608,22.791218817490964,-11.76025256929996,5.118492999999999,34.07000000000001,1
0.9024560325760178,0.052561101143297595,-0.15797651255160475,0.028237586528760274,-0.003139685745430604,6.556180044882866,33.74258,3.5114084486051174,-55.21498089274339,-38.17778943802662,6.95457212102292,32.60962637860669,5.136402999999997,34.04999999999999,1
0.8985303849433617,0.04818048278996415,-0.17755987305318607,-0.04628445175125904,-0.0033983318563889533,6.560547875040314,33.74163,3.3755827147527295,-45.722713969107645,-25.109641409522283,12.260052079486325,-2.9512794514845586,5.117213999999998,34.049999999999955,1
0.8889580587442343,0.09647662791847178,-0.14699103992382734,-0.004579159254548523,-0.003633795133394553,6.584155363269306,33.743694,3.056097247974845,-33.58838338640564,14.997263638756214,52.46764303747866,-43.995422298266654,5.057089000000005,34.05000000000001,1
0.9056165245194805,0.10537801805677345,0.0240938521648484,0.04387997050724258,-0.003196816649604374,6.578461263557736,33.7441,2.4689417443159227,17.061199061720384,15.945418765833182,75.26627101542286,24.77055789715042,5.133844000000002,34.05000000000001,1
0.9040642230479656,0.09386547811767376,0.04097997826916634,-0.026391949359921212,-0.0037052704988271203,6.565910834272647,33.748512,-0.15546916214045,-16.80543390696447,19.862881683485032,62.10144836624847,39.08315396167566,5.100583999999998,34.07000000000001,1
0.9040438126465705,0.08016369181151443,-0.06117008935082404,-0.08379749009177109,-0.003149405790770688,6.557198637235367,33.74893,-2.232580302190433,-37.275414126107115,-28.07605061104113,9.26172277623026,-65.71402602942375,5.110818000000002,34.06999999999999,1
0.9028575596028617,0.04516423773540153,-0.13567898149955374,0.03578068253620574,-0.002729145791348699,6.554175167557236,33.749233,-2.94029637060669,-46.43323217469527,-46.273858724464624,29.82453798685733,33.2695843065072,5.016153,34.07000000000001,1
0.8693395005689029,-0.008646389095430492,-0.29490919830397233,0.04378308732617935,-0.003203330624633316,6.559864913195986,33.750683,-2.624523202820734,-38.33038887637933,-35.42078516158943,-40.90536876419087,181.98875976531454,5.026387000000002,34.07000000000003,1
0.8670689365139244,-0.03823072596765131,-0.29360092174498903,-0.018944615870088194,-0.0035455537060690543,6.56169033680859,33.750973,-7.69323501236743,-39.91418203480095,-30.250301476695398,-49.34904478185697,-224.76118194233104,4.916371,34.07000000000004,1
0.8937272446446328,-0.010011974023704316,-0.24441119032939368,-0.04164167234187568,-0.003478259026174105,6.559690582887178,33.75051,-15.856037604575855,-36.66941095784057,-35.422695725918985,-44.09652990373568,-91.9895142106694,4.833852000000003,34.06999999999999,1
0.8705537715279447,-0.0028791650510369307,-0.2706545880432211,0.06201751585146018,-0.003216385661265204,6.559625448304714,33.75493,-17.16308115221693,-41.45183326351241,-23.453669149202288,-32.184070035669485,22.72714983194742,4.835131000000001,34.07,1
0.8924824514257557,0.007091702396094377,-0.22700062225121298,0.02828746611049264,-0.0033670075164042306,6.561737105825594,33.75447,-13.303874311689642,-29.55449220268477,-30.81183697515866,-55.55937564214327,24.305221747362623,4.694413,34.06999999999999,1
0.8874325388159935,0.018545697287812767,-0.2304598173192334,-0.05886147004646363,-0.003275804904660301,6.560442014115041,33.755013,-8.151293512599427,-20.1140241471046,-30.81955813026947,-49.76571910840427,45.84974610139882,4.717440000000001,34.07,1
0.8882194657655487,0.02841830325347928,-0.2348914903015467,0.010359891275434477,-0.0035901178098486472,6.559017552885965,33.754856,-3.2817150761655403,-44.08002763846948,-18.597238283311288,-53.43791102416183,-13.73554837420274,4.782682000000002,34.07,1
0.88165835777641,0.02729350994776332,-0.2361718461718742,0.053597223967524456,-0.0034381168036539244,6.557408632773896,33.753746,0.5127506929084334,-41.31398875397577,-19.151314437356778,-45.60909158701255,-33.061883119359194,4.794195000000001,34.07000000000005,1
0.8817780744922631,0.045462214501785704,-0.2466443106008584,-0.07097947160294132,-0.0033588433240782528,6.5533927490506425,33.756683,2.896922308868037,-45.53882626077035,-27.98998999890189,-34.567358844736994,19.466065902600324,4.806987,34.069999999999986,1
0.8876068208972291,0.035220924934219244,-0.2318251700054135,0.0014929923790921024,-0.003356481109862562,6.549043946172947,33.757618,3.802610898368329,-55.515372578757116,-27.417172717742655,-24.629988117635005,-8.395630429747458,4.849203000000004,34.07000000000002,1
0.8850853179666436,0.03677856330167068,-0.23832877289499801,0.057333091502155126,-0.003676289685552395,6.550595160691129,33.753002,4.004158048930782,-53.15799278408871,-29.86580908003928,-14.868543551416728,-13.63162590183995,4.826176,34.069999999999986,1
0.8835517108121371,0.04117578202857654,-0.22914656501587646,-0.04816808594751833,-0.0032798159090138106,6.546367839426163,33.755028,4.026619467928598,-51.6480934997924,-27.842013787301337,-28.08295885924689,32.759908308760025,4.885021999999998,34.07,1
0.8886677204412776,0.03133726536461649,-0.2263556716405944,0.035248767355942,-0.003114611011242342,6.54265690509019,33.753635,4.425108831344792,-53.44390933753098,-26.73066826749202,-28.019820195186135,10.294781435915883,4.824897,34.070000000000014,1
0.8861232217904842,0.035693243809892285,-0.21524892039620264,0.02381033129100295,-0.003793080037025477,6.542494581831953,33.751587,6.112510314923106,-55.568822942751076,-24.830837952999115,-23.86406298009509,11.718580367317946,4.817221999999994,34.06999999999998,1
0.8926509036998488,0.026058623401338177,-0.21097433405289392,-0.04673731768744917,-0.0035751650051375782,6.539554694958744,33.747795,8.257726085989697,-52.95873679743086,-26.311869036712334,-28.07159431119259,87.63552441944562,4.860716000000001,34.069999999999986,1
0.8872089464957984,0.023167462855105642,-0.21940519336548708,0.03942576982229518,-0.0036446929353588058,6.535588776927721,33.749474,9.781909932250395,-53.84536821652577,-25.813264041766047,-26.13279888857946,-25.023780911415162,4.863275000000002,34.07,1
0.8900293793402723,0.019949536602179418,-0.21442045884073346,-0.006947001292478469,-0.0036768481238314836,6.536679564929513,33.747746,10.071377984920804,-53.05458798271712,-26.465947083966892,-27.47952302458798,-48.39384255809309,4.864554000000004,34.069999999999986,1
0.8874304164301016,0.027387099297886564,-0.2302634309192192,-0.05133622517487442,-0.003562459114603833,6.530107975713269,33.74694,9.063005825118829,-54.51747507540508,-26.268431174641627,-25.05563428988743,18.818369812782052,4.833852000000002,34.07000000000002,1
0.8828915198163518,0.023484519414841535,-0.24776948522127795,0.029639437694181286,-0.0033280464691946795,6.529418236564849,33.74383,6.866316755656016,-53.82864765335151,-27.351531753206306,-24.673187656292146,-28.230399355437857,4.865833000000003,34.07000000000001,1
0.8845996908009114,0.022388168917392356,-0.23949097948007705,-0.04383700212220585,-0.003484291931936265,6.5296788794888325,33.745274,3.380030861004859,-54.22137041091142,-26.41634639921044,-25.22671131743602,13.088340346478676,4.864553999999999,34.06999999999999,1
0.8860770333882286,0.025214883955652582,-0.24211650021456957,-0.039503049075298724,-0.0032485463366492676,6.519963131957532,33.742554,-0.6172102172328079,-53.77456102311154,-27.254660893423548,-25.276436011459364,14.791823896816446,4.87095,34.07000000000002,1
0.883355073917023,0.02452029051870945,-0.23969989702669628,0.07831111160962942,-0.0034306505323478645,6.518099290856714,33.741653,-3.2999100785781943,-53.90207164278409,-26.684054228511116,-25.010514250881066,-27.211069064180588,4.860716000000001,34.070000000000014,1
0.8856112856635845,0.028459096672711414,-0.23941987016433347,-0.021434317116706434,-0.003390398987049771,6.515652557509302,33.73947,-4.0794470542689005,-53.61012511154938,-27.323630711231313,-25.681338544308772,19.51106488205455,4.868392,34.06999999999999,1
0.8835176335485385,0.02617987228759765,-0.2410418862996913,-0.037441756725882326,-0.0036659040557529498,6.5088288151752565,33.73788,-3.658427071585942,-53.60870122974247,-26.67290882095638,-25.183733382747505,-4.196223622891866,4.859436999999997,34.06999999999999,1
0.8834225106448602,0.030834149462382894,-0.2414180216926638,0.06948664248068202,-0.0033813354721520966,6.510993351493434,33.735695,-3.084369901768001,-53.73655232738918,-27.338992460415785,-25.58979838031475,-27.56269703120881,4.853041000000002,34.07000000000003,1
0.885873380673116,0.02528268491170273,-0.23634008585019523,0.010656356697453554,-0.0034495799492898368,6.51354012487948,33.73435,-2.2481109469546716,-53.84968685397494,-26.34279658245288,-25.899485959333905,36.48514232366039,4.844085999999998,34.06999999999998,1
0.8872497503211009,0.032096877309559714,-0.23439549128273818,-0.05819526649183135,-0.00354581585965285,6.5080763900665,33.73205,-1.2907006577311848,-53.731775418571274,-27.111309480945454,-25.612057740311496,-6.343641963208994,4.850482,34.069999999999986,1
0.8848804977388144,0.029185365423928238,-0.2305709245795978,0.06040048138646811,-0.0037963215649995316,6.508037981523762,33.73209,-0.26000664003058815,-53.75874800645207,-26.353879325875067,-25.442072822798984,-20.725888428034136,4.845364999999999,34.069999999999986,1
0.8885853774548997,0.01983027242121794,-0.22520759274173335,0.053060277448369594,-0.0029276767413299928,6.510801849205957,33.729256,1.3876095191596247,-53.707967049496354,-26.69778716841864,-26.49522976173328,33.97079815723611,4.838968999999998,34.070000000000014,1
0.8861795921519576,0.024304238711230296,-0.2292007506031179,-0.04843876904580939,-0.003553969611340789,6.508758649620494,33.728455,3.5460463017703012,-53.691255871534665,-26.144777371234614,-25.508606360002876,3.5368346840135114,4.840248,34.06999999999999,1
0.8862821213015377,0.020018024590441247,-0.23143723374917577,0.02238413209254525,-0.0035884222130102873,6.506014341103905,33.728798,5.2298607981864675,-53.51540859239524,-26.70325158060496,-26.768410250835597,-22.05063839106249,4.833851999999997,34.06999999999998,1
0.8861636681707934,0.021543081188438198,-0.22926332557316212,0.028227331805893412,-0.0034405731464511938,6.509951660705718,33.728058,5.7666707953932645,-55.40862972629962,-26.474756413887494,-23.02501648214978,19.88414683110148,4.833851999999999,34.06999999999998,1
0.88689368306421,0.018545748717807967,-0.23275390309347138,-0.08053582709154582,-0.003147673828383336,6.506176713347296,33.72717,5.0701943823112465,-55.43331516256921,-27.52472276559904,-15.52866137888789,18.790663621186376,4.841526999999997,34.06999999999996,1
0.88433095304104,0.021691865613260513,-0.24345722843958972,1.0806516529054675e-07,-0.0035484822302363295,6.499892958750145,33.7287,3.19397908111625,-57.08336582139334,-26.685857276675993,-18.028334276762987,-32.166266341166306,4.854320000000001,34.07000000000001,1
0.8844190716302065,0.027053144413773402,-0.24043442629691644,0.055557683676034204,-0.0036015454779967345,6.50107285683937,33.72559,0.522587539933867,-55.752267669168305,-27.311868417444614,-18.98189062318697,-3.423845833597256,4.858157999999996,34.069999999999965,1
0.8844713972201051,0.025982862938914095,-0.240243557147191,-0.05733674964170601,-0.003616799409967674,6.493363740323674,33.72867,-1.7615705130888801,-57.60626833443066,-26.310612164383816,-17.295164812212512,1.9632525163148866,4.851761,34.07,1
0.8830698189076983,0.037221103419482,-0.2459394480332408,-0.021986151556334224,-0.0032564779866322445,6.490336229590628,33.727673,-3.1704508152937576,-53.99006873933584,-27.86395829569439,-20.233574697858373,8.832132196794626,4.840247999999997,34.07000000000001,1
0.8810180418239978,0.03966264641474738,-0.24288466413139898,0.08212714747410815,-0.0037760381468286935,6.493683040103605,33.72557,-3.619106978158815,-49.125199543847145,-27.997834634343388,-32.42150705232145,51.822255309332014,4.842805999999999,34.07000000000001,1
0.8831835236233423,0.042802376282868475,-0.24494729661019604,-0.024794023291064223,-0.0035867018789727456,6.491013496505466,33.728447,-3.1849084608584612,-53.01292154636643,-26.996150023845363,-27.968886939633187,5.6920025258199765,4.837689000000004,34.06999999999999,1
0.8834189437669048,0.039289337053748624,-0.2384967060214936,-0.0331528737529266,-0.0032132013645736093,6.486561087757281,33.727356,-2.6822144999706814,-52.7638067521774,-25.71854881382731,-28.798981855072437,-20.379418907885704,4.812104999999998,34.06999999999999,1
0.8838896464797824,0.04115811689090482,-0.23782221641157608,0.06891135073074088,-0.003300163124087934,6.485702132837627,33.727524,-1.7192981856094622,-52.92900225485414,-26.31184482268851,-26.373857526184505,7.622342730594514,4.814663000000004,34.07000000000003,1
0.8845498821086338,0.03825213379343649,-0.23182083947644125,0.014803121083857665,-0.0034286300904572803,6.487424792470645,33.729694,0.11148489146957817,-53.07844276957609,-25.668889434295906,-28.453368647599394,-1.6022937193013005,4.813383999999997,34.06999999999999,1
0.8844595437490145,0.03672103072137346,-0.23750921658666507,-0.04427422436322874,-0.0034576225026521725,6.481614583010893,33.73016,2.267259805002967,-52.78407052875506,-26.341519872835857,-27.088369564141786,-108.37953639963897,4.806986999999998,34.069999999999965,1
0.8809562195776302,0.034682271339504474,-0.24064271631468323,0.02886518949448847,-0.0038420390003830723,6.480189343475819,33.730545,3.906174357339119,-53.293646580053206,-25.689189616772612,-28.60242666232494,-31.039736610166283,4.805708000000003,34.07000000000001,1
0.8841356462117554,0.035448786903467776,-0.2387315719984652,0.018475984511030115,-0.0037280118818451935,6.482299590928876,33.731754,4.399481390999587,-52.80522290803095,-26.49293537451029,-26.675170559021925,28.84649124144835,4.8031500000000005,34.070000000000036,1
0.8824769044433735,0.03713874725435132,-0.24082304519007197,-0.07292123477925583,-0.0035172325705142347,6.4779473293815295,33.733925,3.863505103535679,-53.480752898324184,-25.56688085977132,-28.241788049296055,9.834578511504867,4.8018700000000045,34.09000000000006,1
0.8833673850624904,0.03778630988509122,-0.242480540202852,0.013389274336220459,-0.0034581596243757305,6.475001471539431,33.733685,2.1987202513290653,-52.48184849399149,-26.743412277921323,-26.18260852790796,-30.141885088824235,4.791636000000002,34.089999999999996,1
0.882259852122049,0.03957881281530754,-0.24067878265209852,0.04735944529023931,-0.003396696307192171,6.477556104515026,33.733765,0.07458209345168466,-53.83343785867999,-25.375581805305373,-28.55060907194562,6.6662415769014505,4.791636000000005,34.090000000000025,1
0.8845957404356091,0.04093644634609295,-0.2372091292213361,-0.05630410470678469,-0.003293394815426889,6.473628815532111,33.73464,-1.8386395706723653,-51.97127111294033,-26.787644062894294,-25.593271888725525,24.080925679541558,4.787798999999999,34.089999999999996,1
0.8825196784057127,0.04130175104935589,-0.24024599088942197,-0.02392854351009597,-0.0035610442557658596,6.469486005879387,33.736538,-3.1935229550014665,-54.54371703715077,-25.222787591439484,-29.129238068682923,-23.427327943683725,4.785240000000003,34.07000000000004,1
0.8847262572644861,0.041629696691743184,-0.23585439940913697,0.07752261379358005,-0.003841913015761025,6.472200487580106,33.739513,-3.7947469255114235,-50.647802844037386,-27.08186428980191,-24.824605989312303,11.861026541245943,4.781403000000001,34.07000000000001,1
0.8818924324718533,0.03987166334063625,-0.24089483683564236,0.017750645768970983,-0.003384311992438864,6.472906011862137,33.735863,-3.6166301315986433,-61.6734392291998,-23.951593881852286,-30.79276998997342,34.95206462050208,4.775006,34.06999999999998,1
0.8865701117606049,0.04145535973724371,-0.2387074345170235,-0.06439728559846465,-0.003698364320506266,6.468780852066447,33.73955,-3.220924456609307,-48.99933204595031,-32.456160866483216,-3.9694843848250208,-15.915967726154745,4.776286000000002,34.07,1
0.8805436007438808,0.03023657097655327,-0.24525696340734335,0.030020203300151063,-0.0030827361821785105,6.468333389230776,33.740402,-3.0322578152448223,-45.72342963034126,-26.815191743724636,29.864201687008993,-10.621381466138157,4.915724000000002,34.069999999999986,1
0.8825496910167404,0.05157281077033329,-0.23218328372451313,0.08191344747111144,-0.003266016294604134,6.470325951302562,33.74165,-1.9604290022904203,-53.687420453864654,-22.95205162102251,34.21698699970912,61.99687940950166,4.931074999999999,34.06999999999998,1
0.8814212798200434,0.05261954775982597,-0.24510296144515872,-0.023203615790777267,-0.0036829713969370515,6.469126776157094,33.74499,0.6974794449641423,-50.69244461092969,-27.118011452626785,21.63521107441911,3.6564423114083655,4.922120000000001,34.070000000000014,1
0.8754297139908698,0.04355668811865254,-0.24981624960206716,-0.042630613979758994,-0.003517280939263856,6.465652171944388,33.740654,3.338724925511017,-55.54068530662119,-19.18465966481878,31.58170371582628,108.14194424469734,4.9310750000000025,34.07000000000002,1
0.8797712401439143,0.045303288160201925,-0.24564473271188436,0.04289770075459154,-0.0036234353078183432,6.469437004347933,33.74497,4.470783262750924,-56.98577505812688,-19.967174607661708,-19.16554369481521,59.33454693702923,4.9208409999999985,34.07,1
0.8815821488444099,0.059676412970102795,-0.24224608972254652,-0.03842484237777135,-0.0032486555591188545,6.471097618747892,33.742535,4.2436096790436615,-41.479368445226456,-27.105708752187773,-46.52702705603676,-99.63927861386892,4.837689,34.07000000000003,1
0.8770521894408543,0.059324343569643216,-0.2521457151810486,-0.08545111144720312,-0.003662438857549211,6.46611472602603,33.74631,2.7032790298270637,-37.49775897327744,-28.577201740841385,-42.69106887623524,-51.33320388368967,4.804429000000001,34.06999999999997,1
0.8854753209242878,0.06263313418899,-0.23080049235761277,0.047209190850853885,-0.0033330664776809278,6.46471725272924,33.7467,-0.10464729785651995,-36.08615802307787,-24.532383914111026,-52.545347210668886,-110.16768691599285,4.732790999999999,34.06999999999998,1
0.8745015106390637,0.0745503697851108,-0.2532387499484934,0.0508231238844821,-0.003341733424880555,6.466633967154164,33.748394,-2.23443684554111,-29.305495908502305,-25.261304450479706,-49.233880088435996,33.20751707037434,4.713602,34.07000000000001,1
0.8707509055928536,0.08197183732194754,-0.2556260295074998,-0.05357058996487824,-0.003338652713414763,6.463619152547029,33.74482,-2.969188125410733,-36.58051520335032,-23.783215220592716,-49.16532669495592,9.435686287867533,4.694413,34.07000000000003,1
0.8816270639750824,0.06300130756096557,-0.24120365101029612,-0.01673313802964374,-0.0032460114653286177,6.46482121258449,33.748142,-3.710688441352963,-32.175148301518625,-26.583888241416616,-47.89463480560693,-75.70135428113957,4.727674,34.07000000000004,1
0.8778583555299606,0.06687876583331623,-0.24252539533389952,0.07171744653247662,-0.003410277336403555,6.465844835755135,33.747692,-3.874503139667548,-33.607041986845985,-24.873155379516515,-50.51437419389764,-13.110181011017888,4.705927,34.07,1
0.8831343359769424,0.06863136153491613,-0.22977271720074616,0.004863207467198425,-0.0033036496181766952,6.466761427962044,33.748882,-3.378543645918241,-27.971642957772175,-25.768948836758586,-51.58165144478339,23.13248770984271,4.699531000000001,34.090000000000025,1
0.8782000149508289,0.06976077091854044,-0.23609903477041244,-0.04850718628679714,-0.0035181552179109816,6.460861589974013,33.749405,-1.8800191999009455,-30.732367046744653,-24.196145115869825,-52.367399353167905,-49.45225679555108,4.693134,34.089999999999996,1
0.8859389856833635,0.058834891068034696,-0.21991994847506552,0.030659849777923825,-0.0031615272931760727,6.462902866011989,33.751076,-0.026870830234328895,-26.24477142140457,-26.48206780410496,-52.213181979772,39.92959514293572,4.686738000000001,34.089999999999996,1
0.884215149898673,0.05689111436578756,-0.2163903311570588,0.04513312168158253,-0.0035955067225264628,6.465663857590982,33.747314,1.6911715796004072,-30.03836290383494,-24.09558783941884,-52.56680015760885,74.39563095396392,4.671386999999999,34.089999999999996,1
0.8860276503526636,0.053454544462317954,-0.21861441696782788,-0.06069505336945882,-0.003546784888536459,6.464286907752447,33.74701,3.322608081068066,-24.956884521590748,-27.518772568967545,-52.684406592778565,3.7424593417847016,4.666270000000001,34.069999999999986,1
0.8837129420880462,0.05035060506145464,-0.22585215145929205,-0.003915343259070003,-0.0034538572688869356,6.460114925446628,33.747845,3.970122920481621,-39.34587496942931,-17.907228545462782,-48.547358007751605,-23.043338326273766,4.662432,34.07000000000003,1
0.8870992196435508,0.05195566948752035,-0.22179085088524586,0.05836525800781534,-0.0034267197014537093,6.465471965694108,33.749966,3.137167187261499,-41.1630531318878,-21.06075132350507,-43.74855605958159,55.446205447115474,4.657315000000003,34.070000000000014,1
0.8785228720594844,0.03201758672516653,-0.24342019289540254,-0.03669204076541846,-0.003268929854565564,6.464088622041816,33.74792,1.6194892193158514,-65.82032803705668,-21.582483647374378,-17.99428195531039,17.382919010682237,4.663712000000004,34.06999999999999,1
0.8873689059252932,0.03042283677979919,-0.24760648915113154,-0.05586423142237892,-0.0034210823950766747,6.458963566888781,33.750805,-0.685836222727096,-56.241620551302496,-19.712858692402296,20.398452788637783,-29.94330784811372,4.6829,34.069999999999986,1
0.8738382909747955,0.03299450099143584,-0.26838413498519,0.05836521706169451,-0.003679703321391472,6.460282557380781,33.748184,-3.224998636121633,-68.41392349477177,-18.147840452194515,12.779202425168474,11.542132962308733,4.7814029999999965,34.06999999999997,1
0.8939497870676851,0.008649295388554367,-0.2213688709620893,0.04034776026228982,-0.003248720993999026,6.464038063679827,33.7494,-4.909126896155783,-33.49836938343343,-19.658440946365186,38.110058896139584,83.98073620521397,4.771169000000001,34.06999999999998,1
0.8769479921708369,0.017403503120570877,-0.24721893959258917,-0.06519631327431694,-0.003373726480589447,6.455039983512904,33.74979,-5.185600584053441,-34.48717402005171,-13.19250663188867,51.759072533759,10.636246362957031,4.846644,34.07000000000003,1
0.8804567516006905,0.061543177211930394,-0.2140158644268164,0.013398156355424178,-0.0034745454642556915,6.4509265144748715,33.750088,-4.518227913531014,-42.19921463994641,-16.481091611980357,48.706870393253524,152.56591867127062,4.867112000000003,34.09000000000003,1
0.9055361400936811,0.051452367167338864,-0.18613041011186798,0.04016444967174115,-0.003816352533709664,6.451749268874919,33.746994,-1.3698812933824072,-38.473957819395714,-14.524517894447655,46.58027612464721,61.13670439524478,4.890138999999998,34.08999999999999,1
0.879657194664753,0.07795677314025369,-0.22487133893854,-0.046582181882586615,-0.003612860025436424,6.4477009153845,33.74721,3.360212377292276,-49.98985707265037,-14.50928799202891,41.89472570719327,-159.33542408599376,4.900372999999999,34.089999999999996,1
0.8788109126994477,0.10458725117621223,-0.24642031054223992,-0.01760092375590981,-0.00380661739520878,6.442947308443516,33.747044,5.432905000425638,-44.19580915150615,-12.652813948874462,42.42181324368863,-72.59088015703863,4.8747880000000015,34.089999999999996,1
0.8551531237625217,0.09323412002655618,-0.25929439957151956,0.06944077386502011,-0.0031898186800920466,6.444654787796764,33.7504,5.266686072529715,-48.28597052700434,-13.061258747739911,41.548938472776015,-105.3447938161063,4.874787999999997,34.07000000000001,1
0.8771840067975298,0.08476283062809659,-0.2548529139845169,-0.038301112365199154,-0.0026991392917476214,6.445793940750058,33.74717,4.626340977285043,-45.69881790382556,-13.232921252604209,41.55856453828851,4.774365964405276,4.865833000000001,34.06999999999998,1
0.8697601063742444,0.08323710308280403,-0.26563524625409163,-0.0036318160921016427,-0.0033638621353901466,6.4401964896748245,33.746967,4.346147687426193,-48.230239905832796,-14.025258718916932,41.352238972900444,-21.16991902157507,4.867111999999998,34.06999999999996,1
0.8688314905871757,0.07274441723332406,-0.27922705935981945,0.05004936515444356,-0.0038504738396953147,6.445571393106491,33.748196,3.426153327478357,-46.49072724553812,-14.356921094704305,40.504695881679595,-5.49493112322456,4.863274999999997,34.07,1
0.8675381685958702,0.07011714074216521,-0.2736381463406845,-0.08111317984725998,-0.0028998393784574928,6.443744500472418,33.747105,1.4882336286018905,-48.255758910167835,-14.397982105420782,40.78586605672736,20.833384019783885,4.8645539999999965,34.089999999999996,1
0.8783940884978672,0.07538240527558936,-0.25346678565645014,-0.0007337809024360791,-0.003301542413758783,6.4380205598109415,33.75056,-0.9408795884537045,-46.97633773956751,-14.345137653101714,40.38397325681059,-13.460692721327055,4.851760999999995,34.09000000000001,1
0.8741734854896669,0.07462721023113938,-0.24295121075588216,0.05634246949094108,-0.003215221416840726,6.439490795194616,33.748955,-2.9083195781724696,-48.44673270359216,-14.683853986792522,40.60518315642128,-5.1971897142917065,4.8351310000000005,34.08999999999999,1
0.882611650706108,0.060079322811295445,-0.24458440817972701,-0.053590972725142315,-0.0032051106424474587,6.433960689416929,33.751877,-3.882873708037211,-46.93393935129695,-15.070068558622214,40.35166501391456,17.07775695484428,4.854319999999996,34.08999999999999,1
0.8766918142032967,0.06575197368438324,-0.24529279958348063,-0.0032186464107934513,-0.0035829537557802503,6.42878684907498,33.7538,-4.335024335958774,-48.16948349241011,-14.96843608101234,40.50256318142404,-24.42046100213319,4.853041,34.09000000000001,1
0.8809303987016368,0.06480956396072159,-0.23681499416812873,0.07562765930771503,-0.00332677567599143,6.431452798056133,33.751637,-4.37143101775949,-47.32831739240858,-15.007989232021874,39.921510151224744,-5.906717848617322,4.858157999999995,34.089999999999975,1
0.8791647765715181,0.05828906748305888,-0.24018920022509094,-0.047990394504246275,-0.0034050031346876996,6.430515368728692,33.75637,-3.7554168427426093,-48.42918852416295,-15.06939526985912,40.023950868707296,26.944256980224942,4.842806000000001,34.09000000000003,1
0.8820883323213312,0.06444808753683684,-0.23805824722489433,-0.016594925226199403,-0.0030743504104237605,6.425560260390675,33.75716,-3.0569925813346175,-47.58575684696451,-15.083771563774977,39.89849240862192,-29.71206429520519,4.851760999999999,34.08999999999998,1
0.8796012767190333,0.06481461660063964,-0.23446289967746045,0.07174990807648549,-0.0037367491457710044,6.427887820413252,33.75722,-2.4358060976662275,-48.394523915494666,-14.95505656721896,40.12551040928165,3.711079465883233,4.844085999999999,34.09000000000001,1
0.8824687273060428,0.06483042145735633,-0.2342106801957071,-0.01689682521394787,-0.0034352093190466062,6.427987395865821,33.75645,-1.1852374204597558,-47.60693313853723,-15.034101462438587,39.8598929388799,31.924418551040194,4.853040999999998,34.08999999999998,1
0.8797305393195286,0.05864853647632354,-0.23872706478688344,-0.01893826099481626,-0.0036577980130637366,6.426088171437076,33.757153,0.3745602396573532,-48.22955055569677,-14.97195734542033,40.152650983471304,-22.231073264445303,4.846643999999998,34.09,1
0.8807625592853154,0.06030606689683105,-0.23753639827493325,0.06384376797596102,-0.0033886264483671295,6.428779219703864,33.760857,1.618297244353583,-47.563962810129404,-15.023340263465348,39.831150655690024,-4.247598289116105,4.847924000000002,34.089999999999996,1
0.8779153692396272,0.06285020775710924,-0.2388905416764573,-0.02484153134088301,-0.0035575405760107925,6.430331270180031,33.760532,2.5811391996679482,-48.124659301875795,-14.981401395391872,40.21410311861235,38.436711400507924,4.846643999999997,34.07,1
0.8806701465255172,0.061640493940900556,-0.24180153818203604,-0.031018244810976647,-0.0037631522324018587,6.425329491893623,33.76324,3.198588634427129,-47.6604624838202,-15.01231506880919,40.04969794456853,-12.346803082076903,4.846644,34.07000000000003,1
0.8798752833141221,0.06268377965400186,-0.23661160764470035,0.05065332241727986,-0.0032647094805466825,6.428756703406775,33.76185,2.9151453653273407,-47.698254098861845,-14.999748923126193,40.278587239451724,-17.633764794315866,4.844086000000005,34.07000000000001,1
0.881424858186777,0.06631235975688941,-0.23550906974915226,-0.01179066400636741,-0.0032860154042030298,6.431572557985563,33.765106,1.8429598904527176,-47.3849584556762,-14.945920278795061,40.5430325417616,32.794916343960864,4.837689,34.07,1
0.879971543543344,0.06321966873516505,-0.23550879181077305,-0.05903568672181332,-0.003231264026106278,6.4283858762531825,33.76914,0.834125636124943,-47.579756269008776,-14.8960937743144,40.76239778017432,-2.2261141818253845,4.841527000000001,34.07000000000001,1
0.882546474012286,0.06267693987762282,-0.23348434695446504,0.047194941561393804,-0.003631658894688711,6.430485026475107,33.767113,-0.1947361545887257,-47.28331819648328,-15.049755026104021,40.29835533797007,-29.81571344835479,4.836411000000001,34.07,1
0.881549735670526,0.06258811186206022,-0.22888889745852078,0.027326211311644075,-0.0034322792934493745,6.433621300508113,33.770718,-0.9237045956063301,-47.923060518723055,-14.961912452071315,40.57852710336133,33.62751589514735,4.840248000000006,34.07000000000003,1
0.8841229565384189,0.06004374779656222,-0.2291929203038147,-0.056415458553927364,-0.0031548687550052067,6.430195007297344,33.77188,-1.3550102505744757,-47.33912324561907,-15.032506785331238,40.23041611292696,-5.294085285691299,4.836410999999999,34.06999999999998,1
0.8820673434591988,0.05949936199757077,-0.2283150503386562,-0.016905805049566004,-0.003476047231153853,6.430290567881337,33.776028,-1.885332510361228,-47.53275182766502,-14.971042776455445,40.392232764046824,-28.40622815936192,4.831293000000001,34.07000000000004,1
0.8841862440080123,0.060113508447996185,-0.22704955305366983,0.06683065520125277,-0.0032844714485639674,6.434500541149309,33.77573,-2.1684429956063447,-47.117721176320295,-15.026326421665791,40.23485023151844,28.661949966349095,4.836411000000002,34.07000000000001,1
0.8823603995887731,0.06037340395441259,-0.2242169865879732,-0.0014340227103142355,-0.0031013674630774174,6.434658457428056,33.778957,-1.8657373460977196,-47.613203726210635,-14.975817407218198,41.04906023607499,11.896399401796517,4.828735000000002,34.06999999999998,1
0.8850114237943388,0.06022482888550643,-0.22751537648782816,-0.06691377123709043,-0.003313113585399466,6.430677805334985,33.779762,-1.4490761543914614,-47.10442841928658,-15.022321609056148,40.33141562542031,-38.19402109647901,4.831292999999998,34.06999999999998,1
0.8829926929715077,0.05940462241144395,-0.22623398816277246,0.005076685377370377,-0.003408148624184989,6.4301991178990825,33.7825,-1.3414308554391041,-47.20602764410697,-14.97936650824724,41.028493590436504,13.578453840865215,4.826176000000001,34.06999999999999,1
0.884888347467422,0.059556268871460025,-0.2263134420315503,0.06780937449943376,-0.0033096397985694637,6.431427590606801,33.78532,-0.9316201418919583,-47.248261266559446,-15.019053065634726,40.50188390508764,40.07296686517796,4.836410999999996,34.069999999999936,1
0.8822947468705847,0.05869051267343119,-0.22997172904984242,-0.0010846708430769737,-0.003357077232750114,6.429503839526438,33.786938,0.1175397531457428,-47.30239132905938,-14.982461284335542,41.01874826599698,-13.268382028200199,4.8197800000000015,34.06999999999999,1
0.8804103436545526,0.057896058147953997,-0.24182819223098428,-0.05547556215499114,-0.003251202948658001,6.423424339194506,33.789825,1.2878477799876011,-47.059830857229485,-15.01606216615884,40.74684737772781,-34.64946123363034,4.830014000000001,34.07000000000001,1
0.8771909586797648,0.05797198849874099,-0.24781268184249966,0.022607516898762742,-0.0036714995988185637,6.421271376170919,33.7919,2.1987550669936975,-47.72343739993784,-14.985396875917813,41.011969910739936,31.163316361086,4.821058999999995,34.089999999999954,1
0.878685694885877,0.057134568819646146,-0.24886456998767167,0.06485594834325689,-0.003309050405196794,6.422022341033336,33.792847,2.7461432764242772,-46.93625329879083,-15.013146272049378,40.41430227648497,31.04871131618215,4.828734999999999,34.09000000000001,1
0.8768652444216928,0.05655651638190194,-0.2502420103387348,-0.03915372647310812,-0.0033068918506200407,6.421949773357239,33.79594,3.0727017762179534,-47.23717329301107,-14.98832051942095,40.89206974640193,-16.498078895488312,4.824897,34.08999999999998,1
0.8790358946979105,0.05686520830689589,-0.25087135799887317,-0.04025550952975266,-0.0034266459899122484,6.416390367486512,33.798786,2.9933780428229504,-47.093302474476864,-15.010192690487065,40.64570360911484,-37.555451099330085,4.817221999999997,34.089999999999975,1
0.8771738562972339,0.057315957650832985,-0.2475276623470619,0.054408980535077985,-0.003504441612851985,6.420504751656116,33.80173,2.2984262883767466,-47.43832841721816,-14.991322818918114,41.01569029800101,26.597450923167273,4.821059000000002,34.09,1
0.8809668921095457,0.05783570296179221,-0.2442291459618973,0.00553091958417594,-0.003704444117131118,6.421345853231728,33.802418,1.3964827801325541,-47.10387536762503,-15.007125068692346,40.71335606867713,19.2237319780075,4.817222000000005,34.090000000000046,1
0.8785560932695067,0.058783402317602935,-0.24387449853658455,-0.07243818846753747,-0.0031800957051003184,6.416943301970027,33.808628,0.43161380537768496,-47.37373398351362,-14.994471053664567,40.94963487332555,-24.43050675963731,4.819780000000001,34.089999999999996,1
0.8802133352377117,0.06056333358176884,-0.24301911716278402,0.01702783278859465,-0.003377139819039457,6.415581340448827,33.808266,-0.6379821230750032,-46.95583313008424,-15.003881611024719,40.80009876259372,-19.14888939325063,4.818500999999998,34.089999999999975,1
0.879446831204273,0.06139252737582739,-0.23938395265119397,0.05396761717209595,-0.003142996963498297,6.417888015096942,33.81109,-1.5567286404530358,-47.53619877655411,-14.997824154843252,41.119140354837135,34.67337540467565,4.818501000000004,34.089999999999996,1
0.8812364379573798,0.061530356064779794,-0.23872896993773948,-0.04338563568771796,-0.0031546738406818525,6.413799305353519,33.81119,-2.109193783651961,-47.07297846753866,-15.000404229859587,40.54590763244088,-11.48369026039721,4.818501000000001,34.090000000000025,1
0.8798720779868471,0.060192444374025406,-0.23960006265588207,-0.04483894022526187,-0.003146239410142767,6.412196499329389,33.815,-2.442218205769515,-47.35573261095007,-15.00144102517363,40.894538243823135,-31.560613511259724,4.809546000000002,34.089999999999975,1
0.8817048382006999,0.060223908632359734,-0.2376565625845293,0.05563442958890075,-0.0032102455406699108,6.411877087211047,33.815754,-2.5840005734334985,-46.99591674945071,-14.996631752946515,40.7344285959635,15.928673975518791,4.806987,34.089999999999996,1
0.8800719106494463,0.061166844193211875,-0.23563004045149513,0.04941414995507481,-0.0031985364927492807,6.413188353702088,33.81912,-2.3146866819174536,-47.43457136048321,-15.005386469980348,40.96187356419561,29.669639731010815,4.8069869999999995,34.05000000000001,1
0.8827173649100836,0.059316756704672326,-0.23632330031480409,-0.04990254995792093,-0.0034886822898000753,6.408713876031096,33.820984,-1.7557658988286728,-46.96655537588342,-14.992494380541826,40.73256798622725,-42.26906836878766,4.813384000000004,34.050000000000004,1
0.8811787874872762,0.061059559446176276,-0.2356902822842579,-0.0405469770213354,-0.0032348965111723923,6.406048272169014,33.820763,-1.3533907672428809,-47.23742637496836,-15.009736719772071,41.05540179698127,-8.449556380589447,4.810825000000004,34.05000000000001,1
0.8823239193450536,0.057533504796368304,-0.23477523620581572,0.06464455386254611,-0.0035454494616283232,6.405380620896397,33.824654,-0.9041658700810649,-46.90344915730327,-14.987907864613215,40.72915961469066,34.55431698771832,4.810825000000001,34.05000000000001,1
0.8811535328952764,0.057174585133885916,-0.23367915539744286,0.030677506255842993,-0.0036058832916933633,6.407362283946916,33.823814,-0.032461646218130996,-47.10226959018784,-15.014585859408124,41.12375871102565,15.100577503528443,4.809545999999998,34.07000000000001,1
0.8808410767716729,0.05685660017875467,-0.2398392296262371,-0.05296769364217593,-0.004018523017607944,6.403342422995671,33.825768,1.137888264018881,-46.89843067412901,-14.982766133710609,40.85133874356084,-44.93993831090152,4.804429,34.06999999999996,1
0.8794686471076748,0.05781381518341232,-0.23755572088838983,0.0045645935168740276,-0.003685413291488992,6.402753876128917,33.827133,2.2037731060214187,-47.09964625861869,-15.020054552308956,41.15820229418154,-3.681239541380945,4.805708,34.069999999999986,1
0.8833198451952082,0.05574898638903168,-0.23204082933351036,0.06520602300710038,-0.0029196159556120886,6.405990622515828,33.829525,2.7626779139874196,-46.90261186593409,-14.976930702687925,40.83516820375192,45.54100093407915,4.805708000000001,34.06999999999998,1
0.8822152396642859,0.05616115738114986,-0.23260649997757882,-0.03399300631113755,-0.0033329258074038188,6.40702181936236,33.8302,2.759202635053207,-47.09503693542253,-15.026303197139056,41.17054728132945,-1.9924976435710373,4.804429000000001,34.07,1
0.8838433686599816,0.05424057656729772,-0.23309621429469168,-0.05250479990486761,-0.0035141303017441426,6.403029963678917,33.83217,2.161035606050071,-46.90734249294556,-14.970213957797903,40.824011296348225,-38.75161777967743,4.801869999999998,34.06999999999996,1
0.8828207366861669,0.055674026710863626,-0.22988513489137777,0.041846063114088526,-0.0031853268960239964,6.406775601854355,33.83258,1.1936605238508864,-47.090239363823024,-15.033553661091208,41.18144456722255,12.951262882003995,4.791635999999998,34.07,1
0.8840344759960949,0.05544472837321027,-0.22943442939538877,0.04183302429926555,-0.0035991964711046937,6.407344195339759,33.83423,0.1732291476775541,-46.91228734995479,-14.96235017948331,40.812920881955414,37.03921902654562,4.796753000000001,34.06999999999998,1
0.8825644836777317,0.055933445292188425,-0.2302942088753875,-0.056393713451776566,-0.0032489828717396736,6.403693490748164,33.838196,-0.7302807066292856,-47.084916866795886,-15.042128986030269,41.193003738460895,-29.46082972894281,4.796753,34.090000000000025,1
0.8827491367513159,0.055475144791545146,-0.23556867286828695,-0.028989869691439137,-0.0032111447119521014,6.40127861111753,33.837425,-1.5085136029292685,-46.91851860883822,-14.952939633613417,40.80069661707284,-13.386384750993043,4.796752999999999,34.090000000000025,1
0.882354370036504,0.05678597479272951,-0.23300417522804123,0.06215331617689209,-0.0032547807643911854,6.403743998397973,33.837227,-1.9323650068210574,-47.07637093588227,-15.05253336843482,41.20604498960164,38.49253303862502,4.791635999999996,34.08999999999997,1
0.878417249292333,0.05773973979556484,-0.24846867125668046,0.0312691568216938,-0.003759959577935146,6.404021860768832,33.842144,-1.70319569654571,-46.93476230608983,-14.941339395937247,40.7867272285064,2.028425906189527,4.792915999999999,34.08999999999999,1
0.8775119554335856,0.06130023734102482,-0.2513743583833076,-0.06429151110417057,-0.0030191859998758364,6.399821980206805,33.84266,-1.3480465561545554,-46.97420548581851,-15.06553886098785,41.2209806821133,-51.827408340835866,4.7916360000000005,34.09,1
0.8818134755949385,0.059603205243657635,-0.24049830709023517,-0.009795394220159858,-0.0032884574119044414,6.3994592853797885,33.841667,-1.5692479275622941,-46.87661947182333,-14.927276930689837,40.77098665659845,12.394417015941197,4.791635999999996,34.09000000000002,1
0.8789282819355403,0.05978158523087635,-0.24336160737783716,0.06572992757966374,-0.0035589882174947222,6.3993022258066325,33.844833,-1.3123043595277384,-47.101180171283374,-15.067435489181317,41.236630313389455,42.83413243456182,4.790357000000001,34.09,1
0.8779983571368952,0.05784524566043572,-0.2512115045600852,0.0015572593623439576,-0.0035873007436583704,6.398285584565738,33.845978,-0.025979480676816512,-46.90533132058671,-14.186230523101692,40.76097070714826,-9.28518597797591,4.789077999999997,34.089999999999975,1
0.8752000377543367,0.060667383398742565,-0.2573084796619031,-0.06072469596709472,-0.003510906093713942,6.396594207025454,33.848083,1.587546068726226,-47.09135195599288,-14.375434308136553,41.39142478791791,-45.497039993824714,4.787798999999999,34.089999999999996,1
0.8743370751779308,0.059868951577388765,-0.2623947645685249,0.03090359309141527,-0.003713872101543185,6.395825812485082,33.845684,3.0276454572026674,-46.9107733832587,-14.041744513524518,40.70175945931713,18.025817126138342,4.777564999999997,34.08999999999998,1
0.8735029478553542,0.05909025381233219,-0.26105750805030414,0.046097918047173315,-0.0033087352179619104,6.4005234503834485,33.847218,4.106461762191531,-47.087641121130154,-14.264023422833827,41.30973535093464,45.25114711476788,4.7852399999999955,34.09000000000004,1
0.8750329770336834,0.05739801605732939,-0.2652964572408117,-0.049744326144409115,-0.003248954382543347,6.396757368737748,33.84649,4.464683547782718,-46.91372610351826,-14.295218326049184,40.668652918849055,-21.959861689366925,4.773726999999997,34.08999999999996,1
0.8738140090279386,0.05753727617844154,-0.264650047661843,-0.009623156357421407,-0.0035008030510028077,6.393430997637271,33.8533,3.7618264593430624,-47.08490666646376,-14.790184829048668,41.407326467084374,-35.97630036776947,4.783960999999996,34.089999999999996,1
0.8757207184189487,0.05879746845843551,-0.26016254565904806,0.04882689012167205,-0.003343623578521382,6.395003047840666,33.85013,2.4652694521965106,-46.91654994752702,-14.129497110341621,40.822404765640975,28.89350743434934,4.780122999999997,34.090000000000025,1
0.8770426546123334,0.057154857679001775,-0.2533798464951621,-0.027835024381039304,-0.0032914349069809857,6.393252425239224,33.854584,1.1077543089746755,-47.08310064109552,-15.115867709032312,41.646484334838895,23.252813151532514,4.778844000000001,34.08999999999997,1
0.8782703655358637,0.05772529055275468,-0.2539813505427367,-0.04451378927213308,-0.002873313761855721,6.38925072433365,33.85544,-0.10874341841341871,-46.8252089167592,-14.540190319967161,40.568070834635364,-45.45824593564585,4.778844,34.08999999999998,1
0.8774806699378399,0.05969237009220374,-0.24886468738101164,0.04950662596072664,-0.003253820832464405,6.392041223124274,33.855877,-1.246814756995099,-46.86245589461963,-14.711734255082629,41.60824458985703,8.548894471427076,4.772448,34.08999999999995,1
0.8788973632514421,0.06093825606048468,-0.24735660566973594,0.02672558663171159,-0.003380453883265731,6.393178865813656,33.85352,-2.170370487315611,-46.693909679437105,-14.031257663183318,40.78301605561384,35.796818240203386,4.781402999999997,34.090000000000025,1
0.8792575803074301,0.06122129238852272,-0.2437726064871074,-0.05351341560417426,-0.0033902013184994883,6.391014183782579,33.85575,-2.5788861227086,-46.80559920919172,-14.53884517967612,41.830104513211715,-31.110457479581996,4.772447999999997,34.08999999999998,1
0.880244902531127,0.06104137455963726,-0.24341629355714384,-0.019039525627516905,-0.0033179819084238663,6.389854359573219,33.857292,-2.911886920336737,-46.74937214536891,-13.850066833831868,40.6430671456761,-20.473961686885822,4.773726999999998,34.09,1
0.8804226601682494,0.06266651597428637,-0.2366726058135709,0.06071977405615577,-0.003351579393483063,6.391840279398062,33.85783,-2.9268680913848186,-46.99429070255571,-15.296261060538237,41.885608478171335,51.89075713052052,4.763493000000001,34.09000000000002,1
0.8798903609866844,0.05790922197190019,-0.24224999579720874,0.01819161833005771,-0.0033141697272842923,6.393475570313976,33.85804,-2.522168226957739,-47.73787955420421,-12.703877375608952,44.14952503719663,-8.357360083051201,4.768609999999996,34.089999999999975,1
0.8834942151813943,0.054776649318751744,-0.23441006391529357,-0.0598122418722083,-0.0037027248113435077,6.3925909340146845,33.858994,-1.9660852893608243,-32.25951474378206,-13.34701600200885,55.85174720334535,-40.72939427735493,4.772448000000002,34.08999999999999,1
0.8830181889161304,0.0652239015280067,-0.22895032563818035,-0.02579653653347927,-0.0036244595168071665,6.393160029698409,33.859722,-1.670291150161821,-36.81051514704218,-13.04201485391306,23.32557710080465,20.95072144149982,4.786519999999996,34.089999999999975,1
0.8790156321367626,0.06290807538206626,-0.2439322919858272,0.06649664633381072,-0.003650117730635595,6.392784870845596,33.86238,-0.8746753547302675,-75.92639462512842,9.624928786789518,34.84595335134616,56.489402644012294,4.767330999999997,34.089999999999996,1
0.8800072340469631,0.048864528770642325,-0.24747469004180495,0.01828153112420637,-0.0036794296260947565,6.392141228804668,33.86119,0.5164759684418007,-54.87294572000953,17.566129569790956,42.84760144389317,-15.99194056679074,4.7136020000000025,34.09000000000004,1
0.8722756940475559,0.04460591995872437,-0.26890318666747065,-0.042750545278422786,-0.0034121455845436775,6.3871054135621685,33.862896,1.8920381914725057,-46.817869964304755,17.577952790626313,36.62734493668868,39.891798934576876,4.7276739999999995,34.089999999999996,1
0.8722208435757531,0.06909940117279081,-0.2662726961867257,0.034978363126796,-0.0031734939068104673,6.386429637858765,33.862755,2.7717054434266446,-49.39420473108786,16.202281258354194,40.558779308459236,-63.55278538582646,4.744303999999996,34.09,1
0.8715801244291367,0.06604264240772342,-0.26679910174600147,0.03534014425768486,-0.003373668962284665,6.390561754726147,33.86182,2.9431479263502585,-47.94339253323983,17.359387494318952,37.91944439266912,51.46148295074825,4.755816999999997,34.08999999999998,1
0.8777035437070111,0.06268067265150608,-0.25275107064450714,-0.06460249260438718,-0.003572658827490584,6.386998682125164,33.862442,2.4462910357617367,-49.192237808384284,15.980936679049101,39.8784192129405,-8.89287380145058,4.755817000000001,34.08999999999998,1
0.8765521529820356,0.059573324727856404,-0.2516899935723168,0.0007327584626662294,-0.003435174767220227,6.3876919386552435,33.86478,1.1859086137020547,-48.55385760793759,16.604524342170652,38.19282169676022,-144.67322284449563,4.731511999999999,34.08999999999996,1
0.8798199341961358,0.058409640839704395,-0.24500810148632923,0.05508315329621009,-0.003407860042950682,6.391698640521248,33.865154,-0.2754893166307886,-49.26339663734142,15.986194802893722,39.548196867809686,33.859006083532414,4.741744999999994,34.08999999999997,1
0.8788411530747101,0.05915218785577498,-0.24529961784045298,-0.03404250550548948,-0.0031905506001920422,6.388842890600471,33.864376,-1.3412051943069252,-48.777781582276525,16.573948877709878,38.22655625089595,12.010229467745358,4.745583999999999,34.08999999999998,1
0.8791681412732909,0.060222961251509326,-0.24692474582457172,-0.04013846093979584,-0.003579183967166383,6.387168301809239,33.86457,-2.1382392384303652,-49.191822472375826,15.848913689138055,39.004111338812045,-22.93650989718763,4.746862999999994,34.089999999999996,1
0.8782026906847679,0.060863524155249586,-0.24495612996327135,0.050544157589782555,-0.003702251321219938,6.388988814579665,33.862038,-2.5695704673833903,-48.83120439891204,16.466766503259176,38.563488227558935,24.754188937311195,4.740466999999995,34.08999999999993,1
0.8801586955799543,0.061896676570118964,-0.24236469660981733,0.01221180108060134,-0.0037140884136702516,6.389609425326819,33.86372,-2.406311699916092,-49.150941566854925,16.083528768488375,39.152181779180296,42.121082422207834,4.743024999999993,34.08999999999995,1
0.8778442780432145,0.062253091177982334,-0.24634544128496302,-0.05976801315278235,-0.0036261708606764084,6.386213584724276,33.86565,-1.9904106139439575,-48.86317826479744,16.426149910508986,38.43254216121721,-46.65060854633301,4.731511999999998,34.089999999999975,1
0.8799414719330535,0.06197774675955388,-0.2439667080435243,0.004630329583528649,-0.003947721207993468,6.385383778687838,33.86267,-1.6446930415298455,-49.125468224890575,16.285852819016842,39.07313951382818,-0.37751389046865635,4.744303999999996,34.089999999999975,1
0.8783274178266044,0.0611413888957678,-0.24381942944523852,0.06120567308073327,-0.003477318179520987,6.387280476536716,33.86633,-1.1776108712639861,-48.883788607106744,16.63691928859539,38.39710528631724,47.74471207192273,4.740467000000001,34.089999999999996,1
0.8808590251938019,0.06098005808943447,-0.2419135776468264,-0.02014175640104656,-0.002862775507956285,6.3859904446805364,33.86555,-0.23490184351906318,-49.10857557543205,16.695053248277148,38.91129470779761,-8.765481642913292,4.741744999999993,34.08999999999997,1
0.8776284323419435,0.06033756863611999,-0.2461081840820942,-0.03776966546932742,-0.0039720087209234,6.384673972124619,33.863853,0.8962050910714255,-49.02278532595459,17.061710179370596,37.916065113154936,-44.12759468110141,4.739186999999999,34.090000000000025,1
0.8797828430416289,0.056417045951724885,-0.2460353321803761,0.0536779741495554,-0.0033087462006197547,6.386150815208061,33.862286,1.9948537365828891,-49.096871281627465,16.862077027655964,38.24262259579522,36.24319199909139,4.732790999999994,34.089999999999975,1
0.8771112152837307,0.061600915747354615,-0.2459489172075056,0.01937886617606409,-0.0033454729865453605,6.387120465733744,33.862305,2.977960769939186,-48.90764996882424,17.140194541315992,37.84684157668316,28.413194662666516,4.730231999999993,34.08999999999996,1
0.8782036752400955,0.0608924173941518,-0.2500324080505212,-0.05000856311522178,-0.0033802503450100574,6.38380135304388,33.863544,3.6730133679493115,-49.08849974906598,16.863076231691497,38.350917508858764,-25.111874238107138,4.728953000000001,34.090000000000025,1
0.8770935543459886,0.05970145963259596,-0.2508825905634325,0.022800446981070862,-0.0038147829333469684,6.383851707809462,33.864033,3.5860986561761665,-48.91479881849873,17.129127902518636,38.11446178628566,-15.359952231988455,4.730231999999999,34.089999999999996,1
0.8797558300411702,0.05986474951452226,-0.24625058271255557,0.040081458209399186,-0.003047737041848389,6.386828066573066,33.862553,2.666743146596034,-49.08235830971583,16.892734351779296,38.141959181351105,44.80001362097308,4.726395000000002,34.090000000000025,1
0.8779720790749473,0.05883189091196965,-0.24891579590119298,-0.05070549062827098,-0.00293578206868002,6.384689419480591,33.863014,1.5987321506538472,-48.920108008258254,16.81621895568231,37.84289169345545,1.8193386060761048,4.732791,34.090000000000025,1
0.8781069788216674,0.05949800552383099,-0.2500351481484879,-0.004705151297546133,-0.003121900695806052,6.382994999121946,33.86074,0.5767221691260606,-49.077735087615295,16.56417896705594,38.15201151655935,-23.571926870303837,4.731512000000001,34.089999999999975,1
0.8776174222071668,0.059641342579309795,-0.24824493526120153,0.05034361848864663,-0.00382783660835846,6.3862699852507285,33.86221,-0.3377792019973316,-48.92417154286669,17.06870348688339,37.96033720299739,16.68099407657922,4.728952999999998,34.08999999999997,1
0.8789343144726409,0.06010565289446386,-0.24743306233454712,-0.02227979691392359,-0.0038007788031916004,6.385103430302861,33.860863,-0.8773671705169857,-49.074117319538736,16.533066046181375,38.16871933904163,13.57601203888592,4.735349999999998,34.08999999999998,1
0.8773373852268374,0.059708197587195797,-0.2509976330774955,-0.05603883957563921,-0.0038663552838514663,6.381246934602188,33.860565,-1.153017117521293,-48.92745255720112,16.769552611998158,37.904715115197945,-25.07188957913035,4.7315119999999995,34.089999999999996,1
0.878550627670984,0.05969060423918986,-0.24921584063595265,0.029842018935150295,-0.003314642197575085,6.380201773312335,33.862682,-1.4461858896400919,-49.071060445312455,16.660445833425356,38.316153614548874,9.49283933855146,4.730231999999999,34.08999999999996,1
0.8779666518947805,0.05894685309646144,-0.24768142240417826,0.037276865553374346,-0.0037791042205720057,6.381698986260849,33.86372,-1.5218776225262143,-48.93041298955753,16.47068509126988,37.882980697949236,22.55857862979295,4.722556999999999,34.089999999999996,1
0.8786106074017631,0.059236051019391826,-0.25148262630875107,-0.03532685830279576,-0.003359410833793251,6.380711672597428,33.86264,-1.4030616088470225,-49.06803567472485,16.353932045216023,38.13855255112317,-15.48573483043502,4.725114999999999,34.089999999999975,1
0.8755691916358275,0.05977196704065328,-0.2570034663455706,-0.04085128350595855,-0.0027644345187879133,6.378505445795594,33.864017,-1.4194358500624242,-48.933727937691835,16.20838228427299,37.86369668262602,-8.651118803915486,4.722556999999999,34.08999999999999,1
0.8768077063524968,0.05993417896389652,-0.25654174172062827,0.04785085763451919,-0.003264034890291759,6.378606898606214,33.86146,-1.651390556720817,-49.064075990137475,16.199388497635248,38.127642896896965,33.65785365803894,4.722557,34.08999999999998,1
0.8759376286091591,0.05913692637531278,-0.25614243929076375,0.03474318221524196,-0.0039624832831935105,6.379396746061398,33.862003,-1.7861780408819865,-48.93895872767056,16.21118889862979,38.21181834368347,-1.9534611922564542,4.713601999999995,34.10999999999998,1
0.8778027567349315,0.05892833499490398,-0.25666134201281804,-0.05422265070939103,-0.0030653065467460814,6.375270687791113,33.860374,-1.7091882511973067,-49.05630121572314,16.285826376346275,38.30934502161785,-31.83904407542328,4.722556999999998,34.10999999999995,1
0.8757284193822584,0.05981710905839211,-0.25790140782748566,-0.027092980261302288,-0.0033478488333647327,6.374185738254755,33.86152,-1.6065566409167185,-48.952421767029286,16.251991321884567,37.96334903711108,2.3301048145136667,4.723835999999996,34.10999999999999,1
0.8780103476829757,0.06000670007918133,-0.2531522212763121,0.06307590761681092,-0.0031357077607592934,6.376373845273578,33.862034,-1.2276495231462328,-49.026252182812414,16.48542701572565,38.254889402595886,26.267434382863346,4.723836000000001,34.10999999999998,1
0.8763616857452435,0.05831226286942819,-0.25737033847782315,0.013161742315941477,-0.0035160077141210403,6.376614266318448,33.860157,-0.07417933288975095,-49.0974241219937,16.730328042398252,38.12264755859142,-9.787477854500912,4.7225569999999975,34.089999999999996,1
0.8731940807494232,0.058203713625462436,-0.26909473490892377,-0.045612060909661384,-0.003943358760097962,6.3718207709697205,33.86145,1.6278926592339118,-49.21936049233249,16.668934987843315,38.14722988613991,-30.544347831904076,4.718718999999998,34.089999999999996,1
0.8714257540280532,0.05761999026617425,-0.27321321799682585,0.02830833506457523,-0.0034030241122685713,6.372012230819564,33.861507,3.1483892835152782,-48.86899664736112,17.02716566675881,37.8620424699464,1.9359682289536246,4.717439999999997,34.089999999999954,1
0.8719776137597022,0.0573864316747619,-0.2703540368388362,0.04702883235383043,-0.0032526668303682277,6.374540375096206,33.860065,4.085733572519758,-49.11271483046087,16.981626733475245,38.134291003436196,27.893174973013107,4.712322999999996,34.08999999999994,1
0.8717035121402759,0.058880328922930485,-0.2710788765216357,-0.057174318542849635,-0.003165600666898718,6.373131132401983,33.862522,4.6071228852254364,-48.894873375919325,17.015406837377995,37.992809359122894,-6.458698474153464,4.709763999999998,34.10999999999995,1
0.8734350018574535,0.058485027937710744,-0.2685593161811851,0.003763053600179215,-0.003347014732663991,6.37142786828851,33.86182,4.466611261699206,-49.10043762751969,16.989344168290458,38.13158191569018,-21.974742161139805,4.714880999999999,34.10999999999998,1
0.8738786023261246,0.05832115597789838,-0.26066644286619384,0.03628807624139323,-0.0038831647635560974,6.376985646085339,33.862736,3.572568614229795,-48.90787169651693,16.9079805930582,37.864817516304896,15.384942227427203,4.714881000000001,34.110000000000014,1
0.877254090161661,0.057751948173176686,-0.25796193579655136,-0.047846741020376914,-0.0029527363845315248,6.373617164009973,33.860126,2.2141351054174305,-49.235602479402566,16.923054516268976,38.24080655872831,8.428689787443734,4.7136019999999945,34.10999999999995,1
0.8752704565772111,0.058419603865664305,-0.2592024841679222,-0.005895713598681078,-0.0026153308153889178,6.368911624734167,33.860844,0.4925065852963859,-48.86081233337158,16.83568725040264,37.90000596251107,-25.425561490583565,4.714881,34.090000000000046,1
0.8756822613830753,0.05924485174092035,-0.2581321881896073,0.05096513073744294,-0.0033467725548297906,6.370344620260048,33.86046,-1.124306141245923,-49.205650933650524,16.375888986051482,38.123715794723616,6.491406066392957,4.713602000000001,34.090000000000025,1
0.8754849497844579,0.05910973584020657,-0.2597007081549746,-0.03752589249910677,-0.003065599021414324,6.36614869517737,33.862743,-2.452763033479391,-48.95069827436141,16.23874387077788,38.196008763592175,11.148966390102698,4.709763999999996,34.08999999999998,1
0.874836144625518,0.06339112334187945,-0.26338141518283215,-0.03627477456909786,-0.002936395787302593,6.362036821435765,33.85941,-3.858738227122242,-49.089380436019034,16.221840907236423,38.6246131030428,-22.365945686093205,4.709764000000001,34.08999999999997,1
0.8743103003068605,0.0620798607838168,-0.2608887718088346,0.0597101096596319,-0.00290921141784496,6.363982213712821,33.860275,-4.9231308775138904,-48.891380056340765,16.22247099869145,38.37323953628951,6.252116297864472,4.709763999999996,34.089999999999975,1
0.876185376222108,0.061093413590493834,-0.2583468062435069,0.021114199841925814,-0.0030821397959003454,6.365296048456816,33.861237,-5.043655307402075,-49.16596537624737,16.01162840464291,38.46551097087765,20.064101723947655,4.714881,34.08999999999998,1
0.8761463393119816,0.0604034593531798,-0.2578435964546235,-0.060794867424457326,-0.004336882210276546,6.361927813471632,33.861145,-4.2292849553428775,-48.99026599730733,16.12331019958727,38.02967750140947,-27.666125519139275,4.7072059999999984,34.08999999999998,1
0.876800192042139,0.061980450755389,-0.2563596464530873,0.024473015174938488,-0.004183711765543251,6.362483253329538,33.858463,-3.467148590741013,-49.06516624367857,15.91230901697706,38.4684405294247,-5.542333364776408,4.703367999999998,34.09,1
0.8756602523853004,0.06049642135087873,-0.25383184434725004,0.061533103346565636,-0.0034988778934743076,6.364889364848154,33.861282,-2.4476647788868853,-48.92207001984603,16.12605538164292,38.10612533235175,26.168436957677542,4.708484999999998,34.10999999999998,1
0.8784165451974694,0.0599101071992448,-0.25124802104620325,-0.02841563722935357,-0.003719371452180003,6.365873756781981,33.86182,-0.6764118232956077,-49.209548396632805,16.64415241728149,38.42463505251719,-10.105231543408703,4.707206,34.11,1
0.8767594664173031,0.06005155414900746,-0.2507515578568244,-0.05231222308163806,-0.0030942237612113224,6.364387076748775,33.86197,1.1410582728226257,-48.91086099173244,16.6217086538879,37.936303698023764,-25.644979053938076,4.705926999999998,34.110000000000014,1
0.8788478018737195,0.059342785194081926,-0.24732149415093715,0.04845063057872096,-0.003848315793462536,6.364105630506174,33.8629,2.4685851066885744,-49.09284747237716,16.747243409913732,38.158114860860486,20.287128357073506,4.702089000000003,34.10999999999998,1
0.8776895771354408,0.058564413386193226,-0.24619634298625656,0.005853002327917482,-0.004282427456309614,6.364691520049028,33.86221,3.4712987171878895,-48.903875488752625,16.919917592784547,38.100624875627425,17.744858527068853,4.702088999999998,34.10999999999999,1
0.8780902112394035,0.0584836649616787,-0.2518467651849884,-0.07041476995326372,-0.0030278445484013088,6.35784495145773,33.861095,3.99048532753721,-49.09918530020576,16.758921433319717,38.0920517017485,-23.680586341734227,4.696971999999999,34.110000000000014,1
0.8768637290870361,0.05904152154522052,-0.2499800431847339,0.013762885741858789,-0.0032876886997554506,6.358000055478855,33.86016,3.642119602129653,-48.897854257305234,16.589907407694533,38.04091501602023,-5.290003506062254,4.698250999999996,34.109999999999985,1
0.8790977206357412,0.0593294446507647,-0.24662222710019352,0.04649132591389184,-0.003399834491008688,6.359105571117803,33.86151,2.7580782252431044,-49.10507261541389,16.446713362694307,38.21993422826967,35.313343033832965,4.7020889999999955,34.109999999999985,1
0.8783340962921528,0.059867803409227316,-0.24552861845408544,-0.03921733501457,-0.003937747475659512,6.355135405454782,33.861176,1.7788401795824802,-48.8919958745357,16.439190305613764,37.994807918316155,-8.231649718404226,4.699530999999998,34.08999999999998,1
0.8796624492125891,0.05911033932144795,-0.24567504224715594,-0.011597188091451625,-0.0034768945352221113,6.355147832728385,33.862743,0.760532657951146,-49.11095768253573,16.268432968931208,38.13888432552118,-21.21373899032816,4.703367999999994,34.08999999999997,1
0.878764748881538,0.060116787345300834,-0.24457635960351215,0.07296712108977119,-0.003649515411697634,6.358239560514833,33.86139,-0.24792781672511086,-48.886070197764155,16.301225158121706,37.873021480859705,18.544265226238146,4.693133999999999,34.08999999999997,1
0.880374484132459,0.06075349415664257,-0.2435541326363602,0.013387849079553225,-0.003120782054808707,6.357527290038361,33.862995,-1.0109682881203703,-49.11688732907014,15.927672749090192,38.120024401333396,14.35174985690295,4.696971999999999,34.09000000000001,1
0.8787674225886285,0.06040509409794871,-0.24523481219276166,-0.06689510001473069,-0.003962646937519417,6.356962430338408,33.863678,-1.6500999128407519,-48.88025803722254,16.226265949857087,37.89852045368193,-27.114561402316856,4.689295999999995,34.08999999999997,1
0.8789955642166205,0.06087908331056627,-0.24603205661193606,0.012316456298574802,-0.0033378606822281327,6.354191788992126,33.863644,-2.2546564869696706,-49.12227982265789,16.002738255029108,38.268337637268736,4.397808916832922,4.693133999999997,34.08999999999998,1
0.8782776977554885,0.06054349899147195,-0.2464738659329399,0.05986011676576452,-0.0037455329844275184,6.356770502662842,33.862625,-2.537801856218441,-48.87606643748112,16.048235816587596,37.988206881452356,24.54000868240657,4.686737999999995,34.089999999999975,1
0.8804013787716972,0.060123882774703076,-0.24562583899988627,-0.020156554772539213,-0.0037076215570670673,6.3540013243552576,33.86537,-2.3245748630845315,-49.122768733700816,15.94535795037681,38.29582255102104,-15.339906725265434,4.689295999999995,34.089999999999996,1
0.8781213347177692,0.060366804065047026,-0.2470870785383748,-0.06428258386418381,-0.0040653124626175,6.348467900856522,33.86538,-1.9072067583326144,-48.8936478678953,16.115101655149775,38.09648027594929,-17.304300356932895,4.6841789999999985,34.08999999999998,1
0.8800685003111293,0.059854462741742887,-0.24333674830548582,0.03392703027341872,-0.0031973611254935406,6.348450013445666,33.865208,-1.3060974801263632,-49.26180627282638,16.081558888167404,38.327390465550984,25.72797665171735,4.691854999999999,34.09000000000002,1
0.8804751588928103,0.05736164186651235,-0.23870253325707116,0.05559445717649921,-0.0036942375259334252,6.352466499749465,33.86574,-0.18163191176042595,-48.82239177778872,16.634986822742825,37.877572278393025,10.358587488475418,4.693133999999999,34.08999999999999,1
0.8801897216613678,0.057807626571595695,-0.24257420921842388,-0.03557853258886371,-0.0033637021091891496,6.3516167122671305,33.865093,1.3827712219185282,-49.1739287387,17.019133781115336,38.124259027260074,-26.214087895007353,4.689296,34.08999999999999,1
0.8782599869737678,0.057497388012260606,-0.24727014903178957,0.00312651568866456,-0.0034779705873821073,6.350333315572044,33.865883,2.8530480438273744,-48.82303595952272,16.983535570200083,37.90190470598519,-16.110453898944503,4.685459,34.070000000000014,1
0.8792130833867122,0.05602723062766479,-0.24464085510913106,0.056252697733747234,-0.002973836094614858,6.353933701850116,33.865284,3.8704173938663837,-49.18244957173715,16.970318916428308,38.230121132183214,25.52058434310287,4.680341999999998,34.06999999999999,1
0.8780229573325826,0.05719904518411141,-0.24633838385346182,-0.031651597698103724,-0.0035593507657563864,6.35460709977044,33.864918,4.462079272413839,-48.81055268391893,16.75368206585466,38.01776382594112,-0.9877907322320307,4.6828999999999965,34.06999999999998,1
0.8798705399169974,0.05614940461937651,-0.24803459324341498,-0.02726258254924384,-0.0036901987233698666,6.353676045442603,33.86579,4.127368195748621,-49.19770134484058,16.92568146030942,38.282946749507936,-30.86265867728855,4.675224999999999,34.07000000000001,1
0.8789689167700353,0.057165739768437154,-0.2435551470222954,0.039545586794930455,-0.0031113973648570275,6.357845514335742,33.86579,2.8519147404854093,-48.79281330328564,16.643242788084287,37.89933419022901,-9.89668249066959,4.679061999999997,34.08999999999997,1
0.8810449850604558,0.056870749942294775,-0.24223112069116418,-0.037304180445300365,-0.003792784727106645,6.357063726414933,33.866703,1.4401560533490398,-49.21799228659522,16.75470856329802,38.21383839928416,18.280529951675987,4.680342000000002,34.089999999999996,1
0.8793574532083159,0.05597208233466047,-0.2424522298678697,-0.017849535292395947,-0.0035636583001400343,6.3515177762086,33.86647,0.3602952508565565,-48.769712663581885,16.99954029520626,37.78817426559383,-20.107841937689905,4.680341999999999,34.089999999999996,1
0.8814104749277595,0.05758577289187244,-0.23946721458385506,0.050989919043878486,-0.003625387513193146,6.352817602433279,33.86693,-0.5521300270490649,-49.24431741027387,16.585223107684847,38.222220118296406,4.030074008075187,4.668827999999998,34.089999999999975,1
0.879852563309622,0.05836835293693663,-0.2414757860169794,-0.032655086215936095,-0.0038534455060414,6.351911451472513,33.868557,-1.3778466381922763,-48.7395839374384,16.537862505000067,37.981185814712276,25.5995412255749,4.676503999999998,34.089999999999996,1
0.8795897318019482,0.06030157061309051,-0.247708073573753,-0.03703974282746528,-0.003924773207880172,6.347030792805094,33.866356,-2.193042057307353,-49.27902967283713,16.332469693868156,38.26322232581171,-11.959060783763638,4.677782999999997,34.089999999999954,1
0.8778137707500349,0.061283010454793604,-0.24616932640099431,0.053171312109336726,-0.0037833599784517797,6.349161226725051,33.868835,-2.9918012835890897,-48.69924163789173,16.398080201540253,37.82438268006266,-15.469316975576376,4.672665999999992,34.08999999999995,1
0.880326869723496,0.06021488751891149,-0.24508956761863174,-0.008595432716513389,-0.002747279338718062,6.3487995590157205,33.867428,-3.483124276803695,-49.326420623751034,16.333087527188113,38.366985425222545,28.996613222440946,4.670108,34.09000000000001,1
0.8785031070522517,0.06046020808334145,-0.24522038363306803,-0.044070720396901006,-0.0033150128572387695,6.342223887189353,33.870323,-3.614238344090626,-48.64284376887039,16.22693123920799,38.153506149219325,-26.473872377889155,4.657314999999997,34.10999999999998,1
0.8809239390149466,0.05956926648199909,-0.24314545861638823,0.03905819388125176,-0.0033429763861726482,6.342976504453875,33.864513,-3.4851147599737824,-49.39459439986903,16.279388834482095,38.636943852358506,-6.2510326160513845,4.672665999999996,34.10999999999994,1
0.8806573945932021,0.05984101146844113,-0.23712501224533938,0.01755263724542918,-0.0035410372235809375,6.343944300570529,33.870872,-2.731386830445344,-48.55886179792442,16.461895518516933,37.5827953764621,32.351551377937824,4.639406000000003,34.11000000000004,1
0.8818994115921654,0.05797266288213935,-0.24066958974832167,-0.04552694458025017,-0.003822985532644358,6.341110836612412,33.871334,-1.1958332100303108,-49.50046407688426,16.492880422378366,38.5786179639202,-13.67663445204494,4.658593999999999,34.109999999999985,1
0.878630657808503,0.05869847189623929,-0.24247496272118688,0.03388391862944845,-0.0033171231230456275,6.338204205091438,33.86903,0.45180350010073556,-48.42157304364739,16.745418587543647,37.67660316364427,-14.27968010689539,4.652197999999998,34.089999999999996,1
0.8808991729687426,0.05780403383544919,-0.2414627945686734,0.02875771366524036,-0.0035984319101687516,6.340350177623743,33.870483,2.0858799744003895,-49.68467747566795,17.095461967858718,38.404496601008695,32.39086730951535,4.662431999999998,34.089999999999996,1
0.8765814930384838,0.05840589827259571,-0.2457523105915568,-0.04655253268321374,-0.0032777731825943757,6.33563950609718,33.873127,3.429078010802727,-48.16530097710307,17.00672246816738,37.579158654854275,0.43337129273843744,4.656035999999995,34.09000000000002,1
0.8797726571702057,0.05749762210020046,-0.24711454894286947,0.02133088335552548,-0.0034106417413142364,6.3324914753988875,33.86829,4.000367137002377,-50.03819326366177,16.747114173399396,38.37282960537883,-25.547474187337645,4.656035999999998,34.089999999999975,1
0.8769655484242996,0.0590959711375128,-0.24564593458567105,0.02269440684002179,-0.0035684815271529763,6.335662740113961,33.86696,3.6563476220273055,-48.305126098628484,18.51814443432573,37.96617206739866,18.816688713811086,4.654756999999997,34.10999999999997,1
0.8814987162019989,0.05392861864675403,-0.2428684652210673,-0.05044983126169473,-0.003240170406568236,6.332646025986133,33.86958,2.6631291840992595,-64.84868235422148,8.037677160155692,37.82949896220783,15.967175881014324,4.654756999999999,34.10999999999999,1
0.8822912364970509,0.040958147795001704,-0.24971447827859,0.030857714438167008,-0.003364482251674462,6.331363671269856,33.872578,1.4997489797895596,-58.905659413072705,-23.551164845170113,2.389081981289491,-34.18633925402134,4.652197999999994,34.11,1
0.8789211806921099,0.03694431896105201,-0.25537235606239256,0.039748458604605345,-0.003651802200754731,6.336602203622993,33.87221,0.08367649510800107,-42.28043754251172,-15.45390969532548,24.371096389290713,21.06684829546178,4.581838999999994,34.109999999999964,1
0.8869500158929066,0.04521657651015344,-0.22296311155738285,-0.05934755913705473,-0.0034628073475130427,6.3358356006114995,33.874184,-1.44275701303581,-42.08452450940157,-2.029667478378031,50.682873973832955,2.0441411132306913,4.617657999999998,34.11000000000001,1
0.8768478141302931,0.02683171419858751,-0.2319398403830507,-0.007940347255785251,-0.0034504543379966827,6.33220633847183,33.87172,-2.890925974621985,-50.070545577296144,-14.7963181521897,37.416661087647825,-24.40429062930094,4.635567999999994,34.10999999999996,1
0.8932570469410916,0.03046515615488049,-0.24080053944179602,0.07731387671915975,-0.0038635278601369225,6.341376676401659,33.874847,-3.7267163526288694,-56.31490243169839,-9.102679181772043,36.59633432243998,101.40498563578124,4.653476999999994,34.109999999999964,1
0.8822661507621805,0.03923617244007481,-0.23396456188819317,-0.03982106155898637,-0.003205585470479503,6.339724685163941,33.874924,-3.7988186403611066,-53.590569503487615,-5.647006101115103,33.83045573736086,26.172394311924418,4.653476999999994,34.10999999999995,1
0.8836345060412035,0.060548395654377335,-0.23737600486434796,-0.030066199866020993,-0.003821424580552697,6.332545154835442,33.874786,-3.7446707496888934,-53.546090149759095,-2.973885348189517,37.3544497875679,-22.828646477656477,4.666269999999997,34.08999999999998,1
0.8842860820001219,0.05439089729045845,-0.22282148414763242,0.06324443872197479,-0.003812719806880063,6.333220809102987,33.875107,-3.2071314148900436,-52.24146605435395,-3.8961095070383442,36.69151169735058,17.845152488676067,4.672665999999992,34.08999999999999,1
0.8863831041710366,0.041336374079839054,-0.21845991965799025,0.01895176093653483,-0.003819383735510166,6.335398736044383,33.87518,-1.1147608011795946,-52.82641688339709,-3.2293873289440223,37.72013585667787,-21.647248784609005,4.6790619999999965,34.08999999999998,1
0.8873809672562607,0.04179601025674881,-0.22235480887291073,-0.057834457594970905,-0.0035445737692633935,6.33180241699931,33.87638,1.3969475695657454,-51.9171014879443,-4.085940298630184,37.25854052100905,-26.055964798187237,4.679062000000001,34.08999999999999,1
0.8834772463884019,0.052456104625394503,-0.22562047822007109,0.02642118540238952,-0.0034884871486827577,6.330096375290522,33.87378,3.1119012277612623,-52.36336390959663,-3.082977901003653,38.033137245829515,4.561046086163501,4.672665999999996,34.08999999999999,1
0.8864798719610217,0.044516307115367526,-0.21818721012522502,0.027269460775318864,-0.0034407538562575032,6.333176017793892,33.875835,3.9898366983749756,-51.96386642583193,-4.1592861283406215,37.40037631379842,-45.434653994404094,4.675224999999998,34.089999999999996,1
0.8883176755850078,0.03909134795134155,-0.21631682069428193,-0.06204009251477857,-0.0035005726891085705,6.3297859366830345,33.87572,4.0366287995607735,-52.10112289480781,-3.6192961407181126,38.31079193657021,-45.3068789624837,4.663711999999996,34.08999999999997,1
0.8886771121881644,0.03515271878773895,-0.2154446543371717,0.011706429062210689,-0.004117426134597902,6.328249010922248,33.876186,3.1247395605069883,-51.76775548982027,-4.28057340187241,37.742909028559644,-30.00232672574357,4.676503999999998,34.089999999999996,1
0.8896756562905799,0.03186241342270734,-0.21293009598675286,0.04860005999692236,-0.003523209972731185,6.334403495909597,33.875286,1.971501852625096,-52.18555995458964,-3.744663239354448,38.22655214324053,30.93570319149124,4.668828,34.10999999999999,1
0.889878979700702,0.033043229970027704,-0.2137445305992209,-0.05682951354616825,-0.003425517081162758,6.331562137369956,33.87486,0.7207731051489404,-51.58456493676932,-4.236878785268452,37.78948777184203,2.1502586154869476,4.680341999999996,34.10999999999995,1
0.8893900313948161,0.035014496643618345,-0.2130177631045212,-0.013951218858035436,-0.0031144724473263817,6.327069467402255,33.87633,-0.682621281943822,-52.14898124628882,-3.7783006525838245,38.27891502844995,-40.0980135176995,4.664989999999998,34.10999999999999,1
0.8906823183325745,0.03456690528589591,-0.20635072457106787,0.05324013466755345,-0.003722832838284672,6.333206411451482,33.874023,-1.4673877463105558,-51.54952257162832,-4.208761380271363,37.890584131237276,13.10929507817585,4.6726659999999995,34.10999999999999,1
0.8932379052052223,0.0320283595403967,-0.19794432996762362,-0.019625246909496158,-0.0035933581591761944,6.332860328751096,33.874805,-1.7862133968924916,-52.08106554471327,-3.8024842885272463,38.11071200990219,25.179382970828563,4.671386999999999,34.08999999999999,1
0.8941935456401382,0.030970637741313766,-0.1926296270412325,-0.05500235879161945,-0.0032671803620287995,6.3307159875622645,33.87596,-2.0798902825387375,-51.8521053578441,-4.18759721177587,37.917321228803914,-40.080873273436595,4.670107999999998,34.08999999999999,1
0.8934066004085115,0.03022562688934947,-0.19505997134372963,0.05560279986786208,-0.004093505452014064,6.332322400555939,33.875797,-2.2359516037766274,-51.88655418025593,-3.8212629642528277,38.22447183824717,-9.845040708249753,4.667548999999997,34.08999999999999,1
0.8944576763567391,0.026693797786193307,-0.1907479906529415,0.048935989027711874,-0.0036824594732793427,6.33535488386623,33.872753,-2.030871689930789,-51.905782368766985,-4.17072440825042,37.87380038208994,54.20717978990809,4.66627,34.09000000000002,1
0.8972030365871678,0.02497758242627755,-0.18651462363998697,-0.052740656364711445,-0.003368736951234298,6.332695265867764,33.875546,-1.7158131835997528,-51.93294365241713,-3.8366154341270393,38.10835520524324,-26.93045952418995,4.66499,34.069999999999965,1
0.8952735845738018,0.027434753702156516,-0.1889324874449094,-0.031609361916323214,-0.0032278908682453608,6.32969442106355,33.873116,-1.5574399264519903,-51.757609230181465,-4.156562710317071,37.902861682398594,-24.257536771767516,4.658594,34.07,1
0.8957983316626537,0.022780443315300457,-0.1875567566707364,0.07645006459047726,-0.003342522039554341,6.330104777606695,33.871952,-0.8879223666946937,-52.19458312481406,-3.8498909871658995,38.08818113306616,53.83159785972874,4.670107999999997,34.069999999999965,1
0.894350450959144,0.02033662952330667,-0.19359517189569203,0.02135582434175828,-0.002410164084800507,6.3310577086946,33.872437,0.6002732739178097,-51.72679412743105,-4.1438599895184565,37.91960599913022,23.305982605905378,4.659873000000001,34.07000000000003,1
0.8913601137146937,0.01995039701720448,-0.19755845127878882,-0.05275530978000972,-0.003643633528305389,6.324455495906611,33.872234,2.16227699128236,-52.13054044930483,-3.8623918328701268,38.07333567032822,-56.49636861178752,4.662431999999996,34.129999999999946,1
0.891170846166755,0.02407869771122191,-0.19558134706846264,0.011996808190032928,-0.002527460868510906,6.321569559731312,33.87223,3.287576683443682,-51.67563718621154,-4.131040242111023,37.93324144945168,12.985570461943123,4.666269999999998,34.129999999999995,1
0.8904958128210397,0.0478452048123529,-0.18710171059756256,0.03907222829174838,-0.0030261803890733784,6.323683906922759,33.87205,3.8060423137420702,-52.02852682350642,-3.8764175451618903,38.06047108457539,58.354850437069686,4.663712,34.13,1
0.9040126479927069,0.05434946382613593,-0.16618677227251652,-0.06556704624303109,-0.004240418397454484,6.3241482005797645,33.872,3.6702086389648287,-51.92805058236153,-4.113906378287258,37.94575772586964,-5.486049913063432,4.659872999999996,34.129999999999974,1
0.8915960298297081,0.062282615614516305,-0.1747964468056327,-0.010427820855668644,-0.003852106467547887,6.319966475260896,33.869957,2.792093850244424,-51.95531452739403,-3.902418387192303,38.04755185807417,-43.04559793203794,4.661152999999996,34.11000000000001,1
0.8955283236646983,0.06760363405523312,-0.16615457970255817,0.04678725314107794,-0.003991005596324717,6.322061202907254,33.870277,1.416419626985694,-51.92005004703267,-4.037575262179796,37.9621046689098,37.299009813142796,4.659872999999997,34.109999999999964,1
0.8981122265674708,0.06125369341217575,-0.15924434567995902,-0.036959700510954485,-0.0031617901592421596,6.321341193660232,33.870705,0.3654325635645514,-52.05671710056364,-3.8093756302600803,37.92901148420359,38.33621736844161,4.656035999999996,34.10999999999996,1
0.8927021378061344,0.052751171435057406,-0.1749130738616212,-0.015570911807059941,-0.003874541511757065,6.316933479314839,33.867794,-0.03803297644823864,-51.53295747911116,-4.056731981116068,37.922234196118815,-50.49349811079373,4.656036000000001,34.11000000000001,1
0.8953115922327225,0.06400248939262074,-0.17483847539425854,0.05636343243011347,-0.003667886586527542,6.318811098153652,33.870747,-0.37806618494398014,-51.758026160313015,-3.417566153313897,38.26316059799027,6.6457258974627305,4.648360000000002,34.13000000000002,1
0.8895134460528101,0.057627667254897035,-0.17863357754087358,-0.036260530925019956,-0.003383888980802772,6.318098706610639,33.868282,-0.6413869903102292,-51.5429457066002,-3.8729628119629527,38.1902324396491,39.456706433702806,4.652197999999999,34.13000000000001,1
0.8950875104766496,0.051712478088856505,-0.18908669370638215,-0.004188390387326025,-0.003391461666669696,6.313549924035029,33.87058,-0.7761358244384473,-51.838835257909466,-3.310519490879769,37.8367962374291,-37.271416456034764,4.645801999999996,34.12999999999996,1
0.8898393640350664,0.05982104215421419,-0.18727522119080603,0.044808571499005176,-0.0032906524238415146,6.312994005848609,33.86939,-1.3546288591421747,-51.549400060152195,-3.91673491740244,38.104935852883365,-15.182710799942074,4.654757,34.13000000000003,1
0.8841445587290209,0.06797802411794841,-0.18181401382618864,-0.04616795025098632,-0.004047526033423607,6.306983619082386,33.87123,-2.0136524566992664,-51.960151804379926,-3.0322097255832836,37.99202008299026,36.97141872337845,4.644522999999997,34.129999999999974,1
0.9041522028799956,0.07179987627417814,-0.15262322253584337,0.0004338654874230808,-0.004281629305056769,6.305218452392307,33.872467,-1.6136033604237432,-51.79293040675941,-3.3334126950624614,37.732404152595976,-42.61419341932622,4.652197999999999,34.13000000000001,1
0.8927844117375624,0.12142074294437896,-0.11254523975832036,0.022533983335750733,-0.0038404547762615157,6.305649431798951,33.87268,-0.543936984630275,-51.56021303891277,-2.9159248256925565,38.45345557430996,-20.40110977953878,4.634289000000001,34.129999999999995,1
0.889233516399992,0.09302374244697197,-0.1675060743823645,-0.03349730522291476,-0.0037348439848812896,6.298204691663588,33.873047,1.1332835031741413,-51.432861274553794,-3.5686165462281187,38.50060307406851,51.80902946233402,4.644522999999997,34.129999999999995,1
0.8856132016631891,0.10860756436330188,-0.16338743845445314,0.06357681679979924,-0.0036095249977058617,6.29422442550256,33.870537,2.374560318921412,-51.76066653134548,-3.5608538376656234,38.37593772649496,-12.788033622044678,4.64964,34.13000000000003,1
0.8918621750364202,0.0992494562147985,-0.15121731548491732,-0.015500754194730144,-0.0028206367367605576,6.29567043258358,33.87104,2.757807608599013,-51.66365328994695,-3.628001672320814,38.116422319298074,2.389115525011728,4.644522999999997,34.129999999999974,1
0.8883942030336532,0.10011908682053176,-0.1628007968658231,-0.006418631945123283,-0.0036086455676865034,6.294338022398778,33.87236,3.218553387831412,-51.06100117371333,-3.3997757720174415,38.82502085461954,32.14213713122322,4.641964,34.13000000000001,1
0.8888162908185899,0.10418153336539981,-0.16036562397542126,0.05143822070485747,-0.0028883618307060694,6.296231247045617,33.8723,2.976033884208071,-50.74085423658029,-3.90969087163877,39.25252961449198,-54.52109738181072,4.6355679999999975,34.13000000000001,1
0.8896886971706093,0.10366563894491548,-0.1558949875862318,-0.04534686454050136,-0.003460594591288972,6.29463501537565,33.871674,2.277539869818847,-50.688189852526165,-3.847881006675691,39.44507206277707,3.601514050586349,4.640684999999997,34.109999999999964,1
0.8899703097090201,0.09751378444118702,-0.1599439010765878,0.018886671780516735,-0.003499231267246049,6.290738281306283,33.871025,1.3756567346413642,-50.92328416814553,-4.097399915946706,39.2402277232588,32.19987324355009,4.639406000000004,34.109999999999985,1
0.8898642159116981,0.10003225234314558,-0.1573795514087527,0.020307588011553548,-0.003247918932473148,6.29573137932986,33.87257,0.2780911799841992,-50.88926145867416,-3.9074172323431458,39.27766445974618,-25.75643753998324,4.6406849999999995,34.10999999999997,1
0.890684469757086,0.09874009524172284,-0.1581771545775159,-0.05957052885380537,-0.003479798842754096,6.292822973689892,33.875854,-0.911589690300075,-50.91942089562492,-4.091059807944045,39.59908352189694,24.169292509656582,4.6330089999999995,34.11000000000001,1
0.8891673687649042,0.10056199452897154,-0.16053534430406938,0.022110033228079105,-0.003679519506679787,6.290654061365257,33.873257,-1.9617989696216964,-50.700155920188756,-3.909895146222113,39.726763008722685,-18.96785054517381,4.635567999999995,34.10999999999997,1
0.8905716097846916,0.09989981435583115,-0.15623110475091473,0.024963944291049086,-0.003516840137252158,6.2932117976932025,33.872856,-2.4978326691419928,-50.70032524086168,-4.089262471728076,39.80589395329779,-8.845219058926464,4.640685000000001,34.110000000000014,1
0.8893009306373689,0.10251019539822015,-0.16288361761518294,-0.042443523650959075,-0.004483741183534246,6.288654278846403,33.87566,-2.5632831139061176,-50.54766031055619,-3.9115675279598863,40.091465394250335,44.0082761696975,4.636846999999996,34.10999999999999,1
0.8877041405293874,0.101700448661875,-0.16771140876876442,0.010756276070080548,-0.004240579016986706,6.2860330342356034,33.875095,-2.682437579420395,-50.3296393497077,-4.087594036793529,39.890890476472556,-32.18103666779244,4.639405999999995,34.109999999999964,1
0.887706198684937,0.10057239592595686,-0.1698128514781006,0.031832136555219145,-0.0031483100302194473,6.285619627266734,33.876728,-2.8282469972729314,-50.97244871184389,-3.9132533714926425,39.87625068001115,5.0392950053291905,4.635567999999996,34.10999999999999,1
0.8891228397687824,0.09966270911723839,-0.1696784682829346,-0.04508227528269483,-0.003825988208771367,6.283048308055651,33.87506,-2.651772661372595,-50.61907056980523,-4.085894573009897,39.657141253232304,32.65770410451707,4.63173,34.10999999999999,1
0.8883168749326471,0.10123774435015913,-0.16810502742528796,-0.0038804151790628907,-0.003902357091176463,6.279304975297882,33.875614,-2.3407240643980756,-50.28522109827715,-3.9149573059907232,39.90535872609311,-37.804986042914486,4.624053999999995,34.109999999999985,1
0.8897335434110375,0.10191409250462874,-0.15960183822433702,0.05288250925527994,-0.003387847745759416,6.2802768359606524,33.878345,-1.8480877351717035,-50.73877834759633,-4.0841951335313285,39.52641421322151,9.545339066288026,4.629170999999996,34.10999999999999,1
0.8886844343882029,0.09962859370562864,-0.16700006305116843,-0.035454746358571675,-0.002984168547198145,6.276313790798787,33.87677,-0.763692419031982,-51.054426982002134,-3.916644854730636,39.59286715561307,25.303745099649635,4.621495999999996,34.12999999999998,1
0.8877657347015231,0.09828933041789402,-0.1709849410963055,-0.0017503350424412714,-0.0037511816792352923,6.271478724051475,33.87881,0.6650968957766337,-50.97869273496791,-4.082525176192823,39.1025442316633,-34.83640046058449,4.6253340000000005,34.12999999999996,1
0.8873088980253999,0.09681637066184258,-0.17561083487168824,0.05712246859488929,-0.003274811720956048,6.270239927999088,33.877373,1.9668797189526284,-50.9584581997434,-3.9182929850535193,39.18976654199213,9.265873227093715,4.618936999999993,34.129999999999974,1
0.8865979718241163,0.09595173921726868,-0.17779698125206822,-0.03280546829163672,-0.003572583851985524,6.268659392912799,33.87851,2.98119149572127,-50.88830261523077,-4.080901936725629,39.09963254650591,40.561744655865304,4.6202169999999985,34.12999999999994,1
0.8865646775581878,0.09532508789429998,-0.1801789294530827,0.004065763710003174,-0.003602903847864854,6.266594995249407,33.879173,3.573721590143968,-51.05452988832746,-3.919889174512301,39.06155071382982,-28.807014839311297,4.618936999999996,34.089999999999975,1
0.8879430197818869,0.09452443807882535,-0.1774978322147944,0.03635253505893553,-0.002509857271943198,6.271402063423427,33.880104,3.669583385353173,-50.95908703051433,-4.079334271512947,39.04210731746342,-22.066039071629323,4.626612999999995,34.08999999999997,1
0.8872946197060264,0.09528985356454321,-0.17932178376150062,-0.04702799363043782,-0.0033328979974574136,6.270492277281016,33.882103,3.239521422089789,-51.03433542119838,-3.921427352469052,39.12473745420396,26.937422767440427,4.626612999999999,34.09,1
0.8883118722064669,0.09406998864739458,-0.17765947205934096,0.03274760535339515,-0.0030346736829406484,6.26952269543857,33.877758,2.1643362787420886,-50.968708532928105,-4.0778261676500405,39.178091676906476,-16.92390404412114,4.621495999999993,34.089999999999975,1
0.887937765678829,0.0935626591323068,-0.17685809608965278,0.016807808395394606,-0.00349735369481911,6.2730607353496906,33.88309,1.10439693307444,-51.034126538291176,-3.9229050670162025,39.157743404884386,-19.941505606564565,4.618936999999995,34.109999999999964,1
0.8866440580684419,0.09528866794284876,-0.17760312918830762,-0.05929392707965861,-0.00364253729690363,6.2688840961862855,33.88344,0.47068547609222255,-50.8865836870038,-4.07637896717447,39.105139498609724,23.47954191052719,4.611261999999996,34.10999999999997,1
0.8864662890321633,0.0933947226330095,-0.18161231025009963,0.050770247176496454,-0.0027883893328473647,6.267728478252604,33.88483,0.03665056475937106,-50.92700138712734,-3.9243217556751753,39.21132773197381,-34.97435474206787,4.616378999999996,34.10999999999998,1
0.8874155319288415,0.09657604774434678,-0.18060298595896987,0.002719917876890021,-0.004258427175978543,6.272100179623786,33.883514,-0.7583677042674362,-50.76018426560651,-4.074992711263453,39.29678082454145,-7.530262640639169,4.608703999999999,34.10999999999996,1
0.8866079436427456,0.09764580219250754,-0.18334389443171756,-0.046224172995217125,-0.00338936012507411,6.268067469996724,33.88488,-1.9446951704517617,-50.75811129820349,-3.925677694399619,39.63489615118515,27.986033217943966,4.613820999999999,34.11,1
0.8854641803787299,0.09762974092278963,-0.18891394049483726,0.05420570634365986,-0.0036836049131333194,6.270369615984621,33.8857,-3.1185395128066693,-50.63165718234786,-4.073666970652088,39.75666181141868,-39.92425392244661,4.606145000000001,34.10999999999998,1
0.8853986566956967,0.1006132952218705,-0.18426262752960756,-0.02906301943015966,-0.0037739032071812265,6.270267217899544,33.886116,-4.01475058880808,-50.276315499282376,-3.9269733319976026,40.08319734776941,9.418453709428935,4.585676999999997,34.110000000000014,1
0.8863496577616333,0.09940955276562741,-0.18599033756668526,-0.031570003482007,-0.003251794582439784,6.264858235795289,33.88673,-4.477311424418348,-50.33097630143574,-4.072401388167918,39.94006776297029,25.171216409912173,4.598469999999997,34.10999999999999,1
0.8848629958103418,0.0993004946931077,-0.18500428944988093,0.06239500338705409,-0.004105089608261445,6.267310171639887,33.89288,-4.527152779419696,-50.88766445060828,-3.9282088404947975,40.047170026331884,-37.99093292093596,4.601027999999998,34.13000000000001,1
0.8872031403927463,0.09755797344222403,-0.18285735157757216,-0.017309646430011358,-0.0031033836189969287,6.267353829639842,33.886494,-4.030556651215857,-50.44715690857138,-4.071196055031308,39.63723787030456,32.294129491690846,4.608703999999998,34.12999999999996,1
0.8863562210940942,0.09980822400666389,-0.18358498183573582,-0.05137217343251723,-0.003259151182679249,6.262314746390659,33.891224,-3.1555314498214484,-50.34887045367773,-3.9293838039269207,39.53355231440103,5.670135674818194,4.604865999999999,34.129999999999974,1
0.8863958342008694,0.09802637071887622,-0.1828696708745605,0.05946126213166443,-0.0031371654062817157,6.26264389498075,33.89055,-2.2709376668069376,-50.83841237602347,-4.070051750279882,39.619660240057556,-19.96977510747785,4.603586999999997,34.129999999999974,1
0.8863518898074925,0.09717437512019182,-0.18090493295958285,0.011332553964488908,-0.0036608534642390608,6.263292895071238,33.890774,-0.9861250474272673,-51.01388424278805,-3.9304970811393036,39.37129328735559,45.839474801372496,4.5959109999999965,34.129999999999995,1
0.8861392382157385,0.09509133411480593,-0.1827616615596723,-0.03361368931821319,-0.003113286647818592,6.259820708612667,33.891243,0.5657934067087835,-50.884649296843236,-4.068969902452723,39.22278249411441,4.794517994273374,4.599748999999997,34.129999999999974,1
0.8857424792757802,0.0957858073482925,-0.1815622615987677,0.06157394840587562,-0.003909099233583426,6.260516922802244,33.892998,1.875153813540138,-50.93286545980309,-3.931547176607249,39.09258007796561,-23.669701556427164,4.586956999999999,34.13000000000002,1
0.8871209217282261,0.09439136630912419,-0.1813702977790519,0.007215298508499202,-0.003567961339594963,6.262732733882688,33.89324,2.6530457040068796,-50.9049452737112,-4.067951556038979,39.18399893094677,42.40776371650326,4.603587,34.129999999999995,1
0.8864122708310128,0.09467274611767924,-0.1842225977653164,-0.048116403797940195,-0.003152024085159499,6.258414260564536,33.89406,2.8653593812554172,-50.76984457882956,-3.9325346453931305,39.5379964286548,-3.4283402100340434,4.594631999999998,34.10999999999998,1
0.887211514800425,0.09411500377188284,-0.1829975176393144,0.041404894293774745,-0.0030797988993171745,6.2603091947437655,33.89393,2.409418840081065,-51.023540647095125,-4.066992009182152,39.37798910875146,-38.49305270602471,4.601027999999999,34.10999999999997,1
0.8866464891912622,0.0980959164385673,-0.17848273835129733,-0.00809629759408118,-0.003699831205623718,6.2609101080894005,33.894535,1.6395745673424218,-50.74240328788838,-3.933474181063297,39.738394733634046,24.713108426623975,4.597190000000002,34.110000000000035,1
0.8876735077281277,0.09652802967016891,-0.17927099292307544,-0.05266341691251988,-0.0036271513346704197,6.258991925980589,33.89384,0.8518413906102158,-50.49627681438764,-4.066052306201423,39.675562528891646,6.074128702835829,4.594631999999997,34.10999999999997,1
0.8870947192155773,0.0975079417549783,-0.1769697606931586,0.037168929712201045,-0.002977651052058163,6.259169166195722,33.897938,0.06517668926029396,-50.782094263872274,-3.934467235122825,39.572053150043885,-33.53005881939495,4.598469999999995,34.10999999999994,1
0.8872847649984805,0.09607866083431538,-0.17635984925793685,0.021428616064108764,-0.003997091243064557,6.261772069404534,33.896873,-0.5606684572391617,-50.636033435192786,-4.0648513043872265,39.70977707208665,33.52480309465549,4.593351999999996,34.109999999999985,1
0.8865963904115308,0.09968014073719066,-0.1802847724913337,-0.0646687434102552,-0.0033949427000153774,6.256721045515324,33.897373,-0.8340229648724936,-50.52724337573453,-3.93641425979976,39.97699374299323,5.26110901401812,4.590794000000001,34.110000000000035,1
0.8849599753369057,0.10329964907674567,-0.18267083611216942,0.006190605746452112,-0.0035024533158582224,6.254000597065596,33.89967,-1.1983119156568187,-50.11377322230926,-4.059557098401968,39.95998288073833,-45.1091787289437,4.58056,34.11000000000001,1
0.8847521629873512,0.10535248020212043,-0.18121916273862368,0.06351854983516256,-0.003605042591456886,6.256411629811549,33.90381,-1.6930794523226103,-50.10076414011967,-3.9721814752268965,40.03706786670024,23.74643610641249,4.588234999999998,34.09,1
0.8905613401729118,0.10754125780408151,-0.16670736413103435,-0.042155465856127804,-0.002870484706576953,6.255243552025943,33.897526,-1.8834427478495743,-50.040863580945086,-4.845697741416405,39.969270619210015,16.4983176840867,4.583117999999997,34.08999999999994,1
0.8875837774218442,0.09178009051166346,-0.17734188597094985,-0.03359344731852639,-0.002453414452093662,6.2522354493557275,33.900616,-1.710770358251237,-49.95987901991846,-4.820182250878413,40.01521357979021,-42.08533190245483,4.586956999999996,34.09,1
0.8877514865323154,0.09038491002239997,-0.17612990231123668,0.061472536068632046,-0.0035521898742647633,6.254607756460061,33.90145,-1.215822330320152,-50.24041681837376,-4.828725876815894,39.9512068909871,16.6449184256216,4.5805599999999975,34.090000000000025,1
0.8879047380828784,0.10216709133096198,-0.17164616596930796,-0.015221566432059977,-0.003625215803126098,6.253817869563804,33.901516,-0.21885192341780468,-50.16309259681685,-4.782908507692462,40.08884055575567,17.118174497531502,4.583117999999997,34.12999999999998,1
0.8858308214027931,0.10042463659127018,-0.18376353502536996,-0.03677238751792594,-0.004305740985907589,6.249105892987641,33.904713,1.23471772080353,-50.062050376140036,-4.806081996442703,39.87492797425765,-47.832146161897306,4.585677,34.12999999999998,1
0.8848354467198701,0.09956802987439253,-0.1830728765097548,0.0687881846955541,-0.004911041405096095,6.25168669875637,33.90308,2.499745103099302,-50.122137126912456,-4.41774150695543,39.95988558054774,4.235442687308694,4.578000999999998,34.12999999999997,1
0.8868795839950264,0.09654827354955738,-0.1817240011863017,-0.005659760280264155,-0.003031839767851659,6.254164039070347,33.901844,3.366464152060687,-50.34837526251033,-4.741520014924864,39.865405869806544,57.235339886065724,4.579280999999999,34.12999999999998,1
0.8847364528149749,0.09605880618360609,-0.18521081011091026,-0.03782075814215354,-0.00435704714599515,6.249643217418329,33.90336,3.674190137540408,-50.38124577209808,-4.545242254394784,40.01750120463088,-9.13424593807176,4.578000999999998,34.10999999999999,1
0.8863458716478602,0.09752958705449025,-0.18274690686897666,0.05005509728541178,-0.0037194822460310164,6.252683393962708,33.904675,3.2822613100675633,-50.26820170144982,-4.225204070285812,39.98351983584248,-29.946873313642715,4.576722000000001,34.10999999999999,1
0.8854316137596124,0.09938716752609776,-0.18226343319785,-0.03135401696613779,-0.0025027653224110797,6.252783178682156,33.90471,2.6152540578615033,-50.4196444391743,-3.9880814841877443,39.94111616035837,24.765940831704704,4.566487999999999,34.10999999999998,1
0.886414554299163,0.09802900877773478,-0.1840547539603784,-0.026407902871690016,-0.002462231494105098,6.248797735502438,33.907482,1.8599586015063974,-50.02775410457975,-4.3194915473028965,39.849417436610125,-2.6736949771882688,4.572884999999999,34.11,1
