chest_ACC_1,chest_ACC_2,chest_ACC_3,chest_ECG_1,chest_EMG_1,chest_EDA_1,chest_TEMP_1,chest_RESP_1,wrist_ACC_1,wrist_ACC_2,wrist_ACC_3,wrist_BVP_1,wrist_EDA_1,wrist_TEMP_1,label
0.9120106392807145,-0.023797815151567134,0.009214016991583364,0.06356934672757013,-0.003028118368945636,2.3782891100252064,32.818882,2.1561061005494797,62.80020540521493,17.09475265440501,14.98895865167736,31.668177026275917,8.959934000000002,34.78999999999999,1
0.9159714027004426,0.002125160423228165,-0.03510372377722875,-0.04956670989961393,-0.002836192968915894,2.3767312652921797,32.8192,6.04246728048129,57.475331709178,1.167978068184559,27.600318066130075,31.502253297112837,8.885738,34.78999999999999,1
0.9129299969299318,-0.05122238855974855,0.006848486952531782,0.04496233024541354,-0.003221360156543394,2.377135672186219,32.819286,6.877804144924682,54.03373483452513,14.900464173091422,31.668753092910002,223.32460521812953,8.837127000000006,34.79,1
0.9223563288597221,-0.052641079810317744,0.011166395447489149,0.017424405005343375,-0.0027124841834119504,2.3771381533209186,32.822926,4.436807474515657,39.4060825350311,23.067738509748256,44.22923735703005,-430.53769904515497,8.807704000000001,34.79,1
0.91846422381537,-0.06279949431453637,0.01306190495533104,-0.0801923502177254,-0.003458779693081304,2.3766629671815553,32.824184,1.284008476087715,14.280212652406112,14.583728056535024,58.959520376563404,-40.22654519223765,8.879342000000001,34.79,1
0.917969148811246,-0.052151777870497594,-0.011783594725370815,0.060194470221955024,-0.0027634014393521063,2.3747425694757327,32.82254,-1.4122221337752079,34.26794693422732,9.304096801638618,53.52449518227676,37.93078227423356,9.087860000000001,34.79,1
0.9093093598157558,-0.08357021037975336,-0.030725951108277527,-0.014143759644804545,-0.0027943853244277337,2.3764129474037112,32.82203,-3.7429023820649787,10.154273261784416,16.399688036822983,56.71503813712498,-114.29606469993506,9.165894000000002,34.79,1
0.9181119771884385,-0.08462115335283737,-0.05881030464830954,-0.07467433590928083,-0.003201145300507036,2.3744108499907792,32.819756,-5.12996251872881,20.120729946702735,15.370585924332097,59.31447990855996,221.8281560550712,9.081464000000002,34.79,1
0.9130331544569065,-0.09471173635840446,-0.03732852500161104,0.05775766382643334,-0.003332120026905647,2.376250136807767,32.822124,-4.384602434381406,37.60812560328034,18.611270535911128,49.290160669832055,166.43664999128697,9.039248000000006,34.790000000000006,1
0.9174519806647761,-0.10163934344646015,-0.03730881346434585,0.00631307861211273,-0.003255814127302911,2.375840290800514,32.820602,-1.4277227611754517,30.033671844792757,13.167801777268394,56.460163292101925,84.37675405333525,9.092977000000003,34.790000000000006,1
0.9111490688903092,-0.1095845225354172,-0.031072948265422794,-0.04576831164683627,-0.0034554163177297603,2.376512136319843,32.820026,2.297242928230024,49.01577915652449,20.19598057346626,37.08441745035654,-84.43134487155842,9.100652000000002,34.809999999999995,1
0.9182375604405136,-0.10907991403993061,-0.028695069269196526,0.07502154948405285,-0.0032253605021118664,2.3752213546703262,32.8204,4.718504602776721,31.44852480619037,12.99596617404696,47.88435325939552,-116.10906243065442,9.014942,34.809999999999995,1
0.9114111576472163,-0.10540019275262803,-0.03773316415260646,-0.0421157549881666,-0.0030459298292013896,2.377737832699337,32.821274,4.246994035511688,37.150101320744845,18.970369009794425,47.87663682597278,197.80887501884789,8.963772000000002,34.81000000000002,1
0.9178446707586976,-0.10455252598637005,-0.05327118683577965,-0.010939119854259605,-0.0032439762217254613,2.3735569133897676,32.819736,1.9189141226901114,29.66874393832872,17.885951113101576,56.52994153637271,103.08300206552396,9.020059999999999,34.81000000000002,1
0.9127911290114837,-0.11443044978185869,-0.038739660422343586,0.05929052117830386,-0.003291882483655173,2.3745248554375302,32.817875,-0.5423935611441087,28.206939520203687,13.971215515534956,53.635661723938256,-153.94874255808097,9.082743000000002,34.789999999999985,1
0.9167455956999276,-0.11805514618456237,-0.040871648008473545,-0.061705959317344995,-0.0034542453905479008,2.3728905091070693,32.81732,-2.008303557562201,28.660615785645593,13.342588205580283,56.09869279646134,-20.099325307632093,9.089139000000003,34.789999999999985,1
0.915619348252121,-0.11260941309954016,-0.03172417198479145,0.03588892702507965,-0.0030220772383992823,2.374842718225841,32.819542,-2.592466137276684,29.834253213849465,13.91376029157381,52.028922987905254,100.1533183308016,9.080184000000001,34.79,1
0.9164739579079292,-0.11843219653138103,-0.04752338244649351,0.023744265025402528,-0.0029916049146103798,2.3728774482424733,32.8172,-2.569929314354432,34.72335566764494,11.952300090605894,52.39334994486607,-17.253281047357873,9.082743,34.79,1
0.9127420283146479,-0.10865923714656067,-0.044741814487467266,-0.07684609103906406,-0.002936190545896188,2.3753697998763275,32.817444,-1.3885533776470576,38.53214351448705,11.230516345179533,48.06614694113706,-199.41356831691593,9.082743,34.790000000000006,1
0.9112120014391871,-0.10334527472584383,-0.04596179144277356,0.05526273620046213,-0.003341740522291272,2.3731740038502354,32.817955,1.006634280560386,33.11051332919862,9.574259616289195,53.24279255313738,-37.97868791378296,9.072508999999997,34.790000000000006,1
0.9102751357951695,-0.08747103346524744,-0.012707732104617394,0.00332179286822023,-0.00334791312747035,2.375285689820126,32.81805,3.5282408401870886,35.01999441804574,11.408449581437457,54.488054737905344,113.32680244799734,9.089139000000003,34.79000000000002,1
0.9065342196887874,-0.04549476102868377,-0.02386079224832793,-0.029077915715784275,-0.003456616246359532,2.3704008512512904,32.817955,4.832242604632494,34.38677045884672,30.495709064498232,47.216606409322615,153.6872798136027,9.086580000000003,34.79000000000002,1
0.9255145303186777,0.06856966223912535,0.02040791755014107,0.06394017394207499,-0.0032094595114848406,2.3756604744235634,32.817257,3.583287384854054,42.00472882486216,2.5860729489538836,34.9003913330455,-98.73611553382082,9.05332,34.81,1
0.8964934499106242,0.14273756573317756,0.1613019734220945,-0.04400506446916906,-0.002988090933824606,2.3742850925857213,32.81635,0.6226441039098469,62.02001631110849,-1.5951714835089694,43.77963946697614,0.7201183721142894,8.967609999999999,34.81,1
0.9000711703980504,0.0902947526151446,-0.010767462857132796,-0.023202816086617756,-0.0031839567756778253,2.372934098231011,32.81713,-2.6896231929565726,53.72188236860965,10.863608555383005,25.17853503078783,38.48851813801385,8.958654999999998,34.81000000000001,1
0.892391820082997,0.06067402982549015,-0.14581552600567707,0.06570570774867708,-0.0031699805135848775,2.36510881537715,32.820026,-5.104774378156646,26.869454409560234,26.964007165721494,42.79403417991668,-82.4703273680554,8.974007,34.81000000000001,1
0.8929929179643928,0.008105311276055084,-0.25538355188655487,-0.02371178759591914,-0.0031135887552040695,2.3715335587518456,32.820847,-5.410800368556393,45.186419033665636,28.385862901246565,36.39163470912216,-82.59355011199199,8.936908000000004,34.79000000000002,1
0.8558151427566233,-0.1121154969846417,-0.3251147755738011,0.0387453222704472,-0.0026370221735872493,2.3737892998597183,32.820793,-3.566873473742177,28.710366181649054,21.722280481591586,54.69482327030235,52.910423438230076,8.940745000000003,34.79000000000002,1
0.8373525007003588,-0.12559740632749386,-0.38591813790980534,0.028818120986035634,-0.0028289847190211665,2.3705695929110977,32.82042,0.7537681812922835,11.241115906756464,9.141635922914887,59.23896720155135,-59.441119877162386,8.958654999999998,34.79000000000002,1
0.8396928184298671,-0.13783696112145902,-0.38902736871717547,-0.07805332568184047,-0.0032368736909076583,2.3711824324267905,32.81881,8.209025237433911,21.764946992471206,11.74668065470276,62.11065059072926,259.6443733780134,9.103209999999994,34.79000000000002,1
0.833528567158223,-0.142248876143889,-0.40203566448337014,0.035584043370761646,-0.0034347250156641263,2.37758642028298,32.8219,13.517787542475508,20.3296436678972,6.352973293860345,60.97233773772449,38.10227459408551,9.076345999999997,34.78999999999999,1
0.8351303594309349,-0.13322862603369812,-0.3959005689824048,-0.010973315022678374,-0.0036910901427495064,2.3776211940306884,32.820576,14.619969387452166,19.61280242789491,5.29239513226293,58.4870549363389,-364.466444156945,8.940745000000003,34.78999999999999,1
0.8348182823948423,-0.11745821923114838,-0.40580253173717,-0.07271749378145044,-0.0030863599940339002,2.378862203359431,32.8226,12.907016252667768,20.0651808420432,5.464178692632158,60.24697658210572,-76.42983806631003,8.871665999999998,34.789999999999985,1
0.8385961361777936,-0.11808379413867359,-0.3929782157713274,0.0630448424507788,-0.00301892384212338,2.3782287511607536,32.821606,9.679997741058292,19.70150148471942,4.492437407953699,59.197934614035766,-42.607366822398184,8.839684000000005,34.789999999999985,1
0.8382899885530448,-0.12093554713077516,-0.3933757962590765,-0.029729374124106322,-0.002927535121405845,2.3797485532688145,32.82236,7.017081459287109,20.262854585150713,5.037099555947252,59.401058298246575,55.74586959419392,8.817938,34.79,1
0.842741092722193,-0.1183932468133091,-0.38284347104332433,-0.016518410079498017,-0.003096678953067615,2.3774788228433024,32.82163,5.253708806943749,19.56292864841965,3.5752798391368747,59.753594951726946,77.12476249678436,8.808982999999998,34.79,1
0.8418873243661098,-0.11567703127852809,-0.3791283449523671,0.06628410151969232,-0.0032158135948451416,2.3780123102154582,32.822487,3.9681260467129253,20.378542484717123,4.4754657237819115,58.922198775935115,13.359451850448226,8.798749,34.790000000000006,1
0.8507918382028592,-0.11118937709745826,-0.3683615776583075,-0.04920940815924201,-0.003395134020241457,2.377584509954276,32.823277,2.8974107316674025,19.597608523427972,3.4618395633470525,60.03467659776935,31.31743179212221,8.789794,34.790000000000006,1
0.8477633158162735,-0.11091716034933409,-0.36457616527207776,0.024554092205885582,-0.0034397865983686864,2.3777915796834552,32.82491,1.4839597406324752,20.409930715241313,4.674781332788721,58.52568718338783,25.43079380656849,8.769326000000001,34.789999999999985,1
0.8500926982809001,-0.10794472794008718,-0.3599734737159551,0.03243660667316933,-0.0029512151598043708,2.3780442081517883,32.823395,-0.038053728165649926,20.107274649929902,2.5786617249997668,62.67729830907354,-8.707550463330083,8.764209,34.789999999999985,1
0.8425364254784969,-0.10148570404416196,-0.3575278766581391,-0.05772943961051976,-0.0031197254119373127,2.376863259814545,32.825165,-1.6516055945769443,20.60997086112488,7.223296607877822,59.55496437019765,34.33710661220622,8.700247000000008,34.790000000000006,1
0.8770162983416151,-0.0838809482861098,-0.30964068298681263,0.05242122438946705,-0.0027731852120245473,2.371907976035577,32.823505,-3.5227212322068153,13.918276369583326,12.264657120717352,59.18221414892532,-4.4232232383776955,8.769326,34.790000000000006,1
0.8987503309735977,-0.06199415565316517,-0.2091021640345619,-0.002036197412985245,-0.0024884817047885342,2.402857167356161,32.824997,-6.332010726647712,25.822160854502858,13.117765588340383,51.69202113151267,15.645276391103302,8.847361000000005,34.769999999999996,1
0.9135776936245555,-0.08636293658781365,-0.08033147591555365,-0.046884419502658585,-0.003380732869124095,2.3850316387960113,32.824528,-10.89212088150955,47.60142159111371,10.27447949458725,40.98310910819542,46.770643214627626,8.796190000000001,34.769999999999996,1
0.9143936085523764,-0.09240959195408603,0.020323751865248287,0.05929858856894613,-0.002666430384265101,2.364835527514679,32.827873,-13.739207351230293,45.452850653033515,8.948636964331424,43.42927895549678,72.43581212774681,8.782119,34.77000000000001,1
0.9182301239037911,-0.08105656744443752,0.0538995493702008,-0.0023754021253817536,-0.003451216797085761,2.364872487598725,32.83056,-14.985294318015315,50.63751154197959,8.767968566324248,37.17181635018492,82.70847620483742,8.773164000000001,34.77000000000001,1
0.912044837700089,-0.07543560973112168,0.06474286925518645,0.0049100261311502994,-0.00292098345175166,2.365633637053573,32.830624,-14.58272850113884,48.34012537864278,8.451419840365268,39.30543491278988,-16.29968314383796,8.777001000000007,34.79,1
0.9170252591290419,-0.0695395913690352,0.0696216236970578,0.046021660771059264,-0.0029313078554588238,2.369112975236023,32.828693,-12.79020041735303,50.41950657396466,8.950500816145574,37.43497397919517,-93.38428805984023,8.785956,34.78999999999999,1
0.9133400929300038,-0.0813726891559921,0.07500634415463925,-0.047916878126709604,-0.0030298751336691977,2.3693466105257537,32.83271,-10.50835512761866,48.75828288434684,8.937633109661041,38.75099852892141,-10.225181399240023,8.780839,34.790000000000006,1
0.9174941992641494,-0.07090167968469152,0.07157102468054087,0.047686534340176556,-0.002963409511747209,2.3695927118436604,32.83028,-8.564978100543073,49.96601615207372,8.804375082378014,37.90061498520665,9.904261154742136,8.762929999999997,34.790000000000006,1
0.9127374054642684,-0.08405427888068778,0.06557955154597993,0.009120700402008953,-0.003325398852630496,2.367289625176127,32.83318,-6.77810495542673,47.465779648524645,8.731482865701848,40.47179933805714,-4.335458793809647,8.774443000000003,34.81000000000001,1
0.9175360372528966,-0.0837879536720609,0.011071174334369188,-0.045451452292807094,-0.00322141796500382,2.365813575477287,32.834,-5.4613426436730705,48.83619207174121,9.724920188855476,40.1403646810813,21.150834984909732,8.768046,34.81000000000001,1
0.9117009323960125,-0.09444954109850505,-0.024735197342912463,0.039473656896739005,-0.002779318027789284,2.36669090330519,32.83327,-5.0662377499432045,42.090959511172244,9.407513927150267,44.91922324679025,-19.416731646113874,8.759092000000004,34.81000000000001,1
0.9174499788089687,-0.006522054641053817,-0.053082217324844944,-0.07227279530585648,-0.0033731931202852566,2.364252011063583,32.83535,-4.718805361326323,46.71075039276578,12.656694331164879,48.39463128673448,-1.6330835084021968,8.753974999999999,34.81000000000001,1
0.8971028356007803,0.003240184756479127,-0.13916428171215828,-0.01313865272866702,-0.002646109842625628,2.3715901330553417,32.83866,-2.949788478676527,21.487983822094556,11.709618273429163,49.10150788039538,-5.434179899158753,8.751416000000004,34.79,1
0.8961390272001583,0.04216101626506431,-0.16308168192233857,0.06441710424299048,-0.003327741764405817,2.367524768404496,32.839985,-1.8088937948127595,16.660616380142642,7.861170786568771,63.41037509003104,-70.55797530724858,8.778281000000003,34.79,1
0.8670444553502333,0.11750173723254095,-0.29034952303129574,-0.08736968714882824,-0.0029878282872912868,2.372610411759096,32.84039,-3.400474037842464,16.103550779308264,7.215930736139055,60.26040853243523,14.139686917136277,8.849918999999998,34.78999999999999,1
0.8363149830581034,0.13593551791640165,-0.3405962094475166,0.05859039091479529,-0.0030481564328264446,2.3736105859247703,32.838814,-5.917672994946683,13.441939687146293,-0.11027743292730934,61.6166295252201,17.4374841112643,8.847361000000001,34.78999999999999,1
0.8482570139207141,0.1499030444599052,-0.2866731732116551,-0.04384009133138861,-0.003328500237926109,2.3716837654192444,32.84194,-7.350751577869852,30.520067796960674,1.6717533603942953,53.8622725372566,91.76859490592344,8.805144999999996,34.790000000000006,1
0.8646114976536045,0.07210047942872667,-0.2815229800004174,0.01149461250629793,-0.0032925874292982424,2.37163752671162,32.840332,-9.625633886042431,33.92149608393095,1.3067830045679343,53.57212473999431,8.807087157693282,8.787235000000004,34.790000000000006,1
0.8704518249288492,0.07072382072330913,-0.2885389485841677,0.05045820058730653,-0.003565817504251689,2.370234817934463,32.843292,-11.705683138097166,46.97940501250671,-0.5972839751071667,46.717458231896615,-97.32351442809613,8.757812000000003,34.79,1
0.8442700362861141,0.10292528697970214,-0.3411211978412267,-0.07578121616325659,-0.0031317956594619865,2.369129495287201,32.842655,-10.062550604730246,41.44924477704284,-2.4785370330607184,48.10279218976815,-31.97229405168958,8.770605000000005,34.79,1
0.852273296981582,0.1344752088144147,-0.29377490361046904,0.06867699965023132,-0.0029936958012059416,2.367533036405813,32.84462,-5.003334707263032,34.88002405387718,1.0139238966429087,49.26340325336455,-43.57970027920907,8.757811999999998,34.77000000000001,1
0.8584630662493791,0.13788944930958671,-0.2623875969121164,-0.052469559161684096,-0.003974501638647733,2.3670346635712955,32.843353,1.1607800283301055,38.68541726458372,0.1458185156310278,50.87115779158627,-24.29918100850505,8.769325999999998,34.77000000000001,1
0.8610083793255655,0.12190949760952224,-0.2714049339899083,0.01951258265595385,-0.002886726058013365,2.3663956859002324,32.84375,5.966532542877045,26.752649479932604,3.960788866035393,54.962328518304595,146.51513599230924,8.751415999999999,34.77000000000002,1
0.8631494300781305,0.12487095490009185,-0.2644044970899321,0.05568570042586248,-0.003521034647369124,2.3678997716070445,32.84457,8.791574197632093,17.172667304359965,1.4436080688070194,62.93600590115069,155.99969824302926,8.591510000000003,34.77000000000002,1
0.8612226443705973,0.1398394816051576,-0.265037629878118,-0.08113275146750186,-0.0033680079560749108,2.3654549636059903,32.846733,9.844471236594275,45.72030996106931,4.1067258958393715,40.2942316389969,-66.64456871760011,8.739902999999998,34.789999999999985,1
0.8618321221523833,0.11577927743606872,-0.2710276214696704,0.08277183866009802,-0.003176922210440186,2.3661227796282005,32.845623,10.055361553457432,55.6596074769238,0.9055649818070501,23.00894375291179,-46.0675885172043,8.645239,34.789999999999985,1
0.8524046746915399,0.1294116933710803,-0.2792081869932239,-0.08788847842083024,-0.003189326226687321,2.367344048714335,32.84582,10.34080659738632,59.018850579625955,-7.02605254333229,30.033053088562422,-249.36879216199247,8.316471000000003,34.79,1
0.8640936439088853,0.14618632041566787,-0.26431515852581905,0.06695383295764955,-0.0027618981259783714,2.3659592614285194,32.84572,10.975909173342304,52.36338457200387,-5.859693587246911,27.72654756794494,23.769971185315725,8.156628,34.79,1
0.8575990630273141,0.1791759506515427,-0.2374968671308296,-0.03952996681793509,-0.003597379529418456,2.365961594032441,32.84726,9.669061423424555,54.80583481088039,-13.211999164918371,27.795926776768535,408.94444431557093,8.270481,34.79000000000002,1
0.8572950686426993,0.1386900640595356,-0.26464508263905234,0.10805077036691854,-0.003331109841790014,2.3668082217331428,32.847454,7.111961248579893,58.18564904587624,-22.193748319004357,18.816776820987847,-526.1280257776534,8.340839,34.79000000000001,1
0.8655069614119231,0.15555631067691833,-0.22152899922787803,-0.01151298558496015,-0.0034415142367328418,2.365765824138719,32.849186,5.203104393987944,56.72757282956343,-16.655225421376464,20.484318834427665,-392.2469046377938,8.541682000000005,34.79000000000003,1
0.8810382496158204,0.14300158395385806,-0.1875936702701979,-0.20511500270205066,-0.0033433316154977246,2.365558135853629,32.849457,4.493271921442139,53.16170669050864,-24.48169653675401,19.688800860185363,5.396076222355995,8.574943000000001,34.79000000000003,1
0.8687741610090112,0.16336888101129868,-0.17849704137231037,0.09676787285011933,-0.0031948568365370075,2.365311644646661,32.851807,5.4333096748049545,55.3033455163047,-30.11870944223631,11.360223582760062,98.23325767751028,8.627392000000004,34.79,1
0.8687116304625199,0.16720970843994898,-0.1818205221983252,-0.03160021984855666,-0.00297130463947971,2.365891246855696,32.851566,8.142494173603795,56.79386296700311,-32.69833296481791,11.033593324028686,267.21632183076736,8.656815000000003,34.79,1
0.8748926607027334,0.17096324291207926,-0.17554834105702102,0.08909959644321015,-0.003087542134455982,2.3636685381119444,32.853,10.876147487348002,49.746906778812836,-32.261741557050776,10.88248466174362,370.16857910414967,8.711822999999997,34.79000000000001,1
0.8682101179450806,0.1669272873055803,-0.19839234919901697,-0.01595187929675458,-0.00357823033050929,2.36475959809747,32.851162,10.329519848534948,54.91127880375232,-32.66072745914862,12.480730199440385,39.55808511969616,8.794973,34.79000000000001,1
0.8619152039287403,0.1621055739972885,-0.22722099388538117,0.009633127303836628,-0.003239801285540232,2.3640818368784897,32.857197,7.2642530190435135,50.167959470122746,-31.628028787727736,13.419455453051317,-101.34866397054397,8.876844999999998,34.79,1
0.8634719102826834,0.1490937415237545,-0.2394472231324162,0.0441428575526346,-0.0029950229392646994,2.3645286609557528,32.8537,4.008140759633351,54.69742715192271,-32.449836417363926,14.064563444113976,-142.16189400243698,8.933133,34.79,1
0.8593209986228791,0.15223074505800063,-0.2534100298077762,-0.07703882205299682,-0.0028093277868790627,2.364565241002399,32.853718,1.2220886738860446,50.41209644162278,-31.193753429118974,13.256111671779278,-105.7989574855875,8.958717999999998,34.790000000000006,1
0.8596033480229054,0.14894555062319698,-0.25500453594379663,0.06280776885023924,-0.003670692421229244,2.366330305958713,32.85543,-0.8866031114944557,54.09740094538795,-32.17377774888735,14.721748899564842,112.01688233310266,8.991916,34.790000000000006,1
0.8588142968457487,0.14803740709854366,-0.2547777861805912,-0.021329649197092824,-0.0033382420405600184,2.3675488275052516,32.858414,-2.3733567309196495,50.6965877210497,-30.95381874578312,13.173914857176493,12.148994819703184,8.962492999999998,34.769999999999996,1
0.860287508559405,0.14718251790251047,-0.2547480334592364,-0.06236354564422535,-0.0031971846662138216,2.365089649440607,32.85899,-2.8013167391082185,53.83346752634905,-31.994003190076867,15.231752093019374,109.08622740507771,8.947142,34.769999999999996,1
0.8587208607151061,0.15073359998946964,-0.2551558366592804,0.06062766849211071,-0.0031256233891144925,2.366367974854834,32.85885,-2.9267428941981626,50.11247354077445,-30.74977527070017,13.26977565398206,-17.367997503906828,8.921556999999998,34.76999999999999,1
0.8608550459536274,0.14599652029337007,-0.25205393372963436,0.008264240635160257,-0.0032961258813071874,2.365553885999707,32.858673,-3.0566793788863755,54.34752980932659,-31.878015874157324,15.316364039603789,50.06923138656614,8.894691999999996,34.76999999999999,1
0.8590099678373638,0.15007417784144575,-0.2528616826538335,-0.06276010138955676,-0.003312964841296546,2.3655560408751595,32.859108,-2.9176909411474274,49.93365419336453,-30.299851654281554,12.594680262250508,38.16907284112487,8.872946000000002,34.790000000000006,1
0.8617555585410499,0.14693274801470235,-0.24898972639610145,0.05420617604275874,-0.0035149302915998674,2.3645123071233036,32.85965,-2.74871167466079,55.00530663166651,-33.0377946035624,16.133742816611967,-30.37360610729108,8.853757000000002,34.79000000000001,1
0.8620721257580783,0.15239676824241222,-0.242631425099207,0.054731364302659374,-0.003004269613155168,2.3649751642858825,32.861843,-2.5293317056077065,48.26545412241274,-28.904862616099514,11.040410059865957,54.88057116257252,8.842242999999996,34.790000000000006,1
0.8649169702687983,0.139961117079869,-0.23613209504312452,-0.06780817712583019,-0.0030431272250242662,2.363000151993395,32.862213,-2.1484267438725464,64.41949557876696,-37.78769865538101,23.09325935692739,18.180555660643886,8.826893000000005,34.790000000000006,1
0.8661051235761327,0.1598803206292052,-0.23677359989546398,0.03778112350045655,-0.0034052891589262347,2.3630742418332065,32.86334,-1.9498352162147763,57.75896872105307,-16.89334501597347,22.61782055077693,-69.34626003925715,8.819217000000002,34.79,1
0.8676990649590963,0.13249794471936918,-0.23209346949096535,0.027195289853303294,-0.003253663650689826,2.3633004197816394,32.86354,-2.24002752688231,32.22825889935779,22.944890572381695,26.359605185607126,40.84742844275333,8.816658000000002,34.79,1
0.863739015544459,0.11260666247033423,-0.2597590968764688,-0.05236338842180601,-0.0034343538973927966,2.3639359405845486,32.86428,-2.6817708082048335,17.538358212455915,-1.3931345907619277,64.14575004860012,0.5412906883769759,8.843523,34.790000000000006,1
0.8686568167456108,0.15235281822755364,-0.22740671908144156,0.00660703756618526,-0.0026028994938679744,2.36056468136391,32.864624,-2.4214021243543966,5.416574515612053,2.2025793192247805,63.3040073566138,-78.91463934929142,8.823054000000006,34.790000000000006,1
0.866746982195428,0.16692913404794166,-0.21662102449786813,0.03078414629473322,-0.003227511568625517,2.3622792039316494,32.86745,-1.841060072444665,10.322784982613225,1.1782990438033174,62.684139543381434,-4.1108225473735205,8.999591000000002,34.789999999999985,1
0.8632894232372988,0.15036201488792267,-0.23577613238776707,-0.09204434557199091,-0.0031148512642834004,2.3622716971503706,32.865974,-1.1996593088316077,7.156750473046065,3.6580907264736187,61.95418401252776,153.59142612516968,8.988078000000003,34.789999999999985,1
0.8598036476686932,0.1509902162558314,-0.236440520645627,0.06408549033783417,-0.0035525302221227975,2.360533435178887,32.87085,0.13881976457563217,7.368966613053539,-5.528022088469452,64.5357405061312,63.09685165894276,8.966331000000004,34.79000000000001,1
0.8651006420535942,0.16953151368960398,-0.22842913525478642,-0.013243877178688425,-0.0036063375419682435,2.3608795107872425,32.87058,1.8800010835977916,30.870983497607735,4.249303457704805,41.67909730730733,64.93988311643736,8.961214000000004,34.79000000000001,1
0.860030709641941,0.17099645371153027,-0.24032294776163743,-0.03801392563520798,-0.0033437641114255935,2.3588847764420655,32.869633,3.5904800017926477,70.8984021356809,10.292539548744527,-10.254439918670238,-39.47610519543011,8.610699000000002,34.790000000000006,1
0.854908145896044,0.14869228374049373,-0.2672736578059795,0.07271518534298774,-0.0030172013166620683,2.3603089217535747,32.870277,5.05800861178476,61.97297966225218,-2.9198492781348016,-12.390451867943494,-86.6171909619312,8.356127999999998,34.79,1
0.8517710221839208,0.16842996988741496,-0.2563588741926016,-0.04974337864582819,-0.0035165111147633255,2.3602377017506773,32.872684,6.29808695278103,71.9420108206603,2.056317490304659,1.93342111045653,-182.05128809726935,8.342118000000001,34.79000000000002,1
0.8577054636490707,0.17099026891986807,-0.24566185243926783,0.04397876997180672,-0.0035107002560047936,2.3639456956293716,32.87304,7.381487020941878,36.85981268545034,11.374367579184815,35.220411235270376,-136.72072004770163,8.548078999999998,34.79000000000002,1
0.8535912248177429,0.16835428258765486,-0.23862784561023306,0.02511589199030975,-0.003008411199513717,2.366997248802715,32.873264,7.947334144794596,0.815166734766599,-0.32232767978375704,65.18351741542989,-10.26829909194248,8.810325000000002,34.79000000000001,1
0.8607156142713915,0.18341248482167632,-0.22444505275959958,-0.0384581225218546,-0.0033917228342606556,2.367114702827198,32.874653,7.98419895969859,13.39011448139182,3.766231196312702,62.552317010665334,2.4350600272699965,8.337002000000005,34.79000000000001,1
0.8570010778083448,0.17483132667828452,-0.23911990979953313,0.07428128352919366,-0.0036745424274376185,2.365257850384432,32.876835,6.920324301927555,33.892777345812306,7.808480308477372,44.51296538053818,196.35786669371745,8.429107999999998,34.79000000000002,1
0.8524566547660153,0.15794614828980147,-0.2695036133409306,-0.07805831695782253,-0.003210552376998137,2.362707692699029,32.87697,3.5901489993225693,67.55890929073985,9.889743057428756,13.556830281537193,408.2764917885185,8.241058,34.79000000000002,1
0.8530676935127182,0.14774538660518036,-0.28068535261260014,-0.005486434069735167,-0.0030655682319567874,2.362601115925121,32.87839,-0.9359842699989185,55.06412008504106,2.723276587486058,24.33877947343795,-76.30852151948035,7.822742,34.789999999999985,1
0.8539834565700596,0.14555241993015888,-0.28045222745957116,0.05356381332616295,-0.0030157317665988792,2.363812944983301,32.877224,-5.104043094673581,57.38437852163706,2.531374040913589,37.241476625686616,-191.04649922508457,7.870495999999997,34.789999999999985,1
0.8508346817390988,0.14254497178707023,-0.2938571508887225,-0.06382483070239875,-0.0022174227803601573,2.3639251769337193,32.879948,-7.9186438554933956,31.72289170684195,12.522454685242032,52.26624125367909,-115.60541679591843,7.9945829999999996,34.78999999999999,1
0.8522323381110762,0.13694644068025635,-0.29079644909909896,0.0344857034466698,-0.0030090259141540765,2.358730235908384,32.880295,-9.536614509734974,59.66383251214238,0.7029397726479217,12.187731965300015,-420.12423899374886,8.213334999999997,34.78999999999999,1
0.8544863907760696,0.14021232787997362,-0.28746296780203495,0.05788358070121248,-0.0030877453594253877,2.3625746003326986,32.882942,-10.124960025864397,68.43379128622655,12.585318895236629,-13.243154239300848,-3.343744432163904,8.261947000000003,34.770000000000024,1
0.8485920990569358,0.13884779207740383,-0.2968943228546956,-0.0637097245494924,-0.00334243861273243,2.3613149703341896,32.88211,-9.69640135482646,58.170635302025026,11.675946066119767,-11.948385352888316,275.14308958642465,8.160886,34.770000000000024,1
0.8502556540648871,0.13930638645570992,-0.2923831704159099,-0.016797831359757456,-0.0023282636535665703,2.360060518869923,32.88106,-9.073899755455761,62.84806216109524,12.63649376160484,-9.916074291091215,276.42380135892427,8.192866999999998,34.77000000000002,1
0.8544471677980741,0.14168408325015103,-0.28665990124293034,0.07054161540663437,-0.002859330140997416,2.35966172113921,32.883533,-8.256379947144744,60.068178993039744,12.226436969418863,-8.756831982748158,-192.42954082832898,8.201822,34.77000000000002,1
0.8490149340784062,0.14154961962761098,-0.2944632591799412,-0.04977850575794463,-0.003349052103513187,2.358917004859655,32.885742,-6.963275486222657,62.40985768192999,12.73480544614905,-5.241211411499711,-512.0891777696681,8.209497,34.79000000000002,1
0.8486767983705887,0.14145193061197048,-0.2988514881894793,-0.029634030462382072,-0.0037845234655247144,2.3596877819403916,32.886448,-5.247255865587173,61.044577023533385,12.108990272546238,-5.521177011391762,-65.19873164859152,8.190309,34.79000000000002,1
0.849949146646535,0.14082563971314066,-0.29352316586329236,0.07521155409234159,-0.003029203560964206,2.3599373162682302,32.8884,-3.633896734683771,62.264037723536454,12.377476224713757,-4.661113716256973,247.9654066535532,8.203101000000002,34.79000000000002,1
0.850223460481869,0.14003562865013983,-0.29873332856318036,-0.0707649582206436,-0.002826784005076632,2.3584621238905754,32.88487,-2.1832237294953893,61.424517701685375,12.039147408778572,-5.236504865004913,190.10973724466942,8.189030000000002,34.79000000000002,1
0.8483711027828755,0.14133664171456448,-0.2966336589320969,-0.009788045414795036,-0.003303757803176219,2.358080855861857,32.887684,-0.8562003427198653,62.491700378947876,12.744389103561764,-4.641185932958747,14.765811802740071,8.191588000000001,34.79,1
0.8511222133709794,0.13919370091397318,-0.297376951559018,0.07455147763195827,-0.003325599117572737,2.3572660513486605,32.89091,0.008563403034123404,61.41105446219326,12.264439748250068,-5.250582300174826,-27.16823869546909,8.197983999999996,34.79,1
0.8483519931680441,0.14060067197164353,-0.2972128760110244,-0.06808901466725563,-0.003215556152427463,2.3574237752046607,32.891247,0.6655017663144942,62.09925505394783,12.598139294418415,-4.648738363833225,109.94133109711338,8.144256000000002,34.79000000000001,1
0.850483070126088,0.13967097937226958,-0.2987567599943536,0.0061149512055697864,-0.00297428917676976,2.356775802608034,32.890556,1.2152903777866786,61.75093123489226,12.504105928410938,-5.2103481259030024,0.5915906484330651,8.168560999999999,34.79000000000001,1
0.8488534537204215,0.13944848641449703,-0.29627684182375763,0.06606305054471778,-0.002854464109406152,2.3571105441120883,32.89097,1.5210100223700604,62.24487235231119,12.714805722190802,-4.802126605702763,4.491559881136257,8.173678000000004,34.76999999999999,1
0.8503749461476463,0.13999159616483284,-0.29901072482739277,-0.07443837960000324,-0.0031233750488746286,2.3567499375967547,32.890114,1.8819810064445368,61.7680927613097,12.465047836211838,-5.187545079032514,71.73685910430521,8.171119999999998,34.76999999999999,1
0.8481996534327675,0.1408672202435176,-0.29767970137889344,0.0020866649388838004,-0.003072549740034498,2.3570912006444122,32.893185,2.105916999101935,62.21816742289336,12.81163544515431,-4.821086258417324,-26.887761186950783,8.160886000000005,34.77000000000001,1
0.8506690414221526,0.13920305195637553,-0.2977025819889604,0.08203119955738293,-0.0034770837335749683,2.3560824051738467,32.891357,2.055119110623326,61.79470351854369,12.495994204683287,-5.171867037132549,3.052099567860046,8.162166,34.77000000000001,1
0.8482671244845172,0.14081813493395753,-0.29772083774736097,-0.050747044426936186,-0.0033373834771519614,2.356596147360559,32.89368,2.091372339857243,62.19365844792559,12.969576360288796,-4.833484231470015,57.16000985913045,8.150651999999997,34.789999999999985,1
0.8502447122848282,0.1402442852902806,-0.3006616027555176,0.0039046687678642904,-0.003042363396132892,2.354775687882643,32.89203,2.2277142195064563,61.81673810080677,12.439301790687422,-5.1631844652650996,-46.31763756892573,8.159607000000003,34.789999999999985,1
0.8487523171658719,0.14044279482805982,-0.2975373345602118,0.05740008465183287,-0.0028698558679596167,2.3562222997448066,32.89506,2.250173266414314,62.17400712605963,12.186824096464676,-4.837889604725591,-7.572578656459866,8.159607000000003,34.79,1
0.8511205932457447,0.1446757456566405,-0.2931180956512218,-0.08410105324598009,-0.0030969857575860126,2.3557892920550096,32.895794,2.5283506604721473,61.83423507988125,11.826990720358811,-5.153223967809192,45.1972613011977,8.162166000000003,34.79,1
0.8508919410519324,0.1481720800629196,-0.2863397278951473,0.02333001488382128,-0.00344424174423317,2.357315284298053,32.89381,3.41903316664073,62.15840275626442,12.181993189434275,-4.322965615256501,-41.05289097528924,8.154489999999997,34.78999999999999,1
0.8529436061371679,0.14920026216631563,-0.2802452132069328,0.02849086662052916,-0.0030477769138472642,2.3571962203574173,32.896313,4.555769579601439,61.84820827922291,11.791279624604279,-4.58599321569557,-16.185900562097213,8.155769000000001,34.78999999999999,1
0.8495494013331724,0.1529633591495054,-0.27990163039346516,-0.05980633170820367,-0.0036169631506684915,2.358021989492541,32.897194,5.613104770633514,62.14580490001483,11.737733293892601,-4.380041930573433,44.283015593139424,8.144256,34.79,1
0.8519099689992666,0.1523750844354058,-0.2840503880852153,0.0696356995332783,-0.0032668069088976973,2.356835184400665,32.8979,6.160776566689459,61.85968994057234,11.724701189238397,-4.425551503511725,-41.850272175704056,8.145534999999997,34.79,1
0.8490647643796142,0.15165200055215294,-0.2840086581195517,-0.00611436577641142,-0.002738547148398065,2.3567563181188604,32.898502,5.637387354721799,62.13515514358301,11.948188356211077,-4.499128921806135,-6.83666719345612,8.145535000000004,34.80999999999997,1
0.8515354203472949,0.15143803578560489,-0.2864659308160641,-0.04800165073308598,-0.0029552621341123737,2.3570125464132565,32.898457,4.236377850521354,61.869860335131214,11.893455513416246,-4.6847057862412385,27.98573084657591,8.149373000000008,34.80999999999997,1
0.8491246742367793,0.14887904712541042,-0.2870221457352531,0.06652965538603807,-0.0035151096057921614,2.356626830345311,32.901722,2.32380420524631,62.124951510383916,12.126616090538205,-4.715548256331076,-41.518660475896816,8.132741999999999,34.809999999999974,1
0.8508945478222502,0.14755074976278015,-0.2901464900962428,-0.059253219267732464,-0.0030122759148919127,2.3574254725529746,32.90325,0.6382171816228221,61.88099771222848,11.865733890920081,-4.89870672725242,8.01178279247474,8.119949999999996,34.809999999999974,1
0.8489792345914545,0.14827684756140067,-0.2921977557883074,-0.001057257226117741,-0.0031238513379009524,2.356127804672851,32.89949,-0.6850061009445052,62.110880584836515,12.138135965228388,-4.755274232106243,8.83094547971484,8.118670000000002,34.810000000000024,1
0.8502859252414593,0.14572426911011524,-0.29334582885104327,0.06109417405869375,-0.003009742212732867,2.355244239778131,32.902733,-1.7648365637439432,61.90448055455385,11.859647073461845,-5.066393831644333,-49.432074526291125,8.131462999999998,34.810000000000024,1
0.8477188853977207,0.1462371639353291,-0.29410280437932546,-0.07298684388358605,-0.003172619066151342,2.353933162394945,32.904354,-2.329856149879115,61.965480881581065,12.141701536065005,-4.835100293559737,36.07306703899386,8.105877999999997,34.81000000000002,1
0.8492103817009773,0.14531728491458434,-0.2977304659737424,0.02398281207304938,-0.003388076184476923,2.3527331734432937,32.90318,-2.5913601874851593,61.828285283402714,11.857456318629692,-4.7753470506992,-24.88617849691283,8.11995,34.81000000000002,1
0.848233284276853,0.14383775825370285,-0.2943019842041351,0.05513369744309454,-0.003450850797225691,2.354296661153659,32.905228,-2.744489451437446,62.210380267995156,12.143075644458376,-4.234017228577017,-26.16173225436054,8.123787999999994,34.790000000000035,1
0.8499637794076492,0.1431970897721714,-0.2971515291762714,-0.05420291032489135,-0.0032798263812087256,2.352589111301427,32.90535,-2.4886685010358267,61.835395905475096,11.856577398474926,-4.077521775719645,48.95926617548685,8.103318999999999,34.790000000000035,1
0.8478616578137932,0.1438717665450564,-0.2973311262913955,-0.0231224248017655,-0.003352978867165597,2.3519843144739387,32.906025,-2.074378285937474,62.15209697170605,12.143683862298063,-3.9675870847102996,-43.2234346689008,8.103319,34.79000000000003,1
0.8505922390202499,0.1425293903495851,-0.2963568812981051,0.07445633940747683,-0.00295452368955105,2.352131843859782,32.90579,-1.9670310672013949,61.85393955977329,11.856033808931668,-4.102172290845427,8.706299022134639,8.104599000000002,34.79000000000003,1
0.8472226926718031,0.14323682365692408,-0.2967557443949263,-0.004134444346123237,-0.003404006433547993,2.353277003391401,32.906696,-1.7357543195697687,62.14227621479057,12.144430623962307,-4.2242579366104716,53.945095827806426,8.096924,34.78999999999999,1
0.85027368072545,0.1430733427612171,-0.29675449694971984,-0.06372560526198634,-0.0034599308117193553,2.3524242746732185,32.90845,-1.2293784033637036,61.86086571385078,11.85459327501655,-4.389624687137074,-49.152902835890735,8.094364999999998,34.78999999999999,1
0.8491386149374136,0.14209565634644078,-0.29294744864067673,0.0335370881096133,-0.0034411564764885026,2.3519888903303015,32.912674,-0.9687017369450083,62.13532401463104,12.1478040726622,-4.482001869355851,5.8621672112594,8.080293000000001,34.79,1
0.8518219116448318,0.1408262815100708,-0.29446161323918435,0.06749210748396127,-0.0036322560647439016,2.3512202700601077,32.911232,-0.968864857783574,61.871457735009635,11.844524254264671,-4.597105945748409,60.28074288020518,8.080293000000001,34.79,1
0.8488901812818979,0.14004887440059072,-0.2957156449212882,-0.04445984877853921,-0.0030773431850905164,2.3519529969259816,32.91128,-0.9301463424835524,62.11137009585879,12.219084474634373,-4.541789989125461,-27.650838667701137,8.085410000000003,34.80999999999999,1
0.8509569813191612,0.14093713272342934,-0.2998769629602566,-0.05049231336347389,-0.0031787172927977628,2.3493823888735736,32.911884,-0.829111725670305,61.975928570165486,11.971230213050477,-4.881425400826942,-61.130669848351616,8.076454999999997,34.80999999999998,1
0.8480519737531063,0.14118957225461004,-0.29905161239605116,0.058340433770148636,-0.0022970348644140316,2.3509860199583996,32.911865,-0.6902724007152721,62.21507865850256,12.231857784683621,-2.0193721548955184,52.776929803984785,8.087969000000005,34.81,1
0.849728025308035,0.14707672223539356,-0.2961503269910446,0.016836858906197447,-0.0034609999270937804,2.349817528387446,32.909935,-0.0876372364799664,61.80217093881516,11.525211531819812,-0.13956137184579473,49.06486085624953,8.072617999999999,34.809999999999995,1
0.844614071454684,0.1499255400325061,-0.2995033364684224,-0.07809402479494759,-0.0033029185793890096,2.3513695440451485,32.91376,1.4979851964766486,62.40447646447106,11.887018201244656,-1.6880910746237925,-53.01007100390241,8.072618000000004,34.79000000000001,1
0.848440417928177,0.15053635906711257,-0.2903500766720068,0.05716213813317395,-0.0031023959417570478,2.3493440736809776,32.911358,3.2340613112919363,62.098263580797976,11.005456982321165,-1.9487984779170793,-32.359656574501756,8.057265999999997,34.790000000000006,1
0.8455757891656093,0.15448287102722097,-0.29271972099483384,0.029009294583000843,-0.0035491565045565145,2.349863098143553,32.917755,4.756891530382459,62.34741307428206,11.118847847616761,-1.5325904223805409,63.48637097757689,8.070059000000002,34.79000000000002,1
0.8491982128525852,0.14820146693845734,-0.2987808835298951,-0.06631354134923868,-0.003240005989443075,2.3483586386843123,32.917347,5.046470353524613,62.106010433985816,10.942533873928339,-1.4280712507934783,-19.937886810468218,8.063663,34.79000000000002,1
0.8462451423758082,0.14748856414983563,-0.2993959856605808,0.05533348331965857,-0.003600520341744231,2.3489431688669136,32.919525,3.458409711471393,62.45053495392142,11.543887900572148,-0.8536938956578537,-97.99816776883341,8.062384000000007,34.79,1
0.8496250986780354,0.14465614703859608,-0.29853956480385524,-0.014898944757899617,-0.0026280191126068055,2.348019635616247,32.917618,1.1400034623728001,61.89662817231922,11.996411273279424,-0.995997303460355,49.8908850540628,8.049591000000003,34.79,1
0.8458118907498684,0.14363493189306858,-0.3021283423239985,-0.054430791246877795,-0.002984485938050632,2.3493019426797765,32.92048,-0.746451130846326,62.45477968646359,12.033120108006798,-0.9145346316471682,76.95867824715845,8.052150000000003,34.79000000000001,1
0.8493260058575061,0.14201562670980794,-0.3028447754178897,0.09117013634548202,-0.0027088149203395528,2.35003078563389,32.920933,-1.9758420591416068,61.63422241862802,11.964376851430679,-0.9210812386196191,-44.750513239013095,8.045753,34.790000000000006,1
0.8458723619653101,0.14211949696518428,-0.30191443650449495,-0.025363804783449774,-0.0030304050415864816,2.3513439363429423,32.919678,-2.596542708120161,62.44960335156681,12.02214304323692,-1.144768083573909,26.841446538641424,8.038077000000001,34.769999999999996,1
0.8493010565576844,0.1425424982376447,-0.3013071346663092,-0.02055558269603354,-0.004011467805232109,2.349740158593965,32.91868,-2.646884490870256,61.84203727036667,11.725687842524458,0.22923389073476727,-11.331018253928923,8.034240000000004,34.769999999999996,1
0.8477840544105093,0.1423754845200162,-0.2980052579685776,0.0692725425499313,-0.0028252893172017735,2.35018856380806,32.92053,-2.5557374305103058,62.33097430734578,12.009589591492121,0.45405471175455114,-81.91446255349882,8.026565,34.769999999999996,1
0.8495420016085847,0.1422127682920946,-0.29842077540719447,-0.06251950344348031,-0.003415250956234399,2.348772614345376,32.923416,-2.216864591186717,61.79843317203584,11.86065596365966,0.3182669381270192,23.257650423240477,8.029122999999997,34.769999999999996,1
0.8477907908163351,0.14320327511018813,-0.2968607816380052,-0.028228651683198297,-0.0027355263451669066,2.3492542136033445,32.9233,-1.7593242040991206,62.52907636638984,12.02835816627875,0.19005536321637737,-6.829394359208746,8.018889000000003,34.79,1
0.8511350746259378,0.14137484850588028,-0.29577217204663503,0.06534196765463064,-0.003257860734266397,2.348130167839001,32.92433,-1.3509277449808292,61.447940984379635,12.00794023646241,0.2811417186212873,-23.18228260359167,8.034240000000002,34.79,1
0.8478184779791174,0.14232271537048824,-0.2964432906399043,-0.06480669683033134,-0.0026287565671900873,2.3489744172786087,32.92115,-0.9519151537746415,62.63000507633562,11.952252824595337,0.31767827012082267,69.67379036971982,8.015050999999998,34.79,1
0.8510940275612956,0.14222041976549452,-0.2975384796737252,-0.014661602048435505,-0.0030897923391768702,2.347178155462832,32.92755,-0.6184464141116057,61.26558760864657,12.106744654154934,-0.09401206509890853,-25.721079708418863,8.016331,34.79,1
0.8487210958747476,0.1425375595281827,-0.29650293032328434,0.07709468430039272,-0.0030349459259666014,2.3498837189932362,32.92511,-0.4390638986135409,63.03259454827493,11.656231924700569,0.38495997301886525,-14.029574579309276,7.986907999999998,34.81000000000002,1
0.8514050918588308,0.14682516526534534,-0.2942993694602952,-0.04380711211844595,-0.0029762472471565817,2.349654446258723,32.926846,0.10729043630719777,60.845473915873164,11.349861401262574,0.6862076854094059,59.080717733635865,8.012493,34.81000000000002,1
0.8480371653815181,0.15092257457745487,-0.29012226640635697,-0.020642953993205645,-0.003216528424338203,2.348943179404273,32.928825,1.2896254771989348,63.706118532260824,10.636585525216429,1.22298996959014,-34.33465857836055,8.003538000000002,34.81000000000001,1
0.8514006920241626,0.15538483781875997,-0.2852854750866121,0.06612713886594677,-0.0034725071570624834,2.349409867855213,32.928005,3.0131905500538747,60.2286720472076,11.625315534660151,1.494703058652382,-16.37169967393296,7.994583,34.81000000000001,1
0.8465865754988076,0.15505983879707635,-0.2820185825074969,-0.05514936650728763,-0.003593048269978161,2.3490621024186558,32.92929,4.95390016069278,67.43414732961607,8.918468428326516,4.3911820031485,62.09919805058901,7.992025000000001,34.81,1
0.8492296191471187,0.1618667251712118,-0.2864468860475957,-0.02743282398880021,-0.003123472827137177,2.3470339387476082,32.929394,6.4115169893064365,60.0480642941573,8.769704836360258,27.643504474727884,-39.92644363053365,7.995862,34.81,1
0.8524544651306815,0.14812968661859613,-0.2847598030794052,0.08296054352896917,-0.003044940518193044,2.346333333718694,32.92963,6.118354895200153,36.80863640730169,12.810427529783345,32.353520676308804,-26.219828447694024,8.151931000000006,34.81000000000001,1
0.8472862688279721,0.15685003907410963,-0.2938059543923841,-0.03651844803396269,-0.0033158346365077737,2.3470592748413917,32.931473,3.698533114155868,69.46580632658312,10.132865178596457,15.006423719555372,72.43747068775848,8.139138000000003,34.81000000000001,1
0.8461926444865537,0.15137496563085762,-0.2936011624825535,0.011111865358827612,-0.0032845007757896444,2.347580462928789,32.931023,0.8944417830716156,56.798991195581124,15.274090151791826,6.710664220529965,47.96337357560649,8.186470999999996,34.789999999999985,1
0.8512135895834211,0.14456545703628612,-0.28986003522368153,0.07019249081309319,-0.0032628304796787893,2.3475297578360728,32.93258,-1.2193401204531162,63.79839971491377,13.035894612904816,6.090113515009487,51.96915978531982,8.246595000000001,34.789999999999985,1
0.852538472521423,0.15178442946628906,-0.2771252084945741,-0.06475274413360761,-0.002748621559324146,2.3472374133346965,32.93604,-2.563435037721607,59.99734073582108,12.460112497282692,8.73711652943525,-97.90853122842108,8.264505000000003,34.790000000000006,1
0.8520808471939298,0.14919735698410458,-0.2839216179808956,-0.011927052316941512,-0.002838362840631686,2.3454046588054376,32.930565,-3.0608883068627977,63.13838970755414,3.3819043087288407,6.419234803692504,-129.93020495903815,8.127624999999998,34.790000000000006,1
0.8493517823419323,0.15500669487019214,-0.285527974603351,0.0563052248037511,-0.0033352777215891064,2.3457095879207257,32.93308,-3.6360422993479897,49.09975411611074,5.881724173062635,23.742860747181474,31.973064816316104,8.110995000000003,34.79,1
0.8457254220264618,0.14004688174490385,-0.30753479775618864,-0.06865843277028773,-0.0025322739900917016,2.345533879116954,32.935375,-4.104826244966434,35.64545360988077,-19.44377923792067,52.438008134453355,43.89759657085178,8.167282000000002,34.79,1
0.8486690537268776,0.14405366734711603,-0.29679043130991534,-0.024594612159263417,-0.003124701670077537,2.3458475297984385,32.934258,-4.201684505931314,36.88566802103945,-37.746125762769275,40.80306539804673,41.678771980309676,8.200542000000008,34.79000000000001,1
0.8518910822298379,0.15211459127847557,-0.2883368214917868,0.08460720378932324,-0.003307951655282756,2.3448730946845915,32.933628,-4.004421395999968,31.0789913661997,-32.975597249922295,44.062940677407624,-34.568943258960836,8.195426,34.79000000000001,1
0.8439056635476739,0.1467259300415611,-0.3073607366270058,-0.02704790989585485,-0.003400366796713107,2.3451867713118832,32.937202,-3.6536248393788973,34.98832544961141,-29.637825496654365,41.34850903549271,103.84699852281086,8.200542000000008,34.790000000000006,1
0.8479697291472741,0.14875477296402986,-0.2993300711351123,-0.05276407857252259,-0.0031296130610011953,2.3450375502188656,32.935913,-3.1954376137071425,35.246257508961676,-30.36097213346729,43.17719871219728,94.09035345320115,8.190309000000001,34.790000000000006,1
0.8468700818871185,0.1554781400630147,-0.29435405360756284,0.07078240791338912,-0.003231682807819393,2.34555048384881,32.936096,-2.2252561426249713,34.51970359794931,-30.737070708230505,41.04622446800006,-160.01090718349676,8.192867000000003,34.79000000000002,1
0.8497521093009857,0.1569706104075827,-0.282671781273009,-0.010200560254804055,-0.002861813897362525,2.343907121746424,32.930107,-0.4014897675552591,34.79870972024342,-31.38795266394281,42.77268963021474,-70.86906934096307,8.201822000000002,34.79000000000002,1
0.8470575396609513,0.16247213314891917,-0.2782077447160046,-0.048124867406384685,-0.002726423823435825,2.346247862803861,32.93476,2.1354618455115912,33.952931333879064,-30.81741235982062,40.78723385553381,-39.90256236825469,8.197984000000003,34.79,1
0.852612003485726,0.15973033397404635,-0.27326985590968744,0.06503859711327589,-0.003204173381373672,2.343235433037244,32.934845,3.9448359328192497,35.28438135436548,-31.624307659943135,42.67843472678903,-33.27252659798468,8.183911999999998,34.79,1
0.8556789605308571,0.15527927154318752,-0.26592286091872785,-0.012354449095551435,-0.002447468187350222,2.342562428723683,32.935467,3.8275061530061487,34.6917466415456,-30.641273830555942,40.86450897702848,37.270499138897826,8.185192000000002,34.79,1
0.8582147228854651,0.15472501861985816,-0.24780762638116233,-0.046653751227707284,-0.0029954614314930236,2.3410571810464127,32.934303,2.3680786957642783,36.1914032674734,-31.744594931066604,41.94957913839796,15.1303945086555,8.192867,34.79,1
0.8723516176843462,0.1420950958600885,-0.2012392230981578,0.08617527477024098,-0.003365744880853822,2.339361368109182,32.935364,0.75227932975695,37.72873794455532,-26.960969725047192,40.82184784234801,-7.843040685410613,8.199264000000005,34.79000000000001,1
0.8988460393017645,0.11951822334657093,-0.14706775253692492,-0.030433021260091297,-0.003580514413582329,2.343047904777715,32.93644,-1.7472898777338655,31.65970592277189,-26.229877825790933,48.49547408246779,20.659635360537514,8.209497,34.79000000000001,1
0.8992873030077999,0.07580848870211335,-0.09533679644950466,0.014944457209563082,-0.0030733590717524698,2.3695155884342083,32.93626,-6.787582636663187,20.10022509106062,-22.574607781465456,51.180434309026715,18.396372992426745,8.215893999999999,34.790000000000006,1
0.910893655512223,-0.05054679387636533,-0.024765116131673988,0.0971841366874602,-0.00261722803753389,2.340488828728725,32.935783,-12.119186972387519,28.257615850892353,-16.378453745452692,56.15584933563658,-19.203736591430644,8.228685999999996,34.790000000000006,1
0.9136112969116076,-0.13694559311260007,-0.10923329948234414,-0.07056516166986297,-0.0029948953229604314,2.3247429791814396,32.934143,-12.956820573983666,27.69150054383037,-10.545974625322318,54.59551600947348,33.1113783044883,8.246595000000006,34.810000000000024,1
0.89891751387684,-0.13489711812699817,-0.21049915691054097,-0.020704940461166874,-0.0028162927033104335,2.3413164059418667,32.941753,-10.950070378372168,27.396875588241624,-8.66937904536123,53.79779535984088,22.279921080681707,8.255549999999998,34.810000000000024,1
0.8884607536195955,-0.10190037010995376,-0.21050538019331952,-0.02169627468675763,-0.0031598154669091358,2.342440288149989,32.940186,-7.111396093227391,26.129298067095636,-13.861933021792298,54.51811114948544,11.6918691683257,8.199264,34.81000000000002,1
0.8947101355763245,-0.04906395410158585,-0.22722940587147888,-0.09116814669229936,-0.002726678110010641,2.342214406132854,32.93924,-0.8978687574663695,34.47453516747333,-18.65477705358031,55.23250615729147,15.331472914849265,8.218452000000003,34.81000000000002,1
0.886278793902368,-0.03397509039053151,-0.22381648606005006,0.03696526387037161,-0.003131986190758645,2.3409915490229265,32.94038,4.475519665759135,22.10560061955588,-16.44075460248716,45.78170357090042,5.839151325911572,8.218452,34.790000000000006,1
0.8973207250955091,-0.022027873597068447,-0.19931651090017896,-0.0276907496354529,-0.002854293081901873,2.339541551284377,32.94218,8.659824694575864,60.32945505959326,-26.021212562374117,10.882946746688345,-2.7324257968529095,8.241478999999996,34.790000000000006,1
0.892073872667535,0.051214810052866634,-0.20606443722180687,0.035942812373696835,-0.002953868126831158,2.338741223199454,32.94331,11.580451555771306,59.585584775771814,-20.45677273254424,-22.79257441724627,11.530533229283556,8.167282000000005,34.79000000000002,1
0.8977623580661264,-0.016115536202030486,-0.22866276082089707,0.08672519083313511,-0.003412005670683442,2.339840451862253,32.942345,12.15011146634697,56.89428544332099,-23.464765909027154,-4.6240964642011635,-34.70466759099223,8.181354000000004,34.79000000000002,1
0.878339176035448,-0.010586025007534207,-0.24582525245028083,-0.043964630839264815,-0.003435470779531627,2.340540304464081,32.946125,10.154599352430333,59.56122861768175,-20.77027132994187,-3.865173228800684,-8.096594481903898,8.158327000000007,34.789999999999985,1
0.8890086323235351,-0.010909153518879283,-0.250253583927787,0.0693875024222071,-0.0031394406401330306,2.339797508129924,32.9419,6.6569669163356,58.650769754735094,-23.349538353159183,-3.409945331170696,-110.24665023772687,8.183912,34.789999999999985,1
0.884216092943241,-0.0021131309556865654,-0.2375335912333244,-0.05229251616837994,-0.00313756539652146,2.3381829799904823,32.946243,3.4433649039814576,58.942395066975294,-20.09421804098866,-5.641396020346842,-123.45324839702819,8.180075000000002,34.79,1
0.8879949996509695,-0.006692352057456816,-0.25287928227619355,-0.04635488769788833,-0.0032578531389750825,2.336098732470902,32.94688,1.4890134900477496,66.35826727821822,-27.386216117631186,3.5587292487919044,191.11424707697955,8.169840999999996,34.79,1
0.8811402859883081,-0.0020090443079729056,-0.24948624825560936,0.04547003601033258,-0.0033864183576967142,2.3379612262748597,32.946728,0.30823200145724344,46.61605709004319,-16.917652793111632,45.08168743058866,-141.39722070285967,8.172400000000003,34.79,1
0.8856278956869975,-0.007844845354811777,-0.2697756673767799,-0.07039185047111905,-0.002938493773558971,2.3359363638539143,32.948746,-0.33504939776307036,33.251095361290574,26.37081298183926,35.25651899767126,-26.024970663510214,8.199264,34.79,1
0.8680390197313796,-0.010449840376967763,-0.29377310701101705,0.010285994771088599,-0.0029577080931555877,2.3361066730186155,32.949158,-0.9701948765155849,14.163658291675688,12.29262122016112,56.86151826650572,73.98976559500919,8.191588,34.79000000000001,1
0.8781782137723787,0.008935891633081635,-0.2779255874800196,0.04990343938300725,-0.0028338220223588823,2.3350021349029344,32.949192,-1.6570443762981355,17.999471662686556,15.642628902992888,61.383015753724855,-46.865171519438746,8.209497,34.79000000000001,1
0.8746800135580036,-0.00047330794089393456,-0.2836470331146397,-0.06704114222489245,-0.003004330344218243,2.3339899927278096,32.950584,-1.2152509470531685,19.257032774591522,17.816514151918177,54.803818798098504,105.69307844111295,8.244038000000002,34.79,1
0.8805455880695535,0.002331087924070446,-0.27956524899384505,0.02849529179307261,-0.003153143151344532,2.3334600956418865,32.949356,0.5296373716882077,35.551517263023534,15.481706804110548,52.150940893226114,212.80036232744055,8.233803,34.79,1
0.8746558380532227,-0.00015240735047016352,-0.270776636859923,0.02750091417371444,-0.00339304118035621,2.333916234893537,32.951935,3.100364420168519,42.95971132563604,17.440428990045465,43.041085517804554,104.0158023516326,8.204379999999999,34.79000000000001,1
0.8837560988722442,0.002860637443238217,-0.2651579633640543,-0.03319714039233444,-0.003493051120403972,2.3333628535639113,32.953827,5.840782508287249,27.38170080009283,14.421884721328015,54.65443158872983,-39.66415144016772,8.181354,34.79000000000001,1
0.8773453176390251,0.004022609885611932,-0.2615281792457892,0.102235554343426,-0.002947396516590116,2.3343814156145126,32.953297,7.486618178647764,28.46212819431201,16.507095159718286,53.41380426410356,-58.22452931499262,8.196704999999998,34.78999999999999,1
0.8829331881085691,-0.00133590903944984,-0.2635702915363403,-0.0140546358802583,-0.0029366167194120017,2.3337772420566205,32.95209,7.938723328732673,26.018188050117733,14.448509321608427,56.24652344984157,-49.60555657487529,8.191587999999996,34.78999999999999,1
0.8751397766668504,8.708811554672367e-05,-0.2720732347943219,-0.032239523625520385,-0.0031788200531052014,2.3324264949955755,32.95551,6.920241449761921,25.984322321627825,16.037656997299564,54.86261351514555,29.199356278698986,8.187749999999996,34.79,1
0.8824423017425831,-0.003688653710815444,-0.2745791544516161,0.05909413818215168,-0.0032152611375286153,2.3330646931685264,32.954292,4.649686406564325,21.59152582100238,13.973544811132687,58.225216484630764,23.2265168594324,8.174956999999994,34.79,1
0.8742262269423166,-0.002055629654643197,-0.27474930702043693,-0.07365652478699079,-0.003397501928060773,2.3334351323176836,32.954826,1.8505493647146192,24.50374287236015,16.06577274085837,55.165690157543814,-140.1889652649458,8.192867,34.77000000000002,1
0.8808515237892179,-0.004599796695902913,-0.278344495321356,0.006119655235628715,-0.0036836012357286713,2.331690090334705,32.960037,-0.2587719879242077,20.43748244317746,13.854202021531146,59.0233437675672,-118.0227334980228,8.191588000000001,34.77000000000002,1
0.8721594334378875,-0.002955909464524935,-0.28066046139635664,0.009310195676828474,-0.002943662141815417,2.3322281394607485,32.959404,-1.8276685850966565,24.041865099497354,16.308554461122846,54.93938002577418,-13.759384916577764,8.199264,34.77000000000001,1
0.8791084690196846,-0.009065822456456877,-0.2897729442788452,-0.05412368330163275,-0.0028955717147235607,2.3327693810168504,32.961845,-3.056261883505557,17.05520065163525,13.761278786029003,61.541013998446616,50.08345213972276,8.187749999999998,34.77000000000001,1
0.8688124054035492,-0.0033073479011830266,-0.29536256469293715,0.0701498200453547,-0.0032541624713093896,2.3329428172964897,32.96084,-4.238898941767373,16.04724355999807,17.839200231372544,56.77931034388359,14.867027273003957,8.20566,34.790000000000006,1
0.8752969260481542,-0.01828054763960753,-0.2967062393104236,-0.0370169243641025,-0.0033331308396648157,2.332461260394297,32.962006,-4.751372620983218,4.369328332328705,13.339318052007052,64.91232855277109,9.471801136209177,8.222289999999997,34.790000000000006,1
0.8639447799782777,-0.03159332411976296,-0.312561077409533,0.00504515875505994,-0.0031808996064532965,2.332838313773668,32.964184,-4.6075496018330995,33.69303185471249,26.182414663763716,42.10354518831863,32.776242094580276,8.209496999999997,34.79,1
0.8727593700704295,-0.0444485500336859,-0.32423616035683817,0.07016976914897834,-0.0031290769869644105,2.332156480380501,32.96665,-4.491419290875159,40.28894983230413,46.33978937978824,-9.966249135446937,36.775207246088414,8.187750000000003,34.79,1
0.8469338932699662,-0.07915097066183825,-0.3536874820637839,-0.07571995420237441,-0.0026521390265098173,2.3343618817279874,32.96419,-5.286232687216822,25.290353243995987,53.78546918352823,-7.361349528186274,84.60005280998897,8.040635999999997,34.789999999999985,1
0.8587414089451041,-0.10198755442630826,-0.3609890918587845,0.032478483863556486,-0.0033883317999926802,2.332973312956204,32.9671,-6.0829860738248485,31.942981472523105,54.53705717795109,-13.779293622829938,13.948360168316432,8.113554,34.789999999999985,1
0.837331515610262,-0.13222417072390477,-0.3829279501900835,-0.019528316985022828,-0.0031233959763067067,2.3347683335356892,32.96766,-6.116877254880076,26.053262374606742,56.71097654910997,-11.01766425614342,-116.70287041844135,8.087969000000001,34.78999999999999,1
0.8510583927203517,-0.16192347078732977,-0.36901389033283155,-0.01933193550763036,-0.003170305271851701,2.334472543023944,32.96677,-5.3002726758166965,28.787283744984524,55.50555882692935,-14.56202226344846,-182.7451808996864,8.073896000000001,34.78999999999999,1
0.8395753938783673,-0.13290286397587162,-0.36476524141552263,0.08882020329421879,-0.002976581641185812,2.336347975404726,32.971653,-4.1805819246889335,25.824123858989843,55.77558806099733,-12.021245213334286,1.1066986989585759,8.067500000000004,34.76999999999999,1
0.8603511531408436,-0.11836975678085375,-0.36285291834299466,-0.052690791950920066,-0.0034803893042715745,2.334037267662171,32.968647,-3.0094108782744518,30.385242950265678,54.16722655204098,-14.880644776495046,24.145477260083123,8.085410000000001,34.76999999999999,1
0.8403363004915996,-0.1240095511196056,-0.3577898261516703,0.033235641581386144,-0.002961702033450196,2.336265903092228,32.971714,-1.9761150265413598,28.79339545769904,51.7742298884326,-12.206639395849905,62.28335264119516,8.061105000000008,34.77,1
0.8926899433157349,-0.11889137688100099,-0.2976393378401372,0.004043985175349592,-0.0033048125614678703,2.3304019668431315,32.972713,-1.1981306902047653,55.05926578882275,24.293567040758845,-4.003675451462688,-0.900734655357549,8.059825000000002,34.77,1
0.8809200838703404,-0.06523009214823884,-0.18009622491040286,-0.07271474551516567,-0.0030891577669487453,2.3809457457431,32.975147,-2.96988761443188,36.75879156643116,-10.80996177096738,53.04616436051619,64.3563619829255,7.985629000000002,34.789999999999985,1
0.9202935140713097,-0.015726251397066193,-0.08754789031792098,-0.019332796473449123,-0.0038603377340310566,2.37883127967797,32.97627,-6.260053563361186,24.522413611299992,-37.574109986156714,48.701069824342774,12.425290880781361,8.080293000000001,34.789999999999985,1
0.901025559934135,0.03760876230910604,0.027986700859813668,-0.013752608393971615,-0.003235476651077922,2.3564941194512667,32.9726,-5.8172071884243275,19.60715511390407,-51.476528524048994,26.111165022615722,-54.365398036227816,8.185192000000002,34.79,1
0.9726403529751831,0.03679057344030276,0.1482225625039338,0.01774957194144452,-0.0031016517955636484,2.3488186123067774,32.977154,-1.9181758890357796,15.54609244239799,-54.6404843083057,29.47311397103679,-53.11337270598312,7.986908000000001,34.79,1
0.7741124507263888,0.013921579844205959,0.24191450003369272,0.07514873118299055,-0.003093523199048095,2.3429164155088285,32.977455,2.367155788699428,13.232793465579704,-57.66210349462918,18.533657129012987,-80.14187468261098,7.827001000000001,34.77000000000001,1
0.8686061105307137,0.016183687270364264,0.226602121302758,-0.05169083692896759,-0.003182244845947636,2.3410652693547997,32.97477,5.8937368112469875,18.497491580003338,-50.3909179834847,36.604508553938345,136.1124280626261,7.919107000000002,34.77,1
0.9810001778456493,0.03497333455792802,0.21791239689783493,0.05634875332874123,-0.002935492650957343,2.3524260935212387,32.980446,7.614234418795287,28.999022401286968,-21.870412206156526,43.95777230434615,69.9729863911811,7.885846999999999,34.77000000000002,1
0.8734992786077272,-0.007286629018887928,0.007528389801709281,0.015215507218351708,-0.0025987456428409814,2.3507860862693803,32.976852,5.974184423418328,11.39200909607609,-44.44831252651423,48.745613683031785,-96.50132389214107,8.035520000000002,34.77000000000002,1
0.9103441618316216,0.025603319000463656,-0.12499130778798946,0.021322152283820135,-0.0032075252211798654,2.350240146324479,32.97747,2.838818790883671,15.874165966161842,-28.295025766433643,57.12727052804287,95.65484693358843,8.172400000000005,34.77,1
0.8794919670768659,0.051363320342805614,-0.11300732303259883,-0.04451539227231564,-0.0029793837645038313,2.366067131711332,32.97885,0.7478133024051642,20.537803022928824,-23.957209444588816,52.46006123553284,66.03986471302035,8.200542000000006,34.77,1
0.9480381981726128,0.07668487591134647,0.14542428895904877,0.03810280298484396,-0.002954996478760601,2.3663018914579284,32.978756,-0.550480631649996,19.201324002419398,-30.18426832779195,53.06349384453151,223.05027311283723,8.217173000000004,34.77000000000001,1
0.8838427468706282,0.08723079332642945,0.10891072311753697,0.015835004913586356,-0.0030892608504790426,2.3500925853622014,32.976173,-1.5790990769951005,22.182000614086256,-33.977109575880625,48.31777835245198,-27.22817658969753,8.200541999999999,34.77000000000001,1
0.9051692213485489,0.05387501843830041,-0.1572996939696832,-0.11377954550081557,-0.003173794109502792,2.353320332770864,32.97673,-2.1517447233377838,22.88600520755817,-23.506611336513593,51.54048765724352,-272.4984283037288,8.197984000000003,34.79,1
0.8659649921479057,0.06819233193383657,-0.16568421731877467,0.04696941548302142,-0.0028421267272161774,2.358304352006721,32.979378,-0.4877829843284846,21.33448239655555,-23.000102394048696,52.917462027433615,20.69186702048197,8.176237000000004,34.79,1
0.9107563135545637,0.14472442550221915,-0.05116806241540727,-0.020627238100318353,-0.0028365544700931227,2.356080961391548,32.97613,3.277779132802733,14.661752467892608,-34.32063779745912,49.90895927556395,-8.67430170442408,8.190309,34.79,1
0.8760200330319893,0.19744404364801343,-0.09376312032195017,0.022588694491879516,-0.002838769716228852,2.3504149537766317,32.977192,6.485409120425401,14.473697108240293,-31.315887192792964,51.257738444767085,1.6909796539687303,8.167282000000002,34.79,1
0.8812282366430325,0.16356609270246467,-0.1041063426042181,0.034416222003165776,-0.0032628661019330455,2.348354178150573,32.977707,9.582196550913146,20.90955519371549,-28.901010264336655,50.868134931220936,-33.09368141071429,8.17112,34.79,1
0.8808198180666514,0.14919778334933387,-0.10785163042548408,-0.04314290189925999,-0.0028428750832246628,2.3461877400534252,32.976578,12.287463189187799,22.039543403474276,-33.41239442585776,49.92703619302598,3.627104544842014,8.182633000000003,34.79,1
0.8956418748943453,0.15480507898681212,-0.0730165838335289,0.06802912047542742,-0.0031546376455481796,2.3444905781706313,32.97446,12.624435761238574,20.81472164641652,-28.131336040147964,48.61216670733047,12.857784358370564,8.168561000000002,34.78999999999999,1
0.8808902058559576,0.15110133991886357,-0.07110468297483477,-0.0926794143946403,-0.003372999598730974,2.3431560385336927,32.976196,9.142454261414034,22.229268133101204,-46.19624133802862,55.802528507229255,-24.675254790503136,8.176237,34.78999999999999,1
0.8988228042064403,0.16557619867495157,-0.055159226557977906,0.012609309964828373,-0.0027895055403967675,2.3402928701393946,32.977802,4.462172663298742,16.829151436724587,-19.56694853144978,57.891311459216155,-0.08944656746824668,8.177516000000002,34.77,1
0.8797173561393523,0.14749741534521219,-0.0939694381520343,0.03636162094659133,-0.0037537413377253495,2.338126941140416,32.98013,0.6204281608554253,30.074791150070496,21.749432723809022,32.42574188876267,-33.03447057534199,8.194146000000002,34.77,1
0.8891976695306099,0.13126324254721944,-0.11207101950585106,-0.023322750016136453,-0.0034214483756006392,2.339521252525743,32.97897,-2.7120953907463288,20.87507581112611,-3.5466332550203736,64.49501987573805,21.36064031399078,8.178795999999998,34.77000000000002,1
0.8853090565380117,0.16419871006535303,-0.08180984550924675,0.10895303828489437,-0.0031449277048922605,2.341133409283642,32.975903,-5.280746709109487,19.207808826355997,7.009763708832098,60.28003613704912,6.488402959571436,8.221011,34.77000000000002,1
0.89029874713604,0.15482372931791583,-0.08529606150822995,-0.07702507489514172,-0.0030501932265455884,2.341456503645741,32.98069,-6.236414138900025,17.898267871507997,0.9355558971774409,61.2403474258764,62.47422614709053,8.283694000000004,34.77,1
0.8827718811357972,0.16274456171564736,-0.08253386788016383,0.007638660952825416,-0.003632569193344651,2.3402274412207458,32.97835,-6.284300984570533,19.85398013726433,6.510439204232824,59.41384977868122,44.18806344925065,8.291368999999998,34.77,1
0.8905195829159704,0.15499484798429072,-0.08359059665329988,0.04530147803094843,-0.0032829278749597415,2.3395386367658166,32.982388,-5.861711007630959,24.38174342915076,5.296262046616726,57.823472057186486,5.347696163353677,8.276018,34.77000000000002,1
0.8857609385944242,0.15104979556991602,-0.08098474356042516,-0.08326641569001365,-0.003410846265449426,2.3386265290970383,32.979755,-5.322998174683706,20.832594675494423,6.461206579766931,58.67084368243972,-53.1754261892723,8.256830000000003,34.77000000000002,1
0.8907533716241405,0.1530275271210855,-0.08629418162118122,0.03958498047484916,-0.003376521303271471,2.337643694716038,32.979465,-4.733128608488482,18.04896831772523,4.727166443652713,60.6937041149007,-73.22154913957387,8.25555,34.750000000000014,1
0.8826867504882827,0.15325468699120007,-0.09027357052475729,0.016671058520645175,-0.0035116628038001905,2.3384652218337996,32.979748,-3.9917950178753334,18.457979362541035,5.213767841500207,59.70577147936749,-25.35004741960017,8.260668000000003,34.75000000000001,1
0.8910691664303315,0.15262932396613269,-0.08796541729212747,-0.0798456099397864,-0.0027884731236920784,2.3388916868536618,32.980556,-3.0586753505803568,16.637437907806696,4.959274753210156,60.30433984352556,13.747551629923604,8.246595000000001,34.75000000000002,1
0.884800140113977,0.1527460429294593,-0.09085445444027355,0.061765340481556706,-0.0032821430912995707,2.338704902490942,32.979126,-2.3509386669542396,27.93165072943598,4.1507873344032635,55.64280933289626,22.029760061298244,8.233803,34.75000000000002,1
0.8879796787457122,0.15911640801249247,-0.09466721219220935,-0.0156335185213662,-0.003136355545503006,2.338197868418253,32.982872,-1.6473906271112073,47.702717957393425,6.0041822736205885,36.643754756170416,13.325064062022816,8.224849000000003,34.769999999999996,1
0.8815252059216078,0.15960084477359526,-0.10065066134965298,-0.062144002651717864,-0.0030083380686971514,2.3357877550705384,32.98309,-0.2533275174070853,61.27197005224761,7.334687564535401,18.206257454691666,8.465362005221001,8.190309000000001,34.769999999999996,1
0.8854124744451545,0.16078054068901412,-0.09288495133234424,0.07923420292367338,-0.0032977454030454208,2.337047372982434,32.984287,1.6292842900354354,59.5434302189334,3.783627491660022,17.631499502071406,-20.697147265079703,7.988186999999997,34.77000000000001,1
0.879478619280852,0.17527170331656514,-0.10091582184113256,-0.0387450000189266,-0.003410692412395603,2.335256493684212,32.97985,3.298520518743251,64.10024076349531,13.919271662664032,-5.381814406993172,-17.299013408133916,7.999699999999999,34.77000000000001,1
0.8856256524321717,0.14512201135983704,-0.1221501944147363,0.003629338803687387,-0.0033798534628684093,2.3370410098560357,32.9824,3.2614802840535417,63.18651687214681,4.08971044710702,9.51940394618591,12.126785716347452,7.963880999999999,34.750000000000014,1
0.8822005695462091,0.16659038181401756,-0.10518983925050768,0.06459185106553454,-0.003046032887310814,2.3364530472556897,32.9847,1.6887269421259261,59.98565277081246,9.408549372637989,11.953123628127488,-61.04145895663857,7.5084680000000015,34.750000000000014,1
0.8863127789518036,0.15529571840183687,-0.1123807054396759,-0.07766894840663187,-0.0027645560137705477,2.336415099700149,32.98633,0.07382492603314261,64.31261651895318,4.857593947717843,5.121376391499215,-56.525090900262605,7.906315000000002,34.750000000000014,1
0.8814480248878376,0.1608884335317446,-0.11130713363594194,0.08670540332526869,-0.004317959969681981,2.3355845106893582,32.986156,-1.226789290209294,68.36296763448962,3.978351369319729,12.592099644954388,-4.563766011020658,7.679886999999998,34.750000000000014,1
0.8847990603472876,0.15624395222856616,-0.12587035963868146,-0.016396422213358925,-0.004022850475931136,2.337712843535819,32.986618,-1.9819398487142144,34.480094275846945,20.964863904071645,43.49484942538038,8.597316357132199,7.7016350000000005,34.769999999999996,1
0.8795419285864307,0.1341892581386529,-0.1472734066061391,-0.03180486441692453,-0.0023359145343219393,2.3359128281244987,32.986145,-2.4411346046460944,4.990892499183778,6.321146442755748,61.413476980057375,138.24657870732747,8.096924000000001,34.769999999999996,1
0.8858607296071934,0.16519112195248392,-0.10502965931240497,0.0850586959290977,-0.003082618671380391,2.3389675860916044,32.989014,-2.45741925154068,15.986228375023774,3.171635991408058,61.278476343480506,190.79795582563995,8.093084999999997,34.769999999999996,1
0.8819866244623185,0.18357559535930534,-0.09419586432168228,-0.11149420190539859,-0.003917178662416678,2.337263236679575,32.98896,-2.045578130368905,17.118164237238425,9.920422052680111,61.09279340129712,-179.6502114440339,8.162166000000001,34.769999999999996,1
0.881705218474636,0.15953500566692658,-0.11990780865140441,0.015835854446776862,-0.0029390156300529904,2.334030355688974,32.98812,-1.563236626540994,9.440163133228404,2.759823918001926,62.022637267317286,235.7785515476832,8.155769,34.750000000000014,1
0.8777225402186503,0.1735880388331071,-0.11219222156571886,0.0006261050915747059,-0.0028957769344267574,2.336756608169619,32.991062,-0.2323304861227552,9.112749364487987,6.191696457280151,61.97970026016197,42.644810404881596,8.163444999999998,34.750000000000014,1
0.8827802458719176,0.17677979500839938,-0.09965457344257908,-0.0370702592727492,-0.003277814866811327,2.335950802351059,32.99122,2.377010539739996,12.028977634026463,2.6910048972399827,61.19270963203576,-173.89383925360409,8.191588000000001,34.75000000000001,1
0.8757776003725051,0.1759439354569047,-0.11039485259332582,0.11061226495262728,-0.0030377856830378124,2.3329736015089337,32.992893,4.898362559377562,12.259335999371524,3.849339759289665,61.83780454706737,-75.2946368408249,8.192867000000001,34.75000000000001,1
0.87889292227266,0.1769328424956901,-0.1209293147718156,-0.04370654945507847,-0.0029699284564708864,2.333359303157595,32.995422,6.0036877289749855,16.610483878029,2.3028460720729806,60.80554881260353,14.052202865298078,8.169841000000005,34.789999999999985,1
0.8785268651586516,0.17649917439729707,-0.11222733889220797,0.034893934014025185,-0.0029812396966587555,2.333607269137838,32.991234,4.5509122768789165,15.222749271149306,3.5256259287447165,61.20749060186378,42.71406565669382,8.173678000000002,34.789999999999985,1
0.8825944804465273,0.1666746749406971,-0.11973462366576546,0.02654939269353317,-0.0033858945694616787,2.336065682275969,32.99702,1.8863689513958501,18.690709202638832,2.76544248737829,59.736460291698705,-59.17213418946545,8.192867000000001,34.78999999999999,1
0.8784074560510944,0.17214504278660475,-0.11496321604677634,-0.09205768486636602,-0.0030526992587118266,2.335502823105071,32.99788,-0.33229564966056824,15.116650187438953,3.1667454104311514,61.06647526716109,-32.76480613552675,8.203101000000004,34.78999999999999,1
0.8807879241288906,0.16043708716208974,-0.1171619301224982,0.05281212130428245,-0.0029702807929747337,2.3343834870619076,32.99726,-1.5537584709144394,22.28015195963166,-4.048804649311579,61.40128932998331,-23.264749063616726,8.203101000000002,34.78999999999998,1
0.8847127221957519,0.18830434649951866,-0.07016471622841054,0.017225561094851585,-0.003201553666781425,2.334529948118529,32.996212,-2.0785122007546395,1.1075659401560403,-2.8386858842421714,53.27644474169021,8.261163869866065,8.210776000000001,34.78999999999998,1
0.8790366535108199,0.1623494587752739,-0.12104283757098581,-0.07763667170902235,-0.0032109328170833516,2.3323494862200937,33.000614,-2.4013592127413963,8.203151490405636,-16.13623043171471,58.6021861210566,33.14571355290423,8.144256000000002,34.79,1
0.8818765614765894,0.1564370025941154,-0.11911121855942196,0.08076479793417402,-0.0028549777128744607,2.3328047745511995,33.000595,-2.9246293764474602,27.884652527438494,-39.88830677368215,52.618699726279345,-7.122980956330311,8.18903,34.79,1
0.8800541165765366,0.18545927875794696,-0.09728467668749693,0.0008022328525124784,-0.0030709314722353527,2.331137410431842,33.004555,-2.9652029627301455,18.003588975305995,-36.96226681759207,47.32010622390366,0.5239824648959598,8.206938999999997,34.77000000000003,1
0.8838683102357497,0.1651349044035891,-0.09506280243971241,-0.06213833967450139,-0.003623942846741644,2.330400005460424,33.002235,-2.674361656919186,27.978729207805713,-31.023939057108134,47.18553327300807,-126.5374455550665,8.177515999999999,34.770000000000024,1
0.8848281174888715,0.16909893984019186,-0.08775299867640794,0.06500445281462182,-0.0032009951539418925,2.3313637899384223,33.00274,-2.224863065998926,21.363861953856357,-35.35682631073458,47.82149062868842,130.33547919927344,8.172400000000003,34.77000000000004,1
0.8802345588759609,0.17690390334615197,-0.09567688601942584,-0.026060878880388536,-0.0030102526830678706,2.3313621948217538,33.006016,-1.580197379440041,22.68341904050046,-33.325134348000354,47.07135477525618,36.65488236244044,8.242758,34.77000000000004,1
0.8818172680952906,0.17900965156415413,-0.07884839197516214,-0.06285415219990843,-0.0034548637601568245,2.3331151789455884,33.007664,-0.16812901232603863,20.506500465016444,-35.72804379270468,47.45467293411097,-183.35717110104187,8.201822000000003,34.75000000000001,1
0.8771654506211646,0.18725156457138853,-0.07726873005046604,0.06909137569905517,-0.003107581746008195,2.33176199327611,33.00936,1.9909607404606882,20.879327994796334,-33.85153804375563,46.78042210789563,198.3049916294047,8.191588000000001,34.75000000000001,1
0.8803394948838865,0.18370522996671196,-0.07626521504284949,-0.020550578728931727,-0.0031540138167712424,2.3322972020755284,33.008503,4.061024989785192,20.669017530004027,-35.68186157987531,47.54813218561327,365.30834263391074,8.203101000000002,34.750000000000014,1
0.8804634751929085,0.18022687868200624,-0.08672399647346783,-0.032154779711481576,-0.0031430389056140776,2.3302971925480187,33.00667,4.957928105728954,21.937634779542652,-33.90488594620144,47.31227156348868,132.04176560515089,8.172400000000005,34.750000000000014,1
0.8808733515280268,0.17923896515677637,-0.08896199384120253,0.08337887464265388,-0.0022887322711160193,2.330392643572488,33.010635,3.8865993901354425,19.85883469770257,-34.65516133890641,48.061393065573306,-249.52757916683646,8.168561,34.769999999999996,1
0.8793659351572124,0.17847678834178787,-0.09509648130991052,-0.05441036756870442,-0.0029581151704513044,2.3308145563315,33.010628,1.8726857366785556,21.246031337470406,-33.414683142393244,47.775020502382745,-195.58170402055478,8.155768999999996,34.769999999999996,1
0.8810731939864838,0.17632153582574248,-0.09679045559537901,-0.010109740631173451,-0.0029513956460463227,2.3290164254637538,33.013447,0.1201977617843242,20.74372418386372,-34.413492242684995,48.22262830450506,-111.57185357959354,8.144256,34.77,1
0.8804696264780666,0.17480296568352735,-0.09714326552817024,0.06864045516524409,-0.003218178383618898,2.3295656663088895,33.015724,-1.2407173317870839,21.55222522849405,-33.52394632382548,47.788466222485845,-141.94836203341006,8.126346999999997,34.77,1
0.8816120258474439,0.17489254819344788,-0.09743295631387117,-0.07377377094233908,-0.003601392065866739,2.327463048848817,33.015076,-1.8085416566546864,21.256430509357262,-34.33103948133912,48.199691486688224,-111.96334950789795,8.140418000000004,34.75000000000002,1
0.8800198014517847,0.17474737022735187,-0.0997429261222722,-0.0040168877193547305,-0.0037160324629439793,2.3269416873484743,33.01672,-1.823126554065505,21.632359524706747,-33.571957115213976,47.811934762522895,-306.210153954722,8.146813999999997,34.75000000000002,1
0.8816330117360699,0.17409518829005674,-0.09704204578160483,0.07636450136003121,-0.004051376854445818,2.329096805280084,33.015636,-1.7636762001178306,21.428162510383554,-34.41687508317089,48.176417956151035,-15.532306798353744,8.137858999999999,34.750000000000014,1
0.8800333477736233,0.17466470609714665,-0.10008682814607775,-0.053511497547177225,-0.002490908688780682,2.327797558457926,33.019676,-1.5679910802314034,21.516341429751296,-33.352332115344744,47.83635504197782,221.85103953287262,8.134021999999996,34.750000000000014,1
0.8814230298553355,0.17484313357200038,-0.10040913901633224,-0.009132937194869304,-0.00369987863071817,2.3289777123874904,33.01864,-1.3348176454225609,20.94275521266662,-33.85862902695816,48.145288058646344,86.87886493178708,8.132742,34.77000000000002,1
0.8801560033317987,0.17275489744501235,-0.10198487228063192,0.08307972868929997,-0.0015117879938353089,2.3304077288936367,33.021,-1.102413568810725,21.649764466900894,-32.853883683145796,47.95264114326735,46.02389854697725,8.128904,34.77000000000002,1
0.8820095101934344,0.17298610977607323,-0.10078235298813652,-0.03446807827164422,-0.003100516497199218,2.33174336612643,33.023994,-0.8549322671809586,21.463471739406383,-33.69830284666518,48.189857876702845,98.41910409508175,8.117392000000002,34.77000000000001,1
0.8803424485684127,0.17172289143390193,-0.10749006347977122,-0.044347692340329196,-0.004479242928598718,2.3292951267029403,33.022213,-0.7098379242996005,21.812633640423183,-32.71755864224888,47.838897192676086,19.849681715596454,8.105878000000002,34.77000000000001,1
0.8814541146688631,0.16937056147845356,-0.10755634079715065,0.0698963482312164,-0.0011004359828121722,2.3302366691812106,33.02669,-0.8294897294895632,21.806974685019355,-33.530793951413166,48.14806079899763,17.392932910244035,8.104599000000002,34.81,1
0.8802530422704953,0.1752710634063697,-0.10212535480279375,-0.04423016375948244,-0.0030805077353120392,2.3305482714165864,33.02344,-0.677805222582857,21.199640142296552,-33.28183379549633,47.86186192874984,73.30936931274171,8.116111999999996,34.81,1
0.8819453589602261,0.1746023487001162,-0.09827712324204485,-0.06827396349896389,-0.002907693746967643,2.3299240683584435,33.02631,-0.1365912751616576,20.974023280016734,-34.18351327926435,48.12922172394317,13.937581951454227,8.105878000000004,34.81000000000001,1
0.8797422011420399,0.17900248387227366,-0.09360518261848728,0.07678209542753421,-0.0034711836826817936,2.3312311705641764,33.02605,0.7053412475880536,21.026276794596843,-33.65966314412162,47.879470904020295,-8.811076323371774,8.095644000000004,34.81000000000001,1
0.8798728284814205,0.17934233136473182,-0.0913445033321626,-0.018109681644492916,-0.003524524162526293,2.3313379484058423,33.027782,2.1241577172777486,20.977600145466262,-34.310335359985324,48.111562727545625,51.15294682203506,8.095644000000004,34.75,1
0.8792698289921242,0.17993841097183,-0.0964699002596107,-0.0342956390274282,-0.0028580052404616613,2.3298083594939,33.025208,3.4328566675632075,21.01780169643264,-33.70862749621346,47.898174674950994,11.60829562271387,8.094365000000002,34.75,1
0.8808258338279292,0.17586869108485825,-0.10419875268007309,0.08124427370386093,-0.0034979469907552817,2.3282688507650158,33.031563,3.598150133179737,20.986715737284307,-34.27018459880492,48.090634380059456,-15.66440614872402,8.091806000000004,34.75000000000002,1
0.8797270909030942,0.17590687875927144,-0.10484043808189364,-0.059691299204775825,-0.0033317666877797887,2.328637184771164,33.03189,2.3216722025436427,21.008109057385028,-33.762493869356895,47.92316318013961,34.682372910566244,8.091806000000002,34.75000000000002,1
0.8804426530208495,0.17438340751946946,-0.10839738511505682,-0.002814338306314694,-0.003515228245508837,2.3266168711212134,33.030994,0.6838650991865638,21.015801265967575,-34.00779133901357,48.058115740533935,8.54432005399012,8.099481999999995,34.769999999999996,1
0.8798035914270883,0.1739117810718461,-0.10731875848012801,0.07061926938054122,-0.0033098307714782634,2.328278600675184,33.03608,-0.6363485962197211,21.173983143191958,-33.56623511779505,47.97125894419986,-21.35798826397525,8.084131000000005,34.769999999999996,1
0.8806782291018851,0.1714764257185164,-0.1081238798895261,-0.0725672235909778,-0.0023406199257621535,2.3274778214987593,33.035606,-1.2793026942370762,20.805620456421668,-34.01941977918243,47.9688966369045,18.598759808863335,8.072618,34.77000000000001,1
0.879942955247001,0.1743034281932479,-0.10881251129234105,0.04049359561472675,-0.0029731377399215882,2.325529556959763,33.035755,-1.5251686275451906,21.554531781039806,-33.450114447599255,48.27305406863328,-12.723922123041728,8.080293000000003,34.77000000000001,1
0.8817374961291916,0.16988233423424268,-0.10971467853086425,0.01902288276907405,-0.0023960987661090674,2.3271041003520945,33.036106,-1.6784739290708675,20.559042241356003,-33.51252260817494,48.861600239912,-16.15709839624465,8.072618000000002,34.72999999999999,1
0.8803240626632721,0.17070086253042308,-0.1107173077003207,-0.07120362911704554,-0.002317700911292433,2.326578439025885,33.037113,-1.5199162882128414,15.020136775278067,-33.33135727166927,50.18346263495464,14.05097109665311,8.077735000000002,34.72999999999999,1
0.8813436450894707,0.16801277111958857,-0.11273348968537955,0.08210740456901863,-0.0025281620997316483,2.3264206418734195,33.039158,-1.255362017034552,12.15602527145841,-32.35646283231597,51.51424911252477,-19.228691553833915,8.090528,34.730000000000004,1
0.8807426370649792,0.16103175636126005,-0.11334530295557953,-0.009378288098526045,-0.003177589030952496,2.325730839476201,33.039593,-1.1782888063104375,2.7260054311712474,-31.831145947860968,52.011144880766814,-5.173214624878376,8.084130999999994,34.730000000000004,1
0.882285063676259,0.17502245548647516,-0.10493017857065082,-0.04326238922764768,-0.0022955015236875466,2.326240779585781,33.040817,-1.059112919277869,11.12127188432977,-37.0864755301479,52.65885952357232,41.30242458965767,8.098202999999998,34.74999999999999,1
0.8804393205538702,0.17701640307714142,-0.1067071934129211,0.07952879209403284,-0.003939518161092623,2.3293050588721274,33.041916,-0.9483325392511642,25.832292566334885,-32.59204167526374,46.70537343133605,13.033396371632154,8.100761000000002,34.74999999999999,1
0.8800686562595982,0.17139312586112057,-0.11304920936830871,-0.07048721360089709,-0.0028589852824946493,2.3272128432415764,33.041924,-0.26371469570832956,37.803749670783354,-29.96093535818525,40.32721179216096,22.588971801809357,8.050869999999998,34.74999999999999,1
0.8780365597037976,0.17567192079182548,-0.10955014194343594,-0.0079624874880535,-0.0035698230399360993,2.325729677282721,33.044487,1.1805283069033927,26.304492757381333,-29.91136986867503,47.938774669730954,13.508247250009806,8.021446999999997,34.74999999999999,1
0.8789235364731303,0.17385137711010903,-0.11646358191612782,0.08553361388214224,-0.0030133756356665697,2.3272967432187457,33.046505,3.078321882983782,13.56380220891884,-29.662349462015793,51.08257116112665,23.047644488831722,8.018889000000003,34.730000000000025,1
0.878496703956891,0.17294959763419337,-0.12353753356787804,-0.046655509889503344,-0.0035723136438125733,2.328169610323515,33.04399,4.095385557834461,21.36631288960703,-30.13826287024288,50.92933139842759,-113.73732426350874,8.058546,34.730000000000025,1
0.8785258861459542,0.17013186079947265,-0.13356814371388964,0.0345900124233557,-0.0030507238778067105,2.3283316618320438,33.04534,3.0499617156506362,20.837698262831086,-31.98103585755017,49.25081696782865,-142.53397767184916,8.050869999999998,34.73000000000002,1
0.8781065424276574,0.16991459365256056,-0.13375162147583863,0.034576780584089105,-0.003222996303011495,2.327503800615679,33.048927,1.0624543776821351,25.436099028096084,-31.718865887804615,47.63716806598334,-133.92529147061643,8.055986999999998,34.73000000000002,1
0.8779827394664187,0.1658342677765314,-0.1425324648642168,-0.08813320526634688,-0.0032625597463081827,2.3296247143432014,33.04801,-0.5449470300254339,27.362772165434972,-32.59869136787909,46.135146808046684,83.88503548189246,8.079014,34.75000000000003,1
0.8767747435342383,0.16818782959497064,-0.14265404282377708,0.042446128231717645,-0.003674656162853964,2.3292128320191776,33.046524,-1.4914592880372577,27.002603080856836,-32.455631437509304,45.935059591468125,78.21723579704017,8.090527999999999,34.75000000000003,1
0.8790885558381235,0.16635483046751184,-0.13707324764532353,0.04269536143657651,-0.0035652076390082763,2.3303875081101277,33.049534,-1.9048363159314867,21.576694822195545,-33.21805204876751,48.562801707854014,407.6900799228188,8.062383999999998,34.75000000000002,1
0.8768988060092412,0.16749078878220405,-0.14190676827872775,-0.0818625834025431,-0.003181036596146862,2.3301723834422003,33.05037,-1.9062763112568877,23.262425101462906,-32.31387423864759,47.350643780536835,-34.47581568411471,8.044474000000001,34.75000000000002,1
0.8782514224399001,0.1653517870468959,-0.14354469727156627,-0.021377511559586313,-0.0036784660748743997,2.3308147999553115,33.050713,-1.8207112061346609,22.733694242358194,-34.86687992124506,47.1614631842854,-213.44847002780605,8.045752999999998,34.74999999999998,1
0.8774563067961539,0.16663444361124305,-0.1452474603393055,0.07979558694615262,-0.0034834077530164066,2.3310630773791674,33.051857,-1.8236758812377571,23.641408785841765,-36.09849711660775,45.14334911072051,-153.81810784921944,8.050870000000002,34.74999999999998,1
0.8776264790501401,0.16817544548981384,-0.1431894023901479,-0.019959312834719137,-0.002934135742066644,2.3304304492241896,33.052303,-1.649620322932155,21.692097625400223,-35.62805879057721,46.72259692727081,-138.80762493437376,8.054708,34.74999999999999,1
0.876662151375949,0.16531358499245818,-0.14490670065004663,-0.06730628131072348,-0.0038911655881592173,2.330195031683389,33.051903,-1.3541833824205243,35.813132055881184,-32.68488706470657,36.33514741850395,72.57924723392742,8.032961000000004,34.74999999999999,1
0.8790958724947703,0.16888486134018374,-0.14032307348496303,0.029395535070838627,-0.0023477494715363713,2.3312574124271572,33.053284,-1.0673142976272676,57.884296880879745,-27.151858550631097,2.452545120313255,83.99953730828918,8.006097000000002,34.769999999999975,1
0.8788239572084601,0.16624650022510898,-0.13603037646042818,0.04023311811592128,-0.004661493491972102,2.3314357564500505,33.053413,-0.6482553003122425,55.231616240897424,-28.65856091187466,-6.370865576643254,101.8041361035839,7.952367999999998,34.769999999999975,1
0.8777223384627315,0.1714147116872208,-0.13799621090888226,-0.07775728838057022,-0.0026812443714252154,2.3321964149825627,33.05649,0.3360203651414471,55.37140165031046,-30.858474805287432,-7.489125477092069,108.85180844301948,7.943413000000005,34.769999999999996,1
0.8750159470216194,0.1746688222125963,-0.1336836630539614,-0.006482895557986772,-0.003925813709836245,2.3315003114121784,33.054382,1.9372295240351949,53.36064356386468,-29.953575267089256,-10.507767495124526,-20.20174917972643,7.9357380000000015,34.769999999999996,1
0.8771336673949369,0.17075724699120304,-0.14151497442895997,0.10008918030329032,-0.003653366949071971,2.331249580480451,33.057423,3.489011818933267,53.29745905540211,-31.971675452126487,-12.603710565386399,-122.92865434798716,7.944693000000002,34.71,1
0.8760798594064233,0.16912012067859805,-0.14594657589788873,-0.03639407328749132,-0.0023612895889241745,2.3315050791479948,33.057964,3.834387541033629,52.031669540457,-30.39773727425215,-15.07979802469248,-8.226060430699105,7.944693000000002,34.709999999999994,1
0.8765145363617037,0.1642865800282605,-0.14931474560798708,-0.024259860964773745,-0.0037161730615739167,2.3298658892893287,33.05781,2.566572752740591,57.9598020228203,-31.492017846418378,-8.888893637880043,-59.58964375114042,7.559638000000004,34.71000000000001,1
0.8790987279662448,0.16914099329784685,-0.14011518937838194,0.08639825932352713,-0.003056573569985259,2.3297904894813968,33.05981,0.7415742219548266,56.96312585076475,-22.23063956329752,2.8174285593172805,5.760192624733766,7.6581399999999995,34.71000000000001,1
0.8763436433767507,0.16704028423306877,-0.1475910533080775,-0.053623439562193266,-0.004831149583568782,2.329557959854167,33.059376,-0.7172738299894194,43.84597347577531,-21.771670154500363,29.631859125152463,45.097053367875446,7.906315000000006,34.750000000000014,1
0.8774752955672688,0.1669099826729245,-0.14441124596678462,-0.02451479960348182,-0.003571435554122739,2.3280583555086967,33.06062,-1.7152065175969295,31.65317868723259,-35.96827447948711,51.10710982318565,19.334513181921306,7.961323000000002,34.750000000000014,1
0.8780047348709109,0.1711010697251334,-0.13533189403816778,0.07170603601271718,-0.0024651729614032307,2.329236796897565,33.059216,-2.502468446744499,22.76161579702026,-32.14115642524386,45.98439749436258,62.77421981493653,8.080293000000001,34.75000000000002,1
0.8772165076444073,0.16999699482696096,-0.1394220118880286,-0.08820612909210139,-0.003281810434345991,2.326089667675387,33.06062,-2.8321517824855884,26.96899098617918,-32.56415796256822,47.17020240707762,66.99585513414559,8.047032,34.75000000000002,1
0.8781335143797702,0.1689233723368158,-0.1399120804530186,0.01217517167585404,-0.003153553443720789,2.3258085308522074,33.0615,-2.5490644658852006,26.349478810594917,-32.574848754364695,45.52357761222724,127.7514895809884,8.031681000000004,34.73,1
0.8772167431473639,0.17721904333354485,-0.12982624344266866,0.022024370205340118,-0.0030409037110547903,2.3272648385885244,33.062935,-2.0618741473220226,26.490285792108605,-32.973911294182685,46.34515067046712,20.80798390469666,8.035520000000004,34.73,1
0.8783673846909001,0.17504555394719232,-0.12278130259083712,-0.08676599807710235,-0.0033101960105713086,2.3273264325993543,33.063587,-1.0407682474470101,25.95128530840984,-32.91795026443858,45.72513446186854,-279.0917232353216,7.984349,34.730000000000004,1
0.8774590537121745,0.1868747214302835,-0.10115024444653961,0.07687634729520647,-0.0031398104047146327,2.3273731126154438,33.063774,0.8722699249707359,26.007460821345767,-33.32884186738069,46.230940799685975,-84.79065834080697,8.003537999999999,34.730000000000004,1
0.8760918404089328,0.18563159065084509,-0.09543013813519122,0.010775372470184688,-0.001677171704796549,2.32738112813403,33.064175,3.707306841234556,25.766134244246363,-33.51294410518292,45.79871352516051,-18.550894749481618,8.003538000000006,34.730000000000004,1
0.8771809187795426,0.18337917946646526,-0.11445219447208925,-0.02443089084359488,-0.0032957828671339793,2.3269572614657954,33.06422,6.183907328450375,26.35804588258405,-32.91081885300445,46.180337916400624,40.73673986762324,8.003538000000002,34.730000000000004,1
0.8767842017407601,0.18075482817894423,-0.11928231261494784,0.0855742261641494,-0.002987890683220762,2.3266424285003504,33.068092,6.031191222762497,25.84352751778151,-33.24966789817215,45.83486723904915,-27.24019095535878,8.002258000000001,34.73,1
0.8771749063802893,0.17939718701489363,-0.12376800493003433,-0.06341015847359537,-0.0025403172303048093,2.3268566178341445,33.065193,3.5511607015613897,26.66535896969767,-32.85473095542423,46.153939835930295,15.721559210785198,8.002257999999998,34.73,1
0.8773159609084753,0.17661060547379223,-0.12765815662059066,0.04207931554507642,-0.0028385922937270045,2.325651056755659,33.065975,0.7890027206595068,26.56404275742963,-33.14421309993119,45.85432171737874,7.765849519581124,7.998420999999997,34.77000000000001,1
0.8774003590839926,0.17736167396222852,-0.12557628511877345,0.021043453706754395,-0.0029815020452207746,2.325555151970155,33.06832,-1.3414984125760072,26.72845142934211,-32.85163495785303,46.13963865554805,-0.05266660961231498,7.990745999999998,34.77000000000001,1
0.8774687785095417,0.17580267441352287,-0.1284369441982998,-0.06663017132628528,-0.002953314288316676,2.325773287165862,33.070614,-2.2870349833207677,26.74587377699362,-33.154506570494426,45.86466376165111,16.241520604980565,7.980512000000001,34.77,1
0.8773514615278328,0.1759531271617097,-0.12883395067946019,0.07720331444968852,-0.003338890726067699,2.3252816043080986,33.070625,-2.5731222840727823,27.024164986363935,-32.83783549602377,46.13242793193232,-4.224964959419053,7.984349000000001,34.77,1
0.8776987956252935,0.17351564762320731,-0.12864621999468467,-0.018126071505856312,-0.003459839870909155,2.3256146363601786,33.070854,-2.4609485098335844,26.708282677490676,-33.17187879602437,45.869338523129784,-15.292145808544833,7.985629000000005,34.73,1
0.8771093771867998,0.17397243205048815,-0.13289793010787537,-0.06857033536204304,-0.003404639187237471,2.325024585985737,33.071594,-2.1822061701551707,27.19836153624102,-32.814221893918145,46.12984077115485,28.521144168238887,7.971557,34.73,1
0.8778519844113737,0.17330340264131167,-0.1308491363912722,0.06345504217819713,-0.003401674239135713,2.3257661937011735,33.075253,-1.9261631449772523,26.814606552754963,-33.21238218434376,45.8702038406972,-36.05381816043113,7.989466000000004,34.73000000000001,1
0.8778845329308006,0.17220348573059174,-0.13040502855874989,0.04852365851603091,-0.002823646916087303,2.3266542466045808,33.073154,-1.7417642461610068,27.176747338778096,-32.65870021441863,46.13034550915226,29.327290406526803,7.986908000000001,34.73000000000001,1
0.8776057583848312,0.17291005346458838,-0.13551680796562363,-0.08646195528706947,-0.0034013839698226913,2.325205554894147,33.075466,-1.3629033477691077,26.839922978569337,-33.029398758551096,45.868791783945504,1.3768008084304468,7.985629,34.72999999999999,1
0.8773465353217346,0.17658446004670034,-0.1304086383065177,-0.024565727304481755,-0.0027641950368092216,2.325030323267898,33.07169,-0.8671278920035689,27.00154927523791,-32.87869274352216,46.131701778106375,-12.396754455669013,7.9945829999999996,34.72999999999999,1
0.8774529159286822,0.17778288699100467,-0.1259709134449549,0.06977482433983781,-0.003338602321529987,2.328521012365496,33.076893,-0.0021886458243822364,26.188824224038264,-33.137513582501334,45.87115026039962,30.355517935441704,7.988187000000003,34.73000000000001,1
0.875262297896038,0.1808329715634293,-0.12383499204926092,-0.0026380594305564333,-0.0019381853055389804,2.326714591830953,33.075512,1.3405180232831773,26.524727428164745,-32.93653897269021,46.024826695365874,21.932382679884203,7.98307,34.73000000000001,1
0.8762412957129782,0.18129768266080307,-0.1255165264329725,-0.07740454087315271,-0.0028489296506797124,2.325483819469697,33.0773,2.897591423676208,26.084705504862722,-33.226526908459135,45.830944545106945,-43.67246591161953,7.971556999999997,34.75,1
0.8755960004567672,0.1797399231613107,-0.1297412363995631,0.08313167665138187,-0.002603175036965214,2.3255025524016832,33.078205,3.6645885792257937,27.128348434863977,-32.78269934730905,46.16559274180859,17.497260491865525,7.974115000000004,34.74999999999999,1
0.8762892370758246,0.17564963335665743,-0.13308879366941848,0.02294003026654808,-0.0028757986142916446,2.326239353714212,33.079502,2.8040407836318293,26.674994845270454,-33.22384775276274,45.83054851185648,28.528101362846442,7.971557000000008,34.750000000000014,1
0.8760696348011179,0.17722594957855267,-0.13612353372224298,-0.08028601286740952,-0.00436531298921415,2.3241766487983138,33.078823,0.986944870131742,27.01951188121812,-32.765673320189556,46.175718472770356,-10.020176169994821,7.972836,34.750000000000014,1
0.8769740485046132,0.17456491790027692,-0.13636142755096278,0.02476838908689724,-0.0037885820048292633,2.3229321100482614,33.08093,-0.7190255068485489,26.88795502862561,-33.2473036385566,45.81639036276509,-32.73748655887603,7.966440000000004,34.73,1
0.8766598959735614,0.17443052789539848,-0.13429988042416235,0.00844133166860386,-0.003384828848759051,2.324003060862313,33.079044,-1.6638156285991952,27.13219299198294,-32.7372593030032,46.19298688665672,34.79229267051099,7.977953000000005,34.73,1
0.8763511059909984,0.1732963588073064,-0.13825148267409032,-0.08311584611140434,-0.003353570330247155,2.3221364541239007,33.08424,-1.9404437770189527,26.860181246770413,-33.28106764736861,45.79607529856903,-2.83339598796714,7.957485000000003,34.73000000000001,1
0.8767172068133413,0.17441622291549427,-0.13629414810534538,0.06414708027753006,-0.0032713681300979474,2.3220975616331496,33.0833,-1.9231107365787548,27.14115075107131,-32.696954012230584,46.216621033444035,-17.417225361790415,7.972836000000002,34.73000000000001,1
0.877248827129825,0.1713516350689986,-0.1396213219923632,-0.0007543427654841882,-0.0033183256397044674,2.322102005630206,33.08435,-1.7321844863083276,26.866115687860628,-33.329818742984656,45.768610068430846,18.810139818166746,7.968998000000003,34.74999999999999,1
0.8763352685242062,0.1762398654098624,-0.1364333825314273,-0.04696283006408777,-0.003931887836720663,2.3204484497014786,33.082287,-1.4105704685139508,27.08615541373678,-32.63700347208864,46.248695150966356,6.8989550602732965,7.970277,34.74999999999999,1
0.8766236843060599,0.17842273081238097,-0.12874056482190813,0.07726104883438188,-0.0027929158531882015,2.321408437511,33.08485,-0.7652990145825256,26.56787120357204,-33.40387434493631,45.730762141976605,-37.923235199223065,7.965160000000002,34.75,1
0.877593467504708,0.1811332285494626,-0.11773775462792364,-0.006520326473956209,-0.003216190584955213,2.32080653269566,33.084625,0.4070592597465168,26.591551294488845,-32.58251218723029,46.2941817405734,29.612993434554717,7.966440000000003,34.75,1
0.8762213894316792,0.1846752593180954,-0.11405039077178662,-0.04903942600796668,-0.004105942753665641,2.3195997637056602,33.085865,1.9797006075162022,25.760118995003445,-33.8849651962016,45.67410453891744,0.3188483485071935,7.9510890000000005,34.73000000000002,1
0.8785902816440413,0.19025885399501893,-0.08973724208835564,0.06039895439366359,-0.0024880866432654774,2.32011757212496,33.08529,3.6200395810515706,26.26372791076849,-33.43382170488291,46.37147257219453,-20.710227375906623,7.952367999999998,34.73000000000002,1
0.8780297412033131,0.19126145716153153,-0.07651503904954601,-0.06557613568382743,-0.0031452879598456093,2.3202411657457276,33.08963,5.407647268741345,25.405993577453366,-34.975136639301255,45.06993579846875,16.495740964826453,7.9510890000000005,34.73000000000001,1
0.8772096901143264,0.20007701534651504,-0.06716761597643733,0.018423339364077588,-0.0025930177134887667,2.319782880289803,33.089375,7.5637651227758615,25.19558030644114,-33.854368426683685,45.521661362328835,6.628724574360054,7.942133999999996,34.73000000000001,1
0.8792896258410339,0.1990109493710481,-0.050413059690324225,0.04768638266469116,-0.0026983295188935247,2.322460124094974,33.08994,9.819676885460673,24.14486310045624,-36.82276931250086,44.52513167733211,-29.686674647743025,7.947251000000003,34.73000000000001,1
0.8697144896821448,0.2119909399667859,-0.01987163854881425,-0.04001036019752285,-0.0033604994195318774,2.3243078501094168,33.09041,12.375078198559189,23.684802770782746,-34.63906583155802,44.724997301549095,26.576508312103254,7.939576000000001,34.73000000000001,1
0.86775421067235,0.20554046547768084,-0.0437962694873382,0.05100400588180034,-0.0028673963901788982,2.3235063916796466,33.090336,14.908136494952286,24.560061871236417,-48.65133478487754,43.51986260267353,-22.324019943394426,7.9485300000000025,34.730000000000004,1
0.8805653414152885,0.21131693322510958,-0.07773230828679044,0.003580230221798021,-0.002444119986393707,2.322035736708714,33.093513,14.128939187874543,31.15256686249693,-37.81683936428521,56.76805013995093,-7.836062359988145,7.9472510000000005,34.730000000000004,1
0.877624040771242,0.18610620837413785,-0.12930345642660396,-0.03601938126190145,-0.0035427505861411832,2.320921800413826,33.094906,7.62044308978269,43.598477025554985,26.633900976661884,14.856161404167043,7.445658544667345,7.952367999999997,34.730000000000004,1
0.8646672475172947,0.14020009250628684,-0.2062932451549841,0.1106936379998101,-0.002716036028741315,2.32174656471157,33.092438,-1.6430574819549029,56.37933880555809,22.778539949672194,-16.65073475678888,-24.19212873889224,7.913989999999997,34.730000000000004,1
0.8668157456862623,0.1738708175537458,-0.18715308623686105,-0.018782753445181998,-0.0037832710766809714,2.323620352104379,33.095352,-9.526099936084902,44.005418040405736,35.85600346193972,-24.011800636068003,11.364737053756254,7.867938000000005,34.73000000000001,1
0.8727398098984993,0.2078813940788572,-0.1540574876771251,-0.06198812723044404,-0.0027230406329738182,2.3219423380267354,33.09572,-14.307562847973978,43.66256497259351,36.42939406224646,-31.52009804697574,88.89638309893907,7.8397939999999995,34.73000000000001,1
0.8676735710493032,0.19357203473378956,-0.17251083877854984,0.03968756145411525,-0.0027208530593265247,2.322744955256473,33.094204,-17.362367501266313,40.67200641229044,37.297010257194856,-29.143307406976945,8.242858219082262,7.850028000000005,34.70999999999999,1
0.8633980723387439,0.17515443885372514,-0.20120848945834313,-0.10110129198074085,-0.0028249338459581104,2.3215570301038726,33.095383,-17.60907600175903,40.77509909567452,39.400296368358305,-28.884290533192143,-36.36596937880156,7.847469000000003,34.70999999999999,1
0.8640907398698885,0.18359562690689407,-0.19572661480314857,0.014174580456263746,-0.003371038250774891,2.3217354996554063,33.096672,-14.763350033026436,40.85657565291184,39.31966107026315,-29.32831995208327,-74.32995386010803,7.82956,34.71000000000001,1
0.8586667512068981,0.1959158721853094,-0.19812049948133842,0.0017756777696613737,-0.0027948550130164618,2.3216241091193845,33.094563,-10.012058239545622,42.80117173743178,34.25328854820071,-28.73113351110614,-34.054189324905835,7.818046999999995,34.71000000000001,1
0.8644867653328757,0.19203969153113767,-0.18069921446530382,-0.05013796938828097,-0.004498972986571198,2.320300503651436,33.100964,-4.505052077942139,43.62054942971391,36.52766609842354,-28.3724946880588,89.32564893884268,7.824443000000001,34.75000000000001,1
0.8600150019425793,0.1852746141406677,-0.19365426512828063,0.07473756989176614,-0.003186661377002347,2.318977132349134,33.09869,-0.026726046292961023,56.15379524030385,20.51438663191091,-21.494702744291967,0.21508719340330906,7.851307000000002,34.75,1
0.8647397942008468,0.20128449255545583,-0.18451938849640828,-0.03157799102149925,-0.0029953704760762694,2.3176988979733713,33.099216,1.8743789324485958,57.72958116565954,11.311853651723293,-2.6467418920158328,-20.071992667095717,7.853865999999997,34.750000000000014,1
0.8620511205268621,0.18664973751817268,-0.21253338374988184,0.05393436557626897,-0.0034808874187350577,2.316796094732804,33.09864,0.5378663051264797,32.57444291138822,7.813487872025459,44.47406668641376,31.11088835844415,7.821884,34.750000000000014,1
0.8588854631018997,0.15631049253173365,-0.22060376460240957,0.0604438261562667,-0.002154976979268642,2.3209187723809572,33.101543,-2.8973371426180146,20.498706581030426,-46.701090420433964,60.288126751692204,-1.3637456381570618,7.945971000000003,34.71,1
0.869888723675474,0.18948226115087363,-0.16366000028057542,-0.018777173119127966,-0.00355716031463459,2.3178015875318505,33.10159,-4.780703395433156,19.144687368497593,-39.88032388349913,42.608063343818216,142.10345895532853,8.128904,34.71,1
0.8771652258117671,0.18561388694875247,-0.1482712962060664,0.04830653404510988,-0.004114024618430063,2.3196555342254284,33.100777,-5.311677587958583,27.91424717838996,-33.579541207046596,48.23282667406578,22.78860235389065,8.108436999999999,34.710000000000015,1
0.8729217990369974,0.1720079594280257,-0.15612101952692806,-0.07160315636567029,-0.004689519333604064,2.318125125365896,33.100197,-5.728922611512749,23.478276350261815,-32.992423801736585,45.22604187412481,-43.3242768307579,8.119950000000001,34.710000000000015,1
0.8719006475673656,0.17285592033529099,-0.1622039794937994,0.04224586290245031,-0.002924050808660361,2.318178580430477,33.103867,-5.236433988512921,25.8948585095768,-33.32202602078383,47.71845154413511,-63.82731161926552,8.137859,34.73000000000001,1
0.8752233741173042,0.17744476882739044,-0.14760439261785085,0.011927359905420017,-0.0029424453563406095,2.318746372910173,33.10201,-4.048528261326115,23.82151700282587,-33.298493992737775,45.9217465097969,-178.9030865874718,8.168560999999993,34.73000000000001,1
0.8731378040547045,0.17900360917530292,-0.15003900136321197,-0.06877858418299759,-0.0017040429292344702,2.3173792601850014,33.10305,-2.581241610565907,25.552645961530203,-33.014894448960376,47.642030066408886,10.717892088006042,8.20566,34.73000000000001,1
0.8752300133676004,0.17571410942171534,-0.147897256861796,0.07110453000767127,-0.0039025569796889213,2.319679506576257,33.10275,-1.1864370753152307,24.616378977889873,-32.90622887702952,46.285663279985464,20.178674922317757,8.238919999999998,34.73000000000001,1
0.8757189628606638,0.18049178161398585,-0.14313623058145725,-0.08192871434002792,-0.0031489491001986617,2.319229963057076,33.102325,0.11028212922344681,25.25160231170608,-33.36232961734628,47.15046467480739,26.1770732679933,8.259388000000003,34.750000000000014,1
0.8739112321514337,0.16921174817030335,-0.16202886557988663,0.012385165611577986,-0.001993365258923902,2.319360696101913,33.10261,1.1579802125377776,25.72439356061053,-32.643608363708864,45.5157332026105,16.882350377140888,8.276018000000002,34.750000000000014,1
0.8784901914865355,0.1335989099127833,-0.17497208321176663,0.054423456506013615,-0.004368583727246888,2.322180235027807,33.1036,1.288753715727614,27.631278224183557,-32.87356054637307,46.34826118469267,-4.755938265577819,8.281136000000002,34.750000000000014,1
0.8721103555159152,0.13634389091133875,-0.20318965434100741,-0.08855853750972655,-0.004076854295742894,2.3186387560627693,33.104477,1.051049656565411,25.83080967931497,-34.650419458421226,44.4304617872687,15.914842097444167,8.268342999999998,34.750000000000014,1
0.8730614714438578,0.1753274949646374,-0.15440759399074944,0.0357705258107901,-0.0038001048661272766,2.322253081939022,33.10594,1.391707114947923,23.662670552717692,-36.50973199764862,44.79731271239113,2.896274695188266,8.255550000000001,34.73,1
0.8762851406372446,0.20774633053595282,-0.11683820745603202,-0.01902103094386186,-0.002843494897631509,2.324228758549755,33.104923,1.6406619528640105,23.027868856772027,-36.66597197759331,44.03665870761312,-6.213768025913385,8.217172999999999,34.73,1
0.8734202719301698,0.17737780560433114,-0.13714790883956077,-0.03840136786788529,-0.0033021866940832526,2.3200048027116527,33.105812,2.014009975958631,25.521148062630324,-35.67794761905513,44.8123870116544,14.808490975301474,8.209496999999999,34.72999999999999,1
0.8694445849018168,0.1906387785624379,-0.1552176160652779,0.09486810509068125,-0.0029900447147855674,2.3198164677910573,33.10363,3.0358199757015516,24.734596134272206,-35.377588289181496,44.065661596075444,-20.350515886332722,8.177516000000004,34.72999999999999,1
0.8727660299467597,0.1704954013817764,-0.15601793981004458,-0.05273039714776874,-0.0025015380837332553,2.3212231569971276,33.106422,4.85336601282559,25.59186796173189,-35.364456706421194,44.82312096768007,-1.8475581794613172,8.171120000000004,34.769999999999996,1
0.8720254264907835,0.1948795199908505,-0.14313833467812423,0.028157633660117313,-0.0028727646544171024,2.3184817899797086,33.10788,5.743632433908765,24.534278230575495,-35.726223135625276,44.39910843764153,-2.9400606697111957,8.149372999999999,34.769999999999996,1
0.8711468540806776,0.1845224894313808,-0.1424988195980105,0.02782760427537862,-0.002689377594006812,2.319502324240169,33.109165,5.321722164595321,25.226353455759035,-35.388094354352205,44.8563816424466,-3.0906011622990746,8.131463000000002,34.77000000000001,1
0.8731853865642748,0.19120730091812108,-0.13275798869074013,-0.08910649189794011,-0.0036200808256989393,2.317542211342119,33.109108,4.80409008974964,24.715703709906993,-35.666437957774,44.48273130497725,21.62080985735105,8.114833000000003,34.77000000000001,1
0.8749208481550158,0.18456067255132738,-0.12872488420220596,0.07394894634402134,-0.0031229172254434025,2.316685156557018,33.108654,4.274097145843652,25.39963322429857,-35.40447132650088,44.99601876983829,-12.299971947492198,8.108437000000004,34.729999999999976,1
0.8745179531008669,0.18489807050354387,-0.12824502305076088,-0.002216693251966881,-0.003660777506515792,2.3174171154989582,33.107903,3.7232204124470685,24.83318142368642,-35.68452656028482,44.309635708099265,-5.427823986917452,8.098203000000002,34.729999999999976,1
0.874783295054848,0.1885088689963836,-0.12192498784697413,-0.040854716615395505,-0.003619173315664313,2.3179634258713624,33.10946,3.2495063658241694,25.169699291071996,-35.69259274052848,44.85825523209024,14.391503812206354,8.091806000000009,34.72999999999999,1
0.8750630599883201,0.18811207545798178,-0.12116674556787521,0.07815336551614903,-0.0033745220006961736,2.318176694289057,33.111385,2.5551071534797263,24.954159270361323,-35.68501590879105,44.3794167420701,-16.26196894200244,8.082850999999998,34.72999999999999,1
0.8754247289767836,0.18298370810553044,-0.11979314176931809,-0.06104307498738647,-0.0038012781030898235,2.3181964889352806,33.111958,2.038081692662942,25.447301604253735,-35.46956628945821,44.53510263761271,11.893925307221767,8.067500000000004,34.72999999999998,1
0.8752446538936102,0.1874812343734761,-0.12029606444113536,-0.026083551048580896,-0.004426088054106694,2.3183306669831008,33.110294,1.8947654403604326,25.072075881058172,-35.365747273197584,44.41924207623079,7.2307066066155,8.072618000000002,34.72999999999998,1
0.8757660680159883,0.1852970363149254,-0.11856299679022139,0.0720542040240495,-0.0033033553712084273,2.317889462912074,33.11179,1.6864350687390823,25.135369455816335,-35.60670817899492,44.39415710739867,-16.441972891099784,8.057266000000002,34.73,1
0.8758928782681322,0.18634137619186675,-0.1171833357801615,-0.05405495201024923,-0.0026580795253918097,2.317251325300041,33.112656,1.5610537049721012,24.900327846372768,-35.63936565744126,44.18145655315494,20.604907343544973,8.057266000000002,34.73,1
0.875386426293617,0.18559499322443682,-0.11742974789058053,-0.004722578606929951,-0.0032763315904448718,2.3160819377589346,33.11343,1.334382006131934,25.380552019000508,-35.641548648973604,44.241372087560656,-6.594685838662403,8.047032000000002,34.71,1
0.8754049950790282,0.1879340950652534,-0.11656515284985787,0.07147057343944374,-0.0034950687627130898,2.316771963829608,33.117146,0.9778923850427197,24.837804503355628,-36.04730720360401,44.23338897973748,-10.692891272519354,8.057266,34.71,1
0.8764163557441186,0.1852717729071015,-0.11656470457427211,-0.06735378167664573,-0.003324416583138328,2.317848944558537,33.11601,0.8294452911744017,25.314580571209056,-35.665098136377566,44.48165605615115,25.123111821354296,7.995861999999997,34.710000000000015,1
0.8749593024758099,0.1876728705080673,-0.12368550844014248,0.008621729003052863,-0.0034623776505984046,2.3171346018895735,33.114487,0.6510307767343368,24.93051725544514,-35.7024682513128,44.21784763340032,-15.093956366147705,8.025286,34.710000000000015,1
0.8758576168111355,0.1875407045940674,-0.11478112815717237,0.06153861189840653,-0.003645857874557557,2.3181280403081432,33.116634,0.40005348810463626,25.164068599091,-35.989347502626714,43.98579299527239,-11.204700852715526,8.034240000000004,34.70999999999999,1
0.8752529077508515,0.19279662555742688,-0.10919747320209705,-0.07374136399457991,-0.0027833605722227903,2.31652733691976,33.115234,0.5339354950330759,24.983438542692742,-36.00928722770775,44.178945648348936,32.09991363570941,8.038077000000003,34.70999999999999,1
0.8765142138173937,0.18763011121434878,-0.10479569712804233,0.04422645000361944,-0.0032890107289430333,2.3152035481519464,33.117287,1.270014294501381,25.111735268731657,-35.985579151611404,44.115406219469556,-19.98614128459682,8.029123000000007,34.709999999999994,1
0.8767743427056446,0.19243138371465815,-0.09235924752203825,0.05082340520374818,-0.0029769260796046774,2.316679867928414,33.11748,2.2719965162690317,24.760031968114507,-36.03378068157348,43.914385797622,-3.1143220239811207,8.016331000000003,34.709999999999994,1
0.8758424348122755,0.1954912486421026,-0.08813947015763783,-0.07550501666931422,-0.0044928833969082255,2.3156818114397417,33.120197,3.6750664716863124,24.839516241071486,-36.12746912636415,44.08061137719837,29.48503431940727,8.021447000000002,34.70999999999999,1
0.8761254767812326,0.19733960321605853,-0.07793857566851811,0.07065390611253326,-0.0032003139313900326,2.316127077042918,33.116756,5.012161804507551,24.509518985225853,-36.56011380325709,43.921163754865596,-21.961194363224124,8.011213000000003,34.70999999999999,1
0.8754644555733944,0.19693760695257462,-0.07566682292639698,-0.02825054301678045,-0.0030391852035207174,2.3167768112635763,33.120457,5.837609794268576,24.54589981703696,-36.43240886759502,44.07779857330348,-5.117332886862754,8.012493,34.70999999999998,1
0.8751788110813574,0.19738372670250112,-0.08758487179275201,-0.03871117165557836,-0.0027644358336314694,2.314650352565939,33.121662,5.812664705166628,24.709455687596634,-36.25911675574885,43.923071665854536,22.909832617055304,8.000979,34.70999999999998,1
0.8758492253323603,0.19394764458514252,-0.09721858850545195,0.08349361555850512,-0.004125241200747913,2.314609236125869,33.121204,4.219078393371737,25.023954062905847,-35.94918232996176,44.07606312824827,-28.30951162279243,8.007376,34.709999999999994,1
0.8754548750332946,0.19467486294310585,-0.10296812275431383,-0.05533030062093677,-0.00344691997223792,2.3157206752584685,33.121628,1.6029350463256622,24.864165526135142,-36.1432772147105,43.924843683208096,9.326179676225362,7.9958620000000025,34.709999999999994,1
0.8744288771585089,0.1907133502235278,-0.11330848342131994,-0.013863493948991145,-0.0031127348104597412,2.316381033264694,33.12388,-1.1709271353815693,25.114880823769585,-36.00178079921217,44.07419893801972,8.912257658252434,7.997142000000003,34.70999999999999,1
0.8745172020262599,0.1932444444155126,-0.1102205822616531,0.0667508478358613,-0.0026426967235212754,2.314251383377038,33.123463,-3.5412447738318096,24.894943636505698,-36.00470880206866,43.92680532310685,-27.29626868369508,7.9920250000000035,34.70999999999999,1
0.8750994018991387,0.18922760211159934,-0.11556549815065806,-0.07196724887884749,-0.0025100746024067696,2.3139880013247582,33.127735,-4.928035444943523,25.098633156323128,-35.99393817555747,44.07215095405441,34.31729736283424,7.999700000000003,34.71,1
0.8749719511903374,0.18852127610155842,-0.11607348611842032,0.01567598567583955,-0.004091305844842143,2.31579020778844,33.122967,-5.489537750424256,24.90627270791162,-36.0066796830014,43.9289244182354,-5.206828729201288,7.997142,34.71,1
0.8756837010184763,0.18894979205131335,-0.11415077946836426,0.06374180259998005,-0.003300683312521053,2.3151704753727445,33.126507,-5.546757846062504,25.08959755394669,-35.992763699697306,44.069975494411814,-16.485741216497757,7.975394000000003,34.71000000000001,1
0.8751803191258338,0.18781505749699814,-0.1161546319162727,-0.06160117425381724,-0.0028005189279087786,2.313449113732337,33.12521,-5.235689928412726,24.914133053850414,-36.00798233453943,43.93114373622622,40.964169561864765,7.985629000000002,34.71000000000001,1
0.8744550950328506,0.18947619149019743,-0.11764389157482284,-0.024347596656584914,-0.0036528602989687985,2.3133529611201835,33.126907,-4.645061298787607,25.082317743115823,-35.99079137616674,44.067721869546624,-28.64209442521578,7.985629000000005,34.67999999999999,1
0.8748736410985989,0.19007270419637962,-0.11708889848529824,0.06576760372365055,-0.0020766468714033402,2.3145080691320734,33.129677,-4.055408119985811,24.921016645105983,-36.01173639949041,43.93342553564198,0.30618365627450755,7.993304000000001,34.67999999999999,1
0.8752171111328368,0.18489578777674864,-0.12186961298951461,-0.02616870406182114,-0.004055682910090365,2.313023495897049,33.13078,-3.4562533567788694,25.203469490068635,-35.854660030634605,44.06541393933236,38.89727704558005,7.9753940000000005,34.68000000000001,1
0.8739731084076208,0.19068846235535167,-0.12465040402307509,-0.07424154505723078,-0.0032181138077135595,2.312575371905619,33.129772,-2.856968671288184,25.212682000809163,-35.87936771621848,43.93576296628731,-32.189895578393426,7.976674000000004,34.68000000000001,1
0.8744700111150231,0.18722377294245734,-0.12458604797048982,0.04276812657450925,-0.0025539844503740957,2.312441715967344,33.13035,-2.3126276240625248,25.15948984860129,-36.018254480654356,44.063035492854404,-3.6755610818010958,7.966439999999998,34.71000000000002,1
