chest_ACC_1,chest_ACC_2,chest_ACC_3,chest_ECG_1,chest_EMG_1,chest_EDA_1,chest_TEMP_1,chest_RESP_1,wrist_ACC_1,wrist_ACC_2,wrist_ACC_3,wrist_BVP_1,wrist_EDA_1,wrist_TEMP_1,label
0.7400314515294638,-0.0728280960250306,-0.5742650916845717,0.10840420979160272,-0.0026263620606340682,2.812970304442282,32.855232,2.4700441631271666,-23.78907423419466,-44.419462070558026,-39.56419993617814,21.63917746173452,0.3034490000000001,32.000000000000014,1
0.7553972030807374,-0.09717240277649432,-0.5440162253056939,-0.02611858711581913,-0.0024919777317713686,2.816888736905606,32.856503,3.8983077376854576,-22.93607572855494,-44.589893398130236,-41.8382946631871,-13.837885768889485,0.29577300000000006,32.00000000000001,1
0.8008472206901691,-0.12316679223359468,-0.47721529540516655,-0.03989225832663841,-0.002599019753358511,2.8100771490713417,32.857635,4.181306165966237,-23.323231418341884,-45.32035502678868,-38.20627966439928,-36.546340350821666,0.2919359999999999,32.030000000000015,1
0.8125651715944944,-0.12787913435801412,-0.44642816449425954,0.11688641900673466,-0.0023764496323002197,2.8199106293323837,32.85916,1.4287381351470485,-20.903454671854615,-45.138507720715,-43.082001501662816,-17.719881171291203,0.29321499999999995,32.03000000000002,1
0.8403276348793461,-0.13586641434130053,-0.34889009549677336,-0.0146320563471421,-0.0030171669034673465,2.8088322703221307,32.85753,-3.871316297593441,-24.68289584780501,-39.60769435381954,-38.737075227511575,-16.760225866055137,0.2855390000000002,32.030000000000015,1
0.8586658729753894,-0.16106521832579632,-0.3597931984262413,-0.061186692866782875,-0.002763550303053296,2.8822398551388564,32.864532,-9.592370079530447,-29.140281181015883,-41.31163911428812,-39.54495015333512,-42.69064043037651,0.28809800000000013,32.03000000000002,1
0.9257434756230121,-0.19804301852907225,-0.17376604310914937,0.10174617646793459,-0.0028190805761351815,2.9244426414478775,32.860985,-14.95062589859789,-32.620603560481754,-34.611352074752716,-44.75513945449839,-22.352185038352673,0.2868189999999999,32.03,1
0.855917759200114,-0.24819287511694657,-0.17776215747108662,0.16385871448454223,-0.003091050798401207,2.8444270640015645,32.865276,-15.404862581917138,-34.19868103666348,-32.66547686298141,-48.9995095478666,63.63645290938306,0.2868190000000001,32.03,1
0.864959361326033,-0.2616042606857893,-0.29393678761999154,-0.05248904177584606,-0.0026805739444466558,2.843424873678735,32.8635,-11.6431644131641,-31.03041273445625,-33.58527891232712,-47.70599930893789,0.006244595125316439,0.28937700000000005,32.03000000000001,1
0.8318021256174989,-0.1504857954382019,-0.40569536514034366,-0.05554847900089943,-0.0027656194378740707,2.8317350305690816,32.864574,-10.215463795107395,-32.80771363538516,-36.035822522023544,-43.75170093832332,-67.69771617456419,0.2906560000000002,32.03,1
0.7914581780455463,-0.017522621421771606,-0.4853709366723614,0.03708360117154786,-0.0038239194531907877,2.838867718956492,32.86595,-11.606995380460281,-36.44946893606262,-41.949693001321904,-28.905621604299238,18.361296920758225,0.290656,32.0,1
0.7285070969036705,0.05430233903718792,-0.570716501380577,-0.08293502503242979,-0.002651210971694126,2.8503890098498417,32.867348,-13.475803386110147,-35.30747720127331,-45.15532591560049,-27.18784502847771,22.530994689636902,0.29449400000000014,32.0,1
0.7038573000585603,-0.04313979732126776,-0.637791352415013,-0.15048470161184074,-0.002646675573179336,2.8453755985322333,32.863785,-9.73355427574753,-33.70250290855992,-47.866718804735896,-26.045036732932484,-53.284454202468055,0.29577300000000006,32.0,1
0.6942701473772673,-0.055007554491902234,-0.6045444780754232,0.019908261211865702,-0.003131431337547517,2.849559430036483,32.86919,0.7524249247364895,-31.571918861181143,-48.32832444380546,-24.603206342146034,28.576090008235173,0.2970530000000002,32.0,1
0.6465188216220156,-0.05435301064029766,-0.7138695601403926,-0.044796069166508544,-0.0027269555297897295,2.852032492749218,32.866116,10.855126687933907,-38.781935670885325,-46.781254928547014,-27.115926719443554,102.43891700463764,0.298332,32.029999999999994,1
0.6221233110004711,-0.006122113823827191,-0.7273265539463872,-0.11160688358769304,-0.002950187677909077,2.875410435091318,32.86673,19.51821296738676,-35.43260849713324,-51.985682807243265,-18.106396469228937,7.129755967263159,0.3008909999999999,32.029999999999994,1
0.6577975550656949,-0.013175431591358302,-0.6605917351032052,0.14397992726007267,-0.0036270983633247987,2.8625804947159508,32.865643,25.96716989106146,-32.97169993790587,-50.24273811169706,-14.895801622664438,-25.852368010936917,0.29961100000000024,32.03,1
0.67518581992335,0.013664383569829713,-0.6662943431379326,0.031158382541080096,-0.0031871119680863163,2.8518104947074496,32.869328,25.591938213749916,-37.61973638892266,-50.08705884128507,-19.102372373952594,14.153212255124197,0.29705300000000023,32.029999999999994,1
0.676949245580643,0.027395138064312003,-0.6551809205848746,-0.04032252858336701,-0.00303552142884126,2.846339590658202,32.86827,20.611130892515163,-35.09092483496727,-50.477147017994035,-16.92145718889043,-35.182629857232804,0.297053,32.030000000000015,1
0.6713971145210027,0.029553916873852417,-0.6575692700058768,0.07378363333871088,-0.00247371214681107,2.843249072362839,32.876728,14.74606979173877,-37.600977549921964,-48.527218659273416,-19.094063719448258,-49.818584652738224,0.298332,32.03000000000002,1
0.6792405362457321,0.007035022123001711,-0.6433284987216806,0.03527045915331438,-0.0023262107342829595,2.8406850320998807,32.87138,9.176176983271002,-37.416387503647464,-48.01080497411359,-23.13377680814611,50.875685070866574,0.29833200000000015,32.030000000000015,1
0.6672928579589572,0.014300641650238834,-0.6679755864098108,-0.08199634958537033,-0.0029626055371567484,2.834881822444395,32.87304,4.469980249077506,-37.4723437945611,-47.42881556782461,-23.461228270078205,-16.45388350729127,0.2983320000000001,32.03000000000002,1
0.6614468633744239,0.022179255544407233,-0.66841715699655,0.0464470783359808,-0.0033904766790501784,2.8343365719931177,32.875507,1.3481344131185724,-35.37212711414735,-48.29560487486982,-27.335930876414082,-26.596656378677658,0.29961100000000007,32.030000000000015,1
0.6615304345224879,0.01062334808287586,-0.6697865605201302,0.0009447690270380919,-0.002655369379289339,2.834318638994654,32.87918,-0.24881748839070053,-30.94162689426833,-49.46111650843732,-25.270091172018677,67.55096672667469,0.2996110000000002,32.03000000000002,1
0.6679315460721587,0.017830959216274266,-0.6673260634800035,-0.09507699401129677,-0.002593893037593379,2.8322724042920875,32.87491,-1.346639331578579,-25.22421720447012,-52.167828247928114,-27.669140686105205,2.8454347786045826,0.29961100000000007,32.03000000000002,1
0.6723939648521982,0.006858557467659754,-0.6557986517829519,0.038956026876455656,-0.003010387399086892,2.8305108122884923,32.88026,-1.3329390864498318,-20.961862459330337,-53.31815721017519,-29.275761346021547,-19.797563281180196,0.29833200000000015,32.03000000000002,1
0.6636556822810872,0.01632065300164339,-0.6660290020978015,-0.01932526422904531,-0.003228147182107173,2.8292267829176576,32.87706,0.17370749570929112,-24.43955984464127,-53.18639807958213,-24.596437456394934,59.86182270230147,0.2970530000000001,32.03,1
0.6652595057293865,0.012520068777642087,-0.6593361198292259,-0.05738296672289342,-0.002465059258887341,2.827568755955921,32.881474,2.241578962104153,-29.470507079206566,-51.98380911283458,-24.243073055303327,24.367068378521637,0.298332,32.03000000000001,1
0.6645931695353561,-0.0012143699148302726,-0.6671039349094506,0.1167752837294043,-0.002894431165633671,2.826820440537831,32.880642,3.429357168789746,-27.464684754554398,-52.70697315445269,-23.408980151063417,-26.391025967667485,0.294494,32.03,1
0.663261162819886,0.011671080443471642,-0.6663697511665281,-0.007257720484881991,-0.0020399075898012366,2.8258067173123127,32.883965,2.785378049928116,-28.757267076979794,-52.463170304612156,-24.01541846572881,75.3920342307175,0.29961100000000024,32.03000000000001,1
0.6632012279611852,0.008376951478452627,-0.6705128323201212,-0.016937230426473236,-0.002355373651882545,2.8227619595724995,32.88294,0.42092756257930214,-27.81059942415675,-52.60338535042828,-22.917821726644096,-8.627574126789211,0.2970529999999999,32.00000000000003,1
0.6646079633129678,0.005913788308193024,-0.6657400235511485,0.09176540445610629,-0.0028038420915429494,2.8239984770141766,32.887524,-2.2974951046687715,-29.2407908022469,-52.262304605905165,-24.80753962344826,-85.92173272103712,0.29833200000000004,32.00000000000003,1
0.6630778959243611,0.007642229507074147,-0.671722728847225,-0.04507339745966464,-0.002534308305321136,2.8231668018329543,32.88451,-4.052756542208942,-26.67987543221432,-52.92925614553404,-22.923254694341853,10.232127851937737,0.297053,32.000000000000036,1
0.6652474238639676,0.006957044334951726,-0.6639473922057538,-0.03956207258882644,-0.0037714254276424203,2.8230120639903,32.88532,-4.941861611688484,-28.764140799174022,-52.65277920763795,-23.755250751634314,-15.291890352265145,0.29321500000000006,32.00000000000003,1
0.6643303859671671,0.009966290126525213,-0.6674009039954921,0.08104957127571324,-0.0023305740495523663,2.824132818103308,32.88428,-5.248160325778318,-27.460261646801786,-53.09072707913866,-23.615416006545615,-11.275623944606139,0.293215,32.03000000000001,1
0.6640679555659191,0.0073234861580734,-0.6663886143579284,-0.03806154767606004,-0.00262763564946645,2.8242883553616105,32.88824,-4.783526890229759,-27.406915348463436,-53.478154436845934,-24.067866780815976,35.33311991053829,0.2919360000000002,32.030000000000015,1
0.6641975284261195,0.00573403472269348,-0.6679999602798703,-0.05492025435751001,-0.002498034755174549,2.8234546292239875,32.88771,-4.200373806746439,-25.362598089867618,-54.077126219929845,-21.109518131617442,-21.96133274328326,0.29321500000000006,32.03000000000001,1
0.66396633020354,0.009396106724237446,-0.6660572147488619,0.0717561233580739,-0.00233817475754398,2.8236439418313757,32.89008,-3.6682796291268747,-26.51471853977672,-54.33766441027249,-21.62770201238714,-12.315982047852478,0.285539,32.030000000000015,1
0.6622746674854516,0.003198364740442164,-0.6691556522283537,-0.004865359429647997,-0.0029612767967681477,2.8220669691864013,32.888218,-3.07052832564221,-25.194950563245197,-54.40038264224343,-21.157134161820014,44.02414342576215,0.29193600000000003,32.03000000000002,1
0.6656397794489892,0.010115892320037657,-0.6657798464036944,-0.07607687361515247,-0.0034578299855209022,2.820841793443616,32.89098,-2.474019281729057,-26.808046369639886,-53.59945136322293,-23.55435216201272,-22.82930776025928,0.29065599999999997,32.030000000000015,1
0.6651111812727237,0.007209670556945988,-0.6669810689751,0.0587635836026353,-0.00212594761045882,2.8204902137873624,32.89102,-1.862990965886925,-25.39536330881297,-53.126334335291574,-24.74222339701236,-25.112688320617348,0.29193600000000025,32.03000000000002,1
0.6660285409360276,0.007229560047442747,-0.6635002581773413,0.049586108016784446,-0.002750914956328157,2.821345471887883,32.896168,-1.162750091975239,-26.758347829824686,-52.85580975013573,-27.031586097041778,40.57738481963211,0.29065599999999997,32.030000000000015,1
0.6658269520696198,0.006490388373593921,-0.6663748606687101,-0.07629443407077574,-0.002801419270961257,2.82096498126511,32.891613,-0.6590007363112398,-23.754119492625755,-52.413934351808805,-24.74327413868869,-14.633540395268371,0.2919360000000001,32.03,1
0.6651004304953647,0.010458915015434838,-0.6674163721878169,0.0024113117010408918,-0.003049435118065242,2.816623143594386,32.895237,-0.2765119278906551,-28.851884423415584,-50.10403843572545,-29.94316229973073,-18.294797505769623,0.29449400000000014,32.03000000000001,1
0.6630240292108266,0.004934800136561273,-0.6675558899399181,0.08315206329503123,-0.0024803002441729782,2.817763038585865,32.894367,-0.10658876078151833,-24.264567983593896,-49.95480956357886,-29.80579006766985,52.71665427103517,0.2932150000000003,32.03,1
0.6657415556800609,0.005526052533842459,-0.666008035189702,-0.03304754045093847,-0.0028334386313413214,2.8204797419193066,32.897396,-0.11809267271254106,-25.685973126141555,-48.302525380415865,-35.58777383841415,22.437091260154713,0.29449400000000014,32.03000000000001,1
0.6728956478427541,0.016205984869774776,-0.662612616268716,-0.09424181007135214,-0.0019018387685845162,2.820234885351204,32.897263,-0.08436950920362406,-31.460686254957395,-44.93737760287754,-29.85649521600801,-47.7564127834631,0.29321500000000006,32.02999999999999,1
0.6735588287390756,0.010122938465549807,-0.6536657371579585,0.04581148221656412,-0.0028737288261116507,2.820102462846036,32.899704,0.9191479032716141,-32.28173907506893,-44.138095552581326,-40.25440004619005,22.494401915264202,0.29449400000000026,32.02999999999999,1
0.6785319348234743,0.007586228569366881,-0.6504700754395764,0.01831098422320427,-0.003024222483501074,2.821922425630271,32.899273,3.0102555997337666,-49.25627395551193,-35.934896704995126,-18.417019356544046,33.29803701448529,0.29449400000000003,32.029999999999994,1
0.6762841488460529,0.011334595625355989,-0.6451867674402249,-0.08885428536246781,-0.001988312933788952,2.8211525969022633,32.90231,5.255493443555372,-28.733676263625863,-44.886424816814305,-44.747967605161804,-51.22743955794825,0.2893770000000002,32.02999999999999,1
0.6808937201108052,-0.0052632123278385165,-0.648470138893467,0.09066862479464932,-0.001841304648199577,2.819424555531756,32.90005,6.576235177547134,-38.81013265577814,-45.62785460042785,-19.30085234759193,-60.46983600534362,0.29193599999999986,31.990000000000006,1
0.6842015919865836,0.01677565893361115,-0.6413946430005879,0.09437223629587399,-0.002947606250985286,2.8187671818421833,32.904152,6.054218752166662,-38.176790108785035,-46.37807625507848,23.510155703735574,61.53594705106646,0.29449400000000014,31.990000000000013,1
0.6735916209733052,0.018420391198515348,-0.660988021042032,-0.07772564836831138,-0.002377038109140084,2.818663240742057,32.901012,3.661469512328041,-13.356574204862847,-58.56604649515855,13.55910798553171,69.63118942484401,0.2906560000000001,31.990000000000006,1
0.6706067833322594,-0.008795109761477475,-0.6573530222511013,0.01475420874990343,-0.0028331452564165508,2.8182869355368454,32.905643,0.8616304861831834,-20.62721226479532,-57.49819568414104,17.37545662070888,11.67300828977325,0.29065600000000025,31.990000000000013,1
0.6719848586379644,0.01269432552360965,-0.662320194120815,0.0650996746846398,-0.0038395228150291377,2.8194480666742874,32.902843,-1.3761520355383188,-21.24074846027592,-59.12457843428983,9.188869161248734,-58.168696741991056,0.28809800000000013,31.989999999999995,1
0.6657861626488362,0.0049172573837652995,-0.6666633501437561,-0.05683321006258932,-0.003087168594836968,2.8200568860505557,32.90617,-2.9014814697973486,-22.330559955595138,-57.397864127582814,14.811182703769374,-51.107123590438285,0.2893770000000002,31.98999999999999,1
0.6659684287098233,-0.003583633622445488,-0.6673175926613931,-0.023124523187831637,-0.0026585321456839644,2.8188378984592477,32.90525,-3.9375269533369717,-22.915863022129724,-58.5488407804735,10.826304881334625,-9.1758046396889,0.28937700000000005,31.989999999999995,1
0.6677262535673867,-0.001164821014939664,-0.6671618388650006,0.08607529705978557,-0.003364346835891907,2.819472654106637,32.91113,-4.368950059296362,-22.17832805808153,-57.804789288487136,13.299994856651512,-28.509342956788213,0.286819,31.98999999999999,1
0.6613363621198516,-0.00027162354683039046,-0.67303275260145,-0.06372121959380507,-0.0028629896800341607,2.820778839498111,32.90668,-4.102677630292976,-22.74442986872783,-58.32679718221512,11.235204749890933,-45.64504966262793,0.286819,32.03,1
0.6677607459508574,-0.002892099742912532,-0.6636472729693621,-0.08322448495335442,-0.0027664409532191956,2.820963668590383,32.909744,-2.907208906725633,-21.448843337361918,-57.841692043554374,13.159591906843799,-67.8666879258638,0.28553900000000026,32.03,1
0.6753405524830141,-0.008193300948244173,-0.6556935529786909,0.07441005441759573,-0.0033047099339069096,2.8214527744420943,32.90972,-0.6637801077434841,-21.77199037023007,-58.85765145809186,11.02506972285098,13.930502011997136,0.28681900000000027,32.03,1
0.6743035464834336,-0.005848901994499664,-0.6520084753885007,-0.006589355976690925,-0.0035221303812888577,2.8219236507128356,32.9142,1.9390716701475175,-20.561112662993548,-58.338729473598185,12.762479764147509,54.02387254893402,0.2855390000000002,32.03,1
0.6777872709765912,-0.006565635382528526,-0.6547531836688922,-0.05940096956954679,-0.0028019548173892762,2.819268532862035,32.9108,3.8153131345794815,-21.82593109362009,-58.57295481459891,10.978680915558725,-30.0097203423649,0.28809799999999985,32.029999999999994,1
0.6754857674323785,-0.0056367544721892026,-0.6549110449590466,0.10100496616990955,-0.002805598712800198,2.8195847998274526,32.915947,3.736965627367054,-22.53131051141748,-58.04848965039423,12.212740414062717,6.934649703632563,0.28809800000000013,32.029999999999994,1
0.6701660028039745,-0.00362390090018389,-0.6634156161553149,0.02757198879686695,-0.0029962966963761124,2.8202754910986823,32.9126,2.000260099969911,-22.357664401132222,-58.38548527137155,10.28226152461213,58.507538199592155,0.28809799999999997,32.03,1
0.6694282724972175,-0.0035139610684652347,-0.6632462364156106,-0.07787122454622093,-0.002866269793371112,2.8185502280790438,32.917847,-0.44806610260422614,-23.29086812376652,-57.80715533096445,11.202853510972002,-2.8972583500017257,0.2868190000000002,32.029999999999994,1
0.6717709862614716,-0.0024822126976796343,-0.6609313677614839,0.023251782997057976,-0.002631821004738339,2.818046112518958,32.91678,-2.7671873697021807,-23.330793271775747,-58.23269757843982,10.478977552028526,-34.35026725836088,0.28809799999999985,32.03,1
0.6726409868830404,-6.657435757824893e-05,-0.6570662777498691,0.06428361385467142,-0.002563779015502997,2.818308743396028,32.920208,-3.9535866143099274,-23.664477964850775,-57.764982683072425,11.334745397323188,46.0012200500175,0.29065600000000036,32.03,1
0.6703615840038791,-0.0004508903518230268,-0.6630581168651647,-0.0693731138078142,-0.002717825311285345,2.817096923558933,32.919586,-3.813744619827751,-22.824145056782204,-58.23382330090796,10.562032637364565,5.683497176484115,0.28809800000000013,32.03,1
0.6714259131521346,0.0003241051196200138,-0.6596892408288796,-0.033676097499934936,-0.003030452156064352,2.8174322669015193,32.923225,-3.370381631430301,-23.279539190778973,-57.767310599295875,11.412002679875593,-35.19933894965706,0.2880980000000001,32.03,1
0.6705329315278087,-0.001656684937816887,-0.6623497712448098,0.0689037775101934,-0.0025110153194320044,2.8172342733183284,32.923008,-2.8983817924033257,-23.344944015121946,-58.23315612659303,9.839291690893592,36.41781114710294,0.28681900000000016,32.02999999999998,1
0.6700197704585688,-0.0004806898888905384,-0.6612909869002508,0.02842923749343659,-0.0032602161383613808,2.818627623329659,32.92361,-2.1438171226980676,-23.361702325849237,-57.762092475879776,10.38721959160988,36.32184157296134,0.28681900000000005,32.02999999999998,1
0.6698965195431751,-0.0013102436548550203,-0.6654460474203842,-0.09063200754904917,-0.003038987314945227,2.8179333588189435,32.92224,-1.5142575806878016,-23.13469039682369,-58.26183603930341,9.740603106683865,-47.98093171725098,0.28681900000000027,32.02999999999998,1
0.6707467836934387,-0.0022206209166227395,-0.6609020084888614,-0.012775005279992561,-0.0028241766002567747,2.8177893870863433,32.92814,-0.7226182281709372,-23.50199172853847,-58.228931020521884,9.759023321962154,4.178683924013454,0.288098,32.02999999999998,1
0.6693183742229677,-0.00439967362119704,-0.6641446711204596,0.048114922737518606,-0.002976401495010195,2.8193194267766843,32.925243,0.6761150006825092,-23.32795713705137,-58.4163447713825,8.718526643388941,62.77415400052,0.286819,32.00000000000002,1
0.6672523811692519,-0.00818550517052132,-0.6611608405552605,-0.04135266037407982,-0.00173614587524355,2.8197555054036347,32.92662,2.461501558882427,-23.239119742423842,-57.96598979781592,9.636291491494712,-2.0230946503728755,0.28937700000000016,32.00000000000003,1
0.6716292596447787,-0.0059231758093163025,-0.6607403065653977,-0.04900315146868871,-0.00257882764346319,2.8192050159151454,32.92735,4.179236658204279,-23.308882971746016,-58.27031097018326,8.724869807754178,-48.30768432568778,0.2880980000000001,32.00000000000002,1
0.6713759334439331,-0.007352813637944754,-0.6583772003808843,0.11938092625426693,-0.002980785050955052,2.8179317011840395,32.92962,4.871052636438506,-23.585200123699238,-58.00235131615797,9.744550300986885,35.88262484059148,0.2880980000000003,32.00000000000003,1
0.669730930501087,-0.0062335682615154535,-0.663483184560025,0.023715499347230683,-0.0029900862410527146,2.818664616575141,32.929897,4.081606469196716,-22.900476375041592,-58.40527648125257,9.004887746151459,40.489534090585906,0.28937699999999983,32.03000000000002,1
0.6702972165884594,-0.005653186502490884,-0.6627186621639498,-0.06169771222549966,-0.00273432870357331,2.817921457295732,32.934902,2.098595811090331,-23.523831882045528,-58.44628722057212,9.51764785409125,-33.02779238420234,0.28937699999999994,32.03000000000002,1
0.673606854795171,-0.0012656203427368821,-0.6584845085780021,0.03076322682099391,-0.002461829814827719,2.818041546454881,32.930225,-0.3127953775756369,-23.121058567395142,-58.19014774572921,9.181421534295929,-26.477374768013213,0.2880980000000002,32.03000000000003,1
0.6724945030079641,-0.004043227600564873,-0.6593412895332045,0.06736184006909107,-0.002525961010641501,2.8184407160256892,32.93324,-1.9544831217920058,-23.29055013386437,-58.40353200669853,9.656330055578447,46.58345625041878,0.2855390000000003,32.03000000000002,1
0.6709338123560074,-0.00241072710430144,-0.6623144317127525,-0.06791858517378457,-0.00224122014265519,2.8180570529881095,32.932693,-2.4648695016964353,-22.66330852602262,-58.4969375541747,8.66748096757977,-13.785082146395853,0.2880980000000001,32.0,1
0.6719871592621812,-0.003143789778495252,-0.6591102455653954,-0.05072606907380993,-0.002386983852110108,2.8169130473371107,32.93686,-2.446588760793304,-23.509554201697295,-58.04815134120292,9.543421123562194,-26.12862579880676,0.2880980000000001,32.00000000000001,1
0.673367311827637,-0.0032378530198366993,-0.6596522680137967,0.061434040026885454,-0.002458220784783061,2.8167243026889013,32.93786,-2.1118460891358173,-22.822054539864705,-58.39684011461626,8.702248290157062,35.91093849334968,0.28426000000000007,32.0,1
0.6697894306450215,-0.004815681402201798,-0.662573138092345,0.01122356964991604,-0.0032878761350391607,2.8174589756926665,32.940174,-1.4002373810049566,-23.155544589611175,-57.93190137363018,8.832796129988552,29.48112152319743,0.2868190000000003,32.00000000000001,1
0.6685598976569981,-0.005781824065688254,-0.6642131273573993,-0.10848475522438449,-0.0028486082800678616,2.8177628811296596,32.940403,-0.3456659220627584,-25.31802033642688,-58.41537885513326,7.156579479763551,-48.412473831184634,0.288098,31.99999999999998,1
0.6706417878361579,-0.006673813358542891,-0.657869245278647,0.01654803925604148,-0.0028772328136174273,2.819277747230134,32.941452,1.120096241192684,-24.650303720756813,-57.74349096286916,8.37318460385185,-4.250414793237985,0.28681900000000005,31.99999999999998,1
0.6711588212632004,-0.008122505035189052,-0.660268637850985,0.1037721005071157,-0.0025453804008068177,2.819400967132324,32.940342,2.8123391209357664,-24.632749759764113,-58.24032585424946,7.475046517937885,44.08255059875665,0.2868190000000001,31.999999999999982,1
0.6715641856749149,-0.004997259375058993,-0.6607443279097792,-0.03708296549610922,-0.0032627984094213986,2.8169118386207876,32.941795,3.58110248505115,-24.26006365651596,-57.7659829451953,8.882233707717141,-2.4270179355962243,0.288098,31.99999999999998,1
0.6702931678281253,-0.00542115584727348,-0.662147314238483,-0.025454167269483186,-0.002034773154639391,2.8169758726791443,32.9417,2.641405503595338,-24.57011351055165,-58.22648040418205,8.023546442429698,-50.05057104827995,0.28809799999999997,32.00000000000001,1
0.6728955747276362,-0.00604691540409473,-0.6593339949890792,0.08296686175069505,-0.0019384007003693969,2.8181604265829168,32.94458,0.8389962913339187,-25.765234844531697,-57.61718036335897,8.848265377429264,21.90019828412378,0.2880980000000004,32.000000000000014,1
0.6714237616433705,-0.0030966127669381917,-0.6597857965092545,0.0036452914628800253,-0.002808045008284322,2.8176259664256955,32.94417,-0.7802451673139998,-23.277162432188096,-57.929376368082295,10.919088748476675,21.86745086465399,0.28553900000000015,32.00000000000001,1
0.6711990070733908,6.720637036834796e-05,-0.6603367045444858,-0.07677644805291521,-0.003296851621346829,2.8159606007085856,32.945087,-1.84216096404684,-25.41891452975315,-57.33353072557492,11.058159583715934,-36.771433526935866,0.2868190000000004,32.000000000000014,1
0.6743615959632248,-0.004924972129145984,-0.6575562983309542,0.026293035775299376,-0.003147373819953786,2.816465595786433,32.945873,-2.375730365110279,-23.511526029607055,-57.95393875117073,8.590114461222454,-8.301999095669155,0.28809799999999985,32.04999999999999,1
0.6689280897800204,-0.00025370799371133695,-0.661785250693868,0.056934519323989685,-0.0021568802184277133,2.8137590278958484,32.948177,-2.2184629924209744,-32.87010777088862,-53.78428162765342,9.714437201940674,68.59773988624235,0.2817019999999999,32.04999999999999,1
0.6734507936165826,0.0004876281431018739,-0.6600110750486541,-0.073004808018647,-0.0031811559155898784,2.8167276561740535,32.947052,-1.743110675308104,-36.11592948945027,-53.38918254315576,5.928487829735406,24.42545137642113,0.2855390000000001,32.04999999999999,1
0.6734763752496749,-0.0008296596584632994,-0.6598506191478839,-0.030986307034751585,-0.002886629682771457,2.8161197992571694,32.951138,-1.463309749750929,-34.054722430880126,-53.78952492834852,4.070381602488836,-50.78786011579577,0.2868190000000001,32.04999999999999,1
0.6745103023453602,-0.004142657175139283,-0.6574585335761165,0.057673018950117665,-0.0032739657151669302,2.8169521078072775,32.951363,-1.2054652176013003,-32.63955052649728,-55.16958078360081,2.80645107952834,-37.85931293751428,0.2868189999999999,32.03,1
0.6730046330051926,-0.005924202067874487,-0.6574774143614484,-0.04765765092068568,-0.0033471874693076302,2.817525600337824,32.951885,0.05075239597117176,-33.48695948083023,-54.172837153339245,4.51609374710499,-11.492269874374125,0.28937700000000005,32.03000000000001,1
0.6737466475195218,-0.0070454913331797426,-0.6558228082434197,-0.07480436679398385,-0.0027581197644676717,2.817784931325564,32.95283,2.076473097525723,-34.912957418261534,-54.300357644889566,2.1827321328505964,-38.1151737432124,0.28298099999999987,32.03,1
0.674800601485743,-0.009474682558873274,-0.6537934962714791,0.1108890825565816,-0.003114173310291992,2.8169583663342235,32.95406,3.810511915917855,-32.89307735340734,-51.38692150738687,10.85427872388071,22.582919685291273,0.28681900000000016,32.03000000000001,1
0.677783887279454,-0.0030847646643195827,-0.6546354864956839,0.04334863766150696,-0.0024167806369602652,2.8179444498611157,32.952858,4.403186581545841,-36.68868854969697,-50.864886195140116,-5.122674980837436,30.27311471235379,0.28937700000000005,32.029999999999994,1
0.6737079012800736,-0.004020065263298776,-0.6585664227023864,-0.05801023419609977,-0.0030041536596710984,2.8174735972102805,32.958096,3.252275388433722,-36.33511651007447,-50.18176511092552,-18.00962544617544,-16.149492115577996,0.2932150000000002,32.029999999999994,1
0.6744629231115553,-0.0037139910978684497,-0.6579762274203699,0.05072480089654241,-0.0031328348617027414,2.8152580372090092,32.958344,0.967169259767518,-51.7908814195591,-44.10691386833518,-1.7456217799877192,-10.474016218098498,0.2996110000000001,32.03,1
0.6732132860835542,0.0033627935901791943,-0.6558313238622611,0.054669497536680975,-0.002677419494087176,2.8186742853618822,32.95836,-1.0251157946773088,-44.19087367555709,-47.731307746879324,-2.125028432454107,179.14736591206707,0.28809800000000013,32.029999999999994,1
0.6750184527182,-0.0011547133475418546,-0.6586537722084114,-0.08106198291058381,-0.0026127347840985225,2.8175783741746345,32.95956,-2.2372024239209094,-39.239233097100744,-50.492768238252296,6.918908080908987,40.306620779540985,0.29193600000000025,32.04999999999998,1
0.6740636561754056,-0.002547596097439187,-0.6602281048337774,-0.025604254737163684,-0.00247928567724601,2.817327450432935,32.961273,-2.8869209957124373,-27.43132670704814,-55.44063684468638,5.893479415539144,-94.24033159506259,0.2919360000000002,32.04999999999999,1
0.6745157303017878,-0.005138723872144471,-0.6580610298721756,0.04824744210576337,-0.0029062198245319738,2.8170281983997207,32.960915,-2.6321602795424446,-32.11468384550276,-55.646464729766734,3.9888252486643787,-66.6090986572208,0.2893769999999999,32.04999999999998,1
0.6704474726765546,0.0021765380614719126,-0.6606229418712132,-0.07352582256984326,-0.0029684094565807814,2.817596377492479,32.9634,-1.2904269236715815,-30.637448453647973,-55.20636291400522,7.109917088348448,-130.67170601579477,0.29193600000000025,32.04999999999999,1
0.6726595210986309,-0.005893685152496609,-0.6596014433370284,-0.06805152199983842,-0.002222008851209953,2.8171072103208403,32.962765,0.8735393106303624,-32.30671443324827,-55.59294448221758,3.0760430046328375,-58.69408474494899,0.29065599999999997,32.05000000000001,1
0.6729497881510924,0.005703628872342913,-0.6516038960415045,0.09388410328262398,-0.0027447298906689167,2.8162162117593392,32.964943,3.114353951094187,-31.808448923280032,-55.23571421816394,1.830186378205197,-7.18652638880628,0.290656,32.05000000000001,1
0.6767617135292913,-0.007934759040762907,-0.6538972654552843,0.019096865144838774,-0.0028160518146281882,2.8161619829508417,32.96429,4.994076808344821,-31.6614210468004,-55.68921886373309,0.9309099521691976,61.54215578943437,0.28937700000000016,32.05000000000002,1
0.6783914782294578,-0.005880081491529766,-0.6526480141632317,-0.03708700163633034,-0.0027209505772468564,2.814272387271665,32.968826,5.198311646870396,-29.5221855343778,-56.478190435294344,-3.595899549326392e-05,-59.51754060030929,0.28937700000000016,32.05000000000001,1
0.6783862221773257,-0.0020447785464693213,-0.6523320876298412,0.09014734401842758,-0.002503757475101546,2.812708480565515,32.966652,3.196946645489811,-30.79799121332438,-55.894782749796086,3.8091596933673744,1.1491429882337245,0.288098,32.05000000000002,1
0.6743692060011387,-0.0035442123523969603,-0.6573712176059751,0.04061159611631244,-0.002741692872947561,2.8129994593045864,32.968456,0.6808386382888838,-30.339015623385272,-55.75301222292732,5.135886842979457,107.23088356646251,0.28937700000000005,32.050000000000026,1
0.6753498454964164,-0.002957634476670123,-0.6574344340303643,-0.07908185223118629,-0.0028629563465080786,2.8132017278111547,32.96912,-1.6540616993105621,-30.206115918588175,-55.869398009659946,4.451073756545682,15.822155874069669,0.2880980000000003,32.05000000000002,1
0.6747862891539841,-0.0015865362697333693,-0.6562559881928126,-0.0009032372661306289,-0.0029091785228212413,2.813176983561241,32.971527,-3.421467076775701,-30.01037345499174,-55.689870854055684,5.0919550414166315,-8.999863772334134,0.28809799999999997,32.050000000000026,1
0.6737327185347839,-0.002851801029585876,-0.656636487506053,0.0688672065149964,-0.002898481851327802,2.812897091552726,32.970158,-4.3213539001999735,-30.412788293558247,-56.12166356018828,4.834343906221763,57.86490327583842,0.2893770000000001,32.07000000000003,1
0.6734564556392011,0.0003973187468958105,-0.6579348110112196,-0.03993805976095034,-0.002756743531113159,2.813949525451063,32.972977,-4.3520743938085955,-30.584197604081513,-55.85610670969008,5.204230974248697,-10.625786331312172,0.28809800000000013,32.07000000000003,1
0.67553773010783,-0.0009873507440503024,-0.6580025921590207,-0.07430445588380805,-0.001868160385979895,2.8128963693032,32.971256,-3.9096250376258275,-30.676648338915264,-55.86243965959883,4.7508235743511715,-68.232701280934,0.286819,32.070000000000036,1
0.674129658957664,-0.0009818879265692825,-0.6553307728627703,0.026601668956205644,-0.003057213964901312,2.814543826120861,32.97395,-3.0436672085498264,-30.4177039194439,-55.478188860527354,5.084572233814204,30.874019308858628,0.28809800000000013,32.07000000000003,1
0.6721246040998876,-0.002863727982193213,-0.6593027217693972,0.03267980428338254,-0.0028891604224363285,2.8143545383022954,32.97282,-1.3802026618691026,-31.176845963781325,-55.67924569124119,4.962598851483524,66.22703947927322,0.2893770000000001,32.09000000000002,1
0.6705366117058106,-0.003528979378206921,-0.6576875020575546,-0.06735264151981345,-0.003573981349475701,2.8155696163108095,32.97337,0.6707938604039244,-31.223214875166832,-55.11346993045344,4.567497340886072,-43.95295620888897,0.28809800000000024,32.090000000000025,1
0.6741380253627487,-0.0032433042352001808,-0.6562168763388847,-0.015909710427154784,-0.003116365007676423,2.815133229958335,32.975662,2.4295358805990364,-31.965684088082657,-55.15077578616297,3.8941927898579296,-8.860605248224225,0.286819,32.09000000000002,1
0.6773679468663172,-0.0031002879526718097,-0.6530634338955426,0.1255565677096685,-0.0027394787068971372,2.816984130314679,32.97874,3.171311606526334,-31.802495406079345,-54.95075768228355,3.810248889149023,67.39531597420728,0.28426000000000023,32.090000000000025,1
0.6745896863681288,-0.0024257070975849566,-0.658047759990528,0.001469785774907815,-0.0027665289077177927,2.814762801260771,32.975933,2.4727578261531256,-31.91879319660304,-55.27043222392829,2.436466865353291,13.059706477591693,0.286819,32.04999999999999,1
0.6745261768658721,-0.0010754969959660037,-0.6567705988292283,-0.06589320582364752,-0.003212720567433871,2.8129564152891615,32.9797,0.900098526572605,-31.618392878827635,-55.207631704413096,1.759305603076094,-54.29094798215023,0.28553899999999993,32.04999999999999,1
0.6762552120830699,-0.002202598603203601,-0.6549839594222256,0.029231876896649318,-0.002707987834306504,2.8129628829178275,32.9803,-0.6009277994257235,-33.248058529787684,-55.011494883837564,1.05482250636899,7.258918301630861,0.2868189999999999,32.04999999999999,1
0.6741249019289495,-0.0006753920228715099,-0.6554917142502488,0.06360605472909316,-0.0033609402352072896,2.8142600258801402,32.981567,-1.4058948467282564,-32.68433872014014,-54.88844041058213,1.3725868772469585,51.15411440898607,0.2880980000000001,32.04999999999999,1
0.6737498805975934,-0.0019402965922942369,-0.6608637594335771,-0.050600450848629616,-0.0030864990005638002,2.813189057643075,32.98102,-1.861992026305356,-32.783612530937084,-55.09669679335744,1.6484593108017649,-31.0261907821784,0.286819,32.069999999999986,1
0.6752904352833635,0.0009985827961266056,-0.6562140661034556,-0.063570584216216,-0.0032139646139533896,2.8114043676809857,32.98251,-2.241722184566927,-30.630172802027975,-55.78860096131544,2.104904060641989,-34.305233552406946,0.2880980000000004,32.06999999999999,1
0.6763417009728812,-0.003395604036433297,-0.6553887685468545,0.03831413166138744,-0.0026482780468288975,2.8114153417417183,32.98376,-1.9802670571049465,-29.48889453516103,-56.3323153846727,3.055244028035949,36.740590941902845,0.2868190000000001,32.069999999999986,1
0.6703986835839636,-0.002717878213404192,-0.6601251615658668,0.011624851440677753,-0.0028481958080141894,2.8124938047770667,32.983166,-0.6061458268799672,-29.037547051351577,-56.533810056516266,2.5506566752310036,13.722160855692355,0.28809799999999997,32.06999999999999,1
0.6689711911906144,-0.005582285164907452,-0.6637843607725307,-0.09454319910838793,-0.0031456421306555165,2.812646915054496,32.98461,1.2236420139290265,-28.252529202541666,-56.206070208296104,4.867740737996839,-51.059463754643,0.28681900000000005,32.07000000000001,1
0.6693306989737949,-0.005982223579395623,-0.6563146869741362,-0.00201590661458956,-0.0021889674169239897,2.81292170433018,32.984978,2.9508369427047794,-29.81990464402139,-53.53631079690286,2.9918268843143165,-8.678279502027978,0.2880980000000001,32.06999999999999,1
0.6738772207962082,-0.002821425011708004,-0.6562076829690268,0.12377338627576806,-0.0023301651895242417,2.8121122892792982,32.98734,4.368513108083189,-51.015648769353604,-46.439499861201504,4.535265768965832,57.20987038084321,0.285539,32.07,1
0.6779105192279171,-0.0025898839078368602,-0.6532399539124063,-0.02859672132375145,-0.003056241902564284,2.812025758699543,32.988194,4.492916247789469,-41.19874290804719,-48.87066991320645,5.570039435683479,8.367321164582956,0.2842600000000003,32.06999999999999,1
0.6765345818412425,-0.004262588752370088,-0.6574754138151444,-0.021591923276496925,-0.0024262079455347357,2.810168949926288,32.98898,2.545755131748982,-34.87997996895452,-52.261343590569005,5.37840242433997,-46.688530223011796,0.28170200000000023,32.07,1
0.6778794317107871,1.9284785161122314e-05,-0.6516939019204554,0.07060982656118597,-0.0028958584180359776,2.8103481880306584,32.993977,-0.17866984488366844,-36.46158367315567,-52.41805965353184,4.880090681129143,7.636786604788812,0.2829810000000002,32.07000000000001,1
0.6753952630971067,-0.0005093724348537019,-0.6576176308466523,0.001783004563379566,-0.0029187800781167216,2.810783395249047,32.991856,-2.1302256576813523,-35.19873034963466,-53.45800513807245,2.5028223273035377,3.328467996750433,0.2842600000000002,32.07,1
0.67692305179221,-0.001274633594473472,-0.6541437321824718,-0.09108943637603503,-0.0029703843898848128,2.8096663154563695,32.992516,-2.9440029183398435,-35.906659286576314,-52.99705256248838,2.7386376942598187,-46.32720353339882,0.28553900000000015,32.07000000000001,1
0.6778876187631165,-0.0007406773558697036,-0.6533829705941273,0.04359961193878345,-0.0027501392346387893,2.808807263648411,32.9929,-3.2063327142700553,-34.638368565048076,-53.29391136999179,1.6176506884240685,4.282059232174473,0.286819,32.07000000000001,1
0.6770543066890641,-0.0021425579164293016,-0.6520819737847569,0.04856830907395506,-0.0029151958584866604,2.809661862322212,32.995537,-2.875299941620843,-35.887975568346164,-51.487250673154826,0.8425230138863604,32.75101741110411,0.286819,32.07000000000001,1
0.6768021621917238,4.315578131408558e-05,-0.6551371874408607,-0.07545763179127436,-0.0029748910829694563,2.8089820569579382,32.994675,-2.218012743034144,-46.06876166483007,-46.50574268914268,4.831722242271361,-23.91042917043632,0.2868190000000001,32.070000000000014,1
0.6796449700325028,0.003372682825852667,-0.6491532426036307,-0.008122834395711657,-0.0014952953575095363,2.8088374270111234,32.996655,-1.6444886844894115,-46.37386680607726,-45.85159666779643,2.3025494116136067,-47.88106440495136,0.285539,32.07000000000001,1
0.6785175852570658,-0.00026702497062293704,-0.6522759591241772,0.08444938552459946,-0.0030182797245310983,2.808672153901096,32.997116,-1.2270703415363855,-43.747959038309055,-46.49108205395092,2.323502782947128,27.727659021037038,0.28425999999999996,32.05000000000002,1
0.6776013300487868,0.00027011719125563834,-0.6515118024815412,-0.0428922562341931,-0.003271541587047946,2.810259527375049,32.99851,-0.6277492407016653,-43.36722190592771,-46.65342106104773,1.221406818470982,-15.647168490378796,0.28426000000000035,32.050000000000026,1
0.6793096250765142,0.0012216988952241511,-0.6525784651120391,-0.055598271482944335,-0.0032934874379126526,2.809932517142339,32.998146,-0.03318691672646548,-46.45181919813265,-44.316471896864655,2.8053131848879076,-64.47049078650755,0.2842600000000001,32.05000000000002,1
0.6794712282408044,0.00110428487162665,-0.6496826982561441,0.08222370674592153,-0.0028953089619829266,2.808750122379552,33.001545,0.40144577404969645,-48.870700394271644,-42.40469173801812,4.129878138273748,38.737253283374066,0.28298100000000026,32.050000000000026,1
0.6785112181297492,-7.036669805970926e-06,-0.6526545826575848,0.0059189794677707635,-0.00332800962704066,2.8100969297977336,33.00212,0.7616408778880039,-49.703305182297306,-41.91560441746898,3.7958419901364966,66.09505811624888,0.28425999999999985,32.070000000000036,1
0.6790500663254653,0.0017938677938624582,-0.6517528267291877,-0.08581192700832134,-0.0026656648638001563,2.809311539746931,33.003056,1.0468723858776978,-50.047245700019324,-41.019512656317715,5.085109513961099,-35.235037749196195,0.28553899999999977,32.070000000000036,1
0.6782744098062115,0.0005293202869881524,-0.6514494344051953,0.07306950715981755,-0.00273653487329674,2.8091030890806508,33.000275,0.8918912996924968,-49.481474669104145,-41.67938336872775,3.512073430857142,-21.58717818523098,0.28553899999999993,32.070000000000036,1
0.6785915171989537,0.0004610233691266667,-0.6505600174262988,0.026678193817543674,-0.0029889630467356625,2.8099162551575216,33.00478,0.7699567986417125,-47.68406723184672,-43.50197294721431,1.5447321572904709,50.59035345879691,0.2855390000000002,32.070000000000036,1
0.6780155758810905,0.0021644778129849052,-0.6523861190495666,-0.0819485149117227,-0.0022711447996578574,2.806473004448969,33.004055,0.6884978487573608,-46.419498042919905,-44.04602270695355,1.233522472759849,-1.58031359240149,0.286819,32.09,1
0.679302115253718,-0.000596181794950051,-0.6519672659678368,0.04983456830584036,-0.0030271303395310715,2.808240637860851,33.007774,0.4080002022703865,-47.009518991545534,-44.14681832782293,1.7998629356005074,-31.09573979993525,0.28809800000000013,32.09000000000001,1
0.6778777337247844,8.418120670323072e-05,-0.6547380438517943,0.021050545494529053,-0.0028873520555724353,2.8093745887651873,33.003532,0.33689043334765656,-46.28738585490524,-44.619052780130986,1.2969757275507465,48.623503657731796,0.28681900000000005,32.09,1
0.6758604097817301,-0.0025923823186205872,-0.6549606475831629,-0.10854331006385282,-0.002758489936681328,2.8072684868584603,33.00857,0.9104910447249006,-45.87961656275501,-44.61769853547373,2.5533561269871425,8.60287483305132,0.28681900000000005,32.09000000000001,1
0.6786771490513103,-0.004034468966855643,-0.6523523601415344,0.031689383151063934,-0.0026459767593823087,2.808294001809686,33.00592,1.9834042988574818,-46.20302721819785,-44.82884422531719,1.5736306993970413,-27.65813394702714,0.28425999999999974,32.07,1
0.6777311027684277,-0.007403166807308075,-0.6514275402203588,0.052023096343649586,-0.0029172953396464493,2.809161036714621,33.00823,3.667991686862755,-45.74837647953823,-45.01377521381823,1.8214123294602327,34.31395497261602,0.286819,32.07,1
0.678395376442814,-0.005424379900309126,-0.652343333380313,-0.08155281203383932,-0.002619082077435301,2.8077371551667736,33.008617,5.164480508938629,-45.861554803056784,-45.11793135300388,1.747816414113508,8.551492310532442,0.2778639999999999,32.07000000000001,1
0.6803544411653738,-0.006452738409645194,-0.6492194646424936,0.051863905036657894,-0.003183332116162111,2.808376649100601,33.011837,5.672097095508293,-45.83599538870332,-44.96921810845935,2.16523599714099,-39.70810550369978,0.2880980000000002,32.07,1
0.6802849943861076,-0.004042142995476099,-0.6493853265756938,0.08805412418291869,-0.0026083880121475153,2.80778517464271,33.01001,4.69049108386758,-45.3999325038762,-45.395969847726775,1.3495743033855383,30.535206927576496,0.2855389999999998,32.07000000000001,1
0.680777275644311,-0.003425814650182066,-0.6504161521479744,-0.059485744182892375,-0.0024261304604673555,2.8062625698455075,33.011116,2.6772929866794413,-45.99032058256799,-44.93938936825073,2.138510196655097,16.95019813498027,0.2868189999999999,32.070000000000014,1
0.6809271741412078,-0.0004586924153271385,-0.6485956262320351,4.7373729319846515e-05,-0.002311078760779141,2.805319369589761,33.014088,0.33208427990113826,-46.27436394249578,-44.50552375750226,0.6198685643233426,-34.259476735364956,0.28298100000000004,32.07000000000001,1
0.6805545214125621,-0.0010107466883004926,-0.6496154187072056,0.07163076125357072,-0.0026010807085107865,2.8070836685493354,33.013252,-1.7560814705381715,-48.142013030498354,-43.250864553339575,0.5852520988785275,19.188700196622413,0.2855390000000001,32.070000000000014,1
0.6788050169665537,-0.001089920992135892,-0.6532786919138561,-0.0428037479002154,-0.00275081306027252,2.805287088942323,33.016293,-3.1358731063189107,-48.078456552169115,-43.089447550297244,0.4479135714174289,15.876310941621668,0.28553900000000004,32.090000000000025,1
0.6789688956743334,0.0019572323005751435,-0.6518195518389059,-0.06502253130394836,-0.0031738460153723867,2.804959319918139,33.015984,-3.9613394099167767,-49.18095967903526,-42.33523411547855,1.0995204333175652,-41.86422911199355,0.285539,32.09000000000002,1
0.6792664725739772,-0.0002878325621109406,-0.6511433968331924,0.06341640136532868,-0.0033756447651547266,2.8053281686476987,33.019783,-4.215566541534837,-49.73928670632377,-41.68585453141716,3.5698740407947267,12.576322986058392,0.28809800000000013,32.090000000000025,1
0.6778674829522474,-0.0005982109749489332,-0.6528908959490968,0.023434612033037646,-0.0028996728506490974,2.8044789790406606,33.01948,-3.7803614231850315,-49.236426161728154,-41.96368060117783,2.60620159078453,28.460222471034516,0.28553900000000004,32.09000000000002,1
0.6791522685626789,0.0020217197544026974,-0.6530301538466675,-0.08375742303432716,-0.0026178137536480763,2.8044814925427852,33.01753,-3.186989551722744,-49.26768741264883,-42.029045528569014,2.6245268782433175,-33.70823649319495,0.28553900000000015,32.069999999999986,1
0.6795878981804856,0.001445219145836673,-0.6513297361880237,-0.009662961998349822,-0.002624848952371436,2.8045750000979455,33.019638,-2.535182696679785,-49.16190788448433,-41.966923281399374,2.5767005528313933,-10.579556501511897,0.28809800000000035,32.06999999999999,1
0.6755137572367155,-0.0024864589993233493,-0.6554163310336494,0.05159657812489121,-0.0025947275169497944,2.8068099153113537,33.017353,-1.4692513032320886,-49.308438184820524,-42.036208154562324,2.15162116769864,45.00432141713954,0.28681899999999994,32.069999999999986,1
0.673576601519061,-0.0025612843281499144,-0.6574818329201577,-0.05092150051919999,-0.002681611518305135,2.8070532466010385,33.02378,0.23704995354397287,-49.119191855016155,-41.961375574622544,2.3600220297950587,-7.75539916093739,0.2880980000000003,32.069999999999986,1
0.6753820886682773,-0.002566185153108588,-0.6532460677260085,-0.06221229574392145,-0.003577201343486249,2.8035722936007303,33.021484,2.0469588467300595,-49.29916798555709,-42.04157574836786,2.1850931863233893,-36.12929358117558,0.286819,32.09000000000002,1
0.679429331400353,-0.005933501532889232,-0.6489796792664525,0.10676794116923996,-0.002700533466690694,2.8056757891452238,33.02342,3.5777326065154504,-49.10402525236235,-41.94692377744041,2.5713754406845513,24.21457880469837,0.2906559999999999,32.09000000000002,1
0.6823362008691451,-0.003574703076483067,-0.6488546851413843,0.03333705433307757,-0.0027782623291299456,2.805220552750524,33.021206,4.229928006156087,-49.39499756456758,-41.80548655774851,2.3250864585134567,23.72620957151982,0.2880980000000003,32.09000000000002,1
0.6813074822437197,-0.0007503052784285438,-0.6492266282579235,-0.06245787412053861,-0.0028733996653852417,2.8049890580418237,33.024696,3.1643443392335873,-49.88463057724697,-41.35689605909308,2.976957043681421,-33.700137271638525,0.2893770000000003,32.09000000000002,1
0.6809076476547009,-0.0011526085171722827,-0.6514146958832926,0.0554349235200008,-0.002729130047383209,2.803859333659027,33.023167,0.9675332848627027,-49.63329057588643,-41.78521514622179,2.5464260455357888,-12.44147474762281,0.28809799999999997,32.070000000000014,1
0.6800330204144883,-0.000942180491774185,-0.6494651207082556,0.052187258691839246,-0.0029368389211560275,2.8046736371911565,33.02637,-1.1173277735069733,-49.63554026400541,-41.958244366992474,2.760381192113834,27.49879157597966,0.28937700000000005,32.070000000000014,1
0.6793344575696882,0.0006839489502379499,-0.6523113399275268,-0.06220870267145022,-0.0026942995468721793,2.8031281892405833,33.02449,-2.397522014171492,-49.73632548902535,-41.95755339287195,2.3773277600019127,-19.181088252828925,0.28681899999999994,32.070000000000014,1
0.6808234781944588,1.5176703704389888e-05,-0.648505359873671,-0.027709298463615223,-0.0025318579044810337,2.803735114574441,33.027866,-3.057522814946791,-49.73289837874074,-41.5824234065638,2.662923543641735,-25.195979816173644,0.28809800000000013,32.070000000000014,1
0.6809128975711632,-0.00012343602237309086,-0.6487175270679839,0.07910172031129258,-0.002504076429261018,2.8028937683710726,33.02943,-3.213817888588096,-49.69670019715761,-41.646409469008425,2.4130221692133436,25.947565959372827,0.286819,32.09000000000001,1
0.6801488467457318,0.0001710460749198995,-0.6510832710789999,-0.029521420617774637,-0.002790298600622396,2.802973606867794,33.0322,-2.758795763858212,-49.86579733677882,-41.60147319100182,2.2998421840838605,0.018654654096500533,0.2893770000000001,32.09000000000001,1
0.6807255971701024,0.0018268235282992615,-0.6519187134791988,-0.07025184980309312,-0.002597899696703312,2.8010048329654667,33.02803,-2.228278107393743,-50.18581064505985,-41.60342787878097,2.9247302402472486,-42.78933484691682,0.28809800000000013,32.09000000000002,1
0.6796023127299134,-0.0011038566679630309,-0.6510876396975279,0.03494361191491231,-0.0030327304893497434,2.8026337881518772,33.03245,-1.478994125112037,-49.24660944401365,-42.2493327454759,1.8499587312921164,4.7385403654133205,0.2880980000000001,32.09000000000001,1
0.6768479465350795,-0.0033464857517002257,-0.6551835535619488,0.023366177052570738,-0.002459171002084898,2.80409662793403,33.03152,-0.18831553589177696,-48.215612143663016,-43.0845507550037,-0.5084691292150003,29.236778400982917,0.2880980000000002,32.070000000000014,1
0.6749926000625773,0.0004659767844067986,-0.654928974701532,-0.09281191037951554,-0.0029855455186665303,2.803187916053537,33.031765,1.4761293165237934,-48.002337579339795,-43.03810744986866,-0.385977624761012,-32.207659041353814,0.2893770000000002,32.070000000000014,1
0.6748869607177385,-0.0041290158888889735,-0.6533577224078656,0.03383957610155752,-0.0026716119824789298,2.802922379599963,33.034946,3.167660946586164,-48.11593289637048,-43.08010072642788,-1.5539856730434565,-20.71766268501011,0.28937700000000005,32.070000000000014,1
0.678059375420917,-0.004424886804723202,-0.6508246353064169,0.09295792530113463,-0.0028844817870774106,2.8029699375118784,33.03445,4.422139945903017,-47.7054416551537,-43.009526189630755,-0.7847348600704817,35.159918386311624,0.28809800000000013,32.070000000000014,1
0.68165771146999,-0.0027656697739334426,-0.6500668015529325,-0.04708492703659244,-0.002676952804963648,2.8000908678563454,33.03164,4.385876314014389,-48.100994081642696,-43.31911949749177,-1.326402808375099,2.08210722022907,0.28809799999999997,32.09000000000001,1
0.680639065185795,-0.0009109093160554796,-0.649717633632001,0.002497737360069576,-0.0028400815242277024,2.7998719211280467,33.035595,2.766560230567293,-47.628752440747654,-43.092923667396676,-0.5693969627421805,-43.87716190416557,0.2868189999999999,32.09000000000001,1
0.6812158863673762,-0.002000173800576106,-0.6501104887720963,0.07660114735887663,-0.002848914081739052,2.800136789685461,33.034782,0.2863811580372964,-49.88937573313246,-43.71054205308087,-1.8131067719635479,17.519086837110503,0.2880980000000001,32.09000000000002,1
0.6795995443149107,0.00124225689315079,-0.6504865974737764,-0.029414539338967104,-0.0025884937586858384,2.798532522330253,33.036106,-1.782540766055502,-45.740698763745414,-44.905827534981704,3.781281985177516,19.78650068779788,0.2842600000000003,32.09000000000001,1
0.6816745285527761,0.0019462634591047043,-0.6497714600999993,-0.06970507620820432,-0.0024932325425162096,2.797272538915901,33.03555,-3.049875969297753,-38.08014042895174,-47.02599690725735,18.512896175117216,-36.29634088239413,0.28809799999999997,32.09000000000002,1
0.6824967159670662,-0.0035031709274082243,-0.647777079544671,0.0454671612499959,-0.002530685174674197,2.7974622157342703,33.03759,-3.4706309615293303,-33.474522468544954,-48.53306522885944,22.144444473940418,9.488077622615075,0.2893770000000002,32.09000000000002,1
0.6810248725480847,0.0017669473214214808,-0.6517627224733339,0.036144966350714194,-0.003024943802309784,2.796743114276072,33.037674,-3.1522171836065622,-36.09703630640886,-48.46485378323318,17.963346511769885,36.03437825199335,0.2880980000000002,32.09000000000002,1
0.6805952967803262,0.0006856072081322938,-0.6489716822419204,-0.09221811461850166,-0.0025260978206522716,2.7977155039143664,33.03789,-2.3486294108441568,-39.610505031441065,-47.495824348700864,14.689763883507787,-52.9094926570925,0.28809799999999997,32.09000000000002,1
0.6789647469551086,0.00107300630017563,-0.6521689888572698,-0.037646776508412874,-0.0022927567831632573,2.796886854310577,33.04062,-0.8430732951515943,-39.92274875767411,-46.778475540079604,6.812337791541739,-15.134213688832702,0.28681900000000016,32.089999999999996,1
0.6790663215127383,-0.0023084976025027942,-0.6488777714482027,0.07771764942292608,-0.003294712861231079,2.7979213673989896,33.041977,1.0865458321665133,-53.74811287437042,-38.81050291199751,-8.102239832068257,93.77773659344831,0.28937699999999994,32.09,1
0.6776283964595919,-0.0018459455010816884,-0.6553516169132905,0.0020019660213899063,-0.002910520887567465,2.797992015348668,33.041885,3.085544602459899,-59.94744994938711,-33.411826812526726,1.9099891903122233,5.88308277625477,0.28681900000000016,32.09000000000001,1
0.677459668050695,-2.9874596590617496e-06,-0.647245004675141,-0.08069659590715883,-0.002109952477823378,2.7968324314549693,33.044224,4.573063380551252,-51.63637478617035,-39.21887191013716,-8.160355415534617,-52.3541027252899,0.2893770000000003,32.09,1
0.6839014332778812,-0.0063084514433090905,-0.6457148439855792,0.08108574221206113,-0.002128489632818209,2.795119576711126,33.041813,5.012976350221372,-44.53993688863823,-43.356589923195095,-7.77841468114497,11.672174214033948,0.28681900000000016,32.089999999999996,1
0.6830655148069739,-0.0024223879314496316,-0.6466237617615005,0.07072014899534572,-0.00241796797515296,2.795145114244274,33.042778,4.398901765757427,-47.584528430153576,-43.31683623452433,-5.436930378971827,57.81360097615897,0.288098,32.089999999999996,1
0.6846536225319021,-0.00336366478396979,-0.6467620586172511,-0.06461992683497013,-0.0020460977968188338,2.7947368562477246,33.0416,2.6885187694897605,-47.078452584806634,-43.95033776762675,-8.23521838323121,-4.043003244992496,0.28425999999999996,32.089999999999996,1
0.6820555056438627,-0.0006599502380612885,-0.647753544714975,0.0018422865989733627,-0.0026643627227039353,2.7923626612286534,33.047295,0.4353214563076947,-46.98000225973988,-44.004007031447266,-5.745362015112309,-46.67848106043956,0.285539,32.089999999999996,1
0.6813355783962627,-0.0013559832567690423,-0.6484712684964681,0.07782865313771996,-0.0026926333566924883,2.793357800911838,33.046597,-1.9236097017804454,-46.86388824387831,-44.04372538594892,-6.665242888887743,29.36310588910022,0.2855389999999999,32.06999999999999,1
0.6797925854769222,0.000966569742880744,-0.651363230129483,-0.013768688055674006,-0.0026458955502109906,2.792916094765052,33.04768,-3.678925677420257,-45.781947153235045,-44.31380868596111,-5.636458526584472,9.532479045648284,0.285539,32.06999999999999,1
0.6798608006320882,-0.0011180905141971293,-0.6527125089921764,-0.07983795889092389,-0.0025253267123168106,2.7923841188595264,33.048443,-4.606252837689241,-45.371015775222446,-43.71733876136253,-7.080460111816694,-35.36820719568629,0.28553899999999993,32.07000000000001,1
0.6804935993247534,0.0017186160724055734,-0.6494271564530829,0.029593607305236483,-0.00259681732482329,2.791731833033024,33.048023,-4.853619963120998,-49.57412118888867,-39.68455174581952,-8.184683842947823,14.510793613873568,0.2855390000000001,32.07,1
0.6817051200830905,-0.001178248030160514,-0.6505357739771848,0.039578303330427556,-0.0028710096928879375,2.7912313709533336,33.04843,-4.375293316448357,-50.66991454239473,-32.87596340575205,-13.453928621181337,30.93385467676713,0.286819,32.09,1
0.6790987236506855,0.00026173510956928645,-0.6509342677714424,-0.06076370525230661,-0.002930244166791635,2.790413282865352,33.049614,-3.2831718895406987,-57.361663247515665,-24.819438698594105,-32.05647378521834,-37.8453381260751,0.2919360000000001,32.09000000000002,1
0.6828848763725467,0.00209696368409678,-0.6478139097616534,-0.07266696189136415,-0.0035245999054333652,2.791252430087563,33.049755,-1.6947863489621944,-51.05743583503959,-25.59915444995877,-34.56940511867317,-28.000678649401763,0.294494,32.09,1
0.6802405237685827,-0.005666624546809209,-0.647328874025669,0.06821972972719233,-0.002170116716865126,2.791914425095558,33.04875,0.384456697528616,-50.814100640370064,-29.470477177556013,-30.01402263280549,41.06143769526332,0.291936,32.09000000000001,1
0.6821127083117647,-0.003289313840052569,-0.6465868372018333,0.0442821747878879,-0.0027164206934135785,2.7918320265786876,33.050983,2.326096512006085,-51.458976250143074,-34.189595152837484,-22.012328390839155,93.38731477393956,0.2919359999999999,32.05,1
0.681582547998622,-0.0025193482399180098,-0.6476886287207988,-0.04591845268327428,-0.0031639591587604484,2.791610567507636,33.052505,3.456208885647133,-45.59075278037892,-41.834882287207144,-17.92142224968149,111.4691014646416,0.29321500000000006,32.04999999999999,1
0.6825715823441937,-0.0031380130033989446,-0.6474148947593555,0.020285116226800095,-0.002172914935143083,2.7890380948891758,33.051933,2.917252067731661,-38.57038168053352,-48.282125421110166,-8.457171264207114,-90.42680152789075,0.2906560000000002,32.05,1
0.6798922369080846,-0.008746471826408317,-0.6514239949433168,0.0810174784943673,-0.002324358339763064,2.7893217138887687,33.054325,1.218353724995982,-38.70241308416192,-50.215605719678116,-5.3892891980303865,-36.59857438687711,0.290656,32.04999999999999,1
0.6802351175980873,-0.002452765875699538,-0.6524330865234679,-0.045896894222789114,-0.002426257184462048,2.787394369837277,33.05327,-0.6852646440503032,-40.79748028443653,-49.7504587124815,-7.141765619886304,-110.92345047333365,0.2880979999999999,32.09,1
0.6814328782798664,-0.0020165012740065986,-0.6488913499418063,-0.056297928271975856,-0.0028798521078340694,2.7877720265411963,33.0548,-2.069763811877628,-40.545905140648884,-49.3323100491661,-6.391489494497458,-75.1969798568832,0.288098,32.09000000000001,1
0.6811748921410415,-0.00359160086668958,-0.6503913780364582,0.0513925108084719,-0.003460488822503374,2.788989243868324,33.05339,-2.587312965734893,-40.64327861262351,-49.12115641573343,-7.028847469274584,34.016122238828345,0.28809799999999997,32.09,1
0.6808346596194018,-0.002200382546314822,-0.6494881233746364,0.03638178786315077,-0.0029146661094687225,2.7894076184100607,33.056915,-2.3117954350552767,-41.062402927871325,-49.05496081256525,-8.093005949109564,15.497817599170391,0.28809800000000013,32.09000000000001,1
0.6813036752052557,-0.002054652062058572,-0.6515424802325422,-0.08205160377182731,-0.003081181144308443,2.7902861457537957,33.05332,-1.8743414987417681,-40.21179733623221,-49.523182497867595,-7.994621681815859,-32.29016175676034,0.2880979999999999,32.07,1
0.6817516427118239,-0.0026237090608916967,-0.6485578378421065,-0.013921879714796602,-0.0032938606335800895,2.7903707099060937,33.05808,-1.191907123029591,-40.773061882678384,-49.375253638425775,-8.603324373747528,-0.4340802338056905,0.2893769999999999,32.07,1
0.6813444516332835,-0.003649634342465205,-0.648660969327928,0.06192505950924568,-0.0026700703207825304,2.7901754858621937,33.058826,-0.10370373603369892,-40.62505270095111,-49.399006920408056,-8.902844423367956,51.163656711185524,0.28809799999999997,32.07000000000001,1
0.6813908324715278,-0.005458357345457143,-0.6487613015227188,-0.01927767193684293,-0.0026230207601699493,2.7915817040490407,33.058414,1.308429760402436,-40.495021318629,-49.566724334107825,-8.696463788554322,5.7832680326547194,0.2880979999999998,32.07,1
0.686043541633175,-0.008231354271424516,-0.6437513402856421,-0.07528083453145246,-0.0039840117420061145,2.7897257835703924,33.058254,2.4687904606418853,-40.915931478629666,-49.19639435190137,-9.038576150211062,-27.368786386944173,0.29065599999999997,32.11000000000001,1
0.6877696154075321,-0.008158867817055633,-0.6404639749551181,0.07778582244396853,-0.0032965113127174624,2.7911373808265605,33.059105,3.406209779193415,-40.14567138965359,-49.49450976191499,-8.611703346741063,27.032428131394585,0.28937700000000016,32.110000000000014,1
0.6870103491478177,-0.007313695325979578,-0.6425599339081506,0.055767767571940394,-0.003583506287251078,2.7900703392961224,33.059406,3.9615654802560463,-40.5895374074605,-49.418506241184176,-8.921581079541376,34.428334267977974,0.286819,32.11000000000001,1
0.6861605590360415,-0.005479625110401128,-0.6432682312359324,-0.06071333667738272,-0.003844729006966225,2.79090960853079,33.06049,3.457513165814616,-40.60348517792737,-49.38891566140719,-8.784846325555796,-22.672206206675565,0.28937700000000005,32.110000000000014,1
0.6858433806730042,-0.004352949916087117,-0.6453043743308464,0.007906269272162656,-0.0036376593193710055,2.7886050953999284,33.060574,1.9039697555431445,-40.64027462728056,-49.486947465214875,-9.035310589436623,-18.073708055168208,0.28809799999999997,32.089999999999996,1
0.6840729679696889,-0.0046165968552410366,-0.6449882216323154,0.06847317686239053,-0.0021398736625254005,2.7882827264731627,33.064857,0.252014476737904,-40.25490835024531,-49.22760142576919,-8.577886265775525,33.83235772937098,0.290656,32.089999999999996,1
0.6842298362805845,-0.0023409381217192045,-0.647443934605067,-0.043224559378150985,-0.0029536423606382582,2.788608226668233,33.062096,-0.9047039927039809,-40.61329791523213,-49.33825675388572,-8.988998430144637,-5.649930654811122,0.2906560000000003,32.09,1
0.6840995382038823,-0.002183532082510781,-0.6466352917925172,-0.06391809854915056,-0.0023762591431433404,2.787745356154274,33.06187,-1.6871042720651677,-40.53627259273264,-49.127441247221014,-8.89966238371233,-27.80258167002806,0.28809800000000013,32.089999999999996,1
0.6846642885182259,-0.003049393889319761,-0.6455978647417777,0.05563575961851029,-0.0026311508484774897,2.7880296743618898,33.065475,-2.073044801289834,-40.29541468416283,-49.12538964888253,-9.684221671263376,21.098766622722874,0.28937700000000005,32.09000000000002,1
0.6832324870789956,-0.002407800982121993,-0.6459581461494951,0.03385501255640981,-0.0034056420569095517,2.7859534701790385,33.066242,-1.836513553114724,-40.916122336331,-48.947814424236995,-9.800075634076409,23.01124339714831,0.28681900000000016,32.090000000000025,1
0.6838314795429694,-0.0024516027956313106,-0.6477851243999722,-0.07881665642542683,-0.0034716554448583565,2.7862318260428185,33.0667,-1.425996611373877,-40.135077144926875,-49.28371717529281,-9.755490885372646,-35.16922237197192,0.28809800000000013,32.09000000000002,1
0.685625631250343,-0.002064639043784118,-0.6440871307698649,-0.008375157256007565,-0.003479575235478536,2.7853698184466924,33.06971,-1.141893676196725,-40.51639293734387,-48.96000422414094,-10.110019181161299,-5.053261145063307,0.28553900000000015,32.090000000000025,1
0.6850927844826937,-0.0049666808962760284,-0.6449385717923953,0.06607345010575741,-0.0027181924443870882,2.787650246049945,33.06869,-0.7193442079162811,-40.32619135034192,-49.04926665931034,-10.284053019382693,38.70517246938763,0.289377,32.089999999999996,1
0.6839673178903077,-0.006323462076140526,-0.6453825310400764,-0.012389673247526121,-0.003458590897751061,2.7885327134486757,33.070133,0.22430345479542743,-40.393865451272966,-48.95021321643125,-9.892960619001544,-7.049159362014504,0.286819,32.089999999999996,1
0.6858055901327862,-0.0071600382127419175,-0.6446618806152954,-0.08204613462732853,-0.002154921369108516,2.787549541966322,33.068455,1.2949225455372992,-40.741927264675525,-49.049413276853805,-10.259451850926443,-34.66073079373247,0.28809799999999997,32.089999999999996,1
0.6847149041177557,-0.008272082607363647,-0.6426792407057961,0.05249779590058438,-0.002676275900367878,2.78784303042328,33.07143,2.017254690967238,-39.9597334020994,-48.95101229344889,-10.063344338152259,21.789903890734106,0.2868190000000001,32.08999999999999,1
0.6853643932754891,-0.007280598947982501,-0.6449658854819513,0.07649836069204317,-0.002538107241410693,2.789014041821794,33.071396,2.4287564470815783,-40.644550784779604,-49.04875130562744,-10.428295750778076,27.063626311644768,0.28809799999999974,32.089999999999996,1
0.6838658331502978,-0.0049893191292041585,-0.6470098042898127,-0.055421270912452594,-0.0033624786531075415,2.787624590146773,33.072746,2.2678720829141534,-40.359362784503446,-48.95105353914416,-10.258995537289698,-25.959725085407452,0.28937700000000005,32.089999999999996,1
0.6846392983212604,-0.004383747890778618,-0.6465529193465789,-0.03279840683902926,-0.002937003212526924,2.786920742224749,33.070637,1.1615627990419004,-40.361181878630646,-49.0502028202008,-10.359103195623527,-23.723679362841434,0.28170200000000006,32.089999999999996,1
0.6844932670875901,-0.004310353542384325,-0.6438991727532682,0.07016087244658571,-0.0029948468435776997,2.787223013780938,33.072,-0.1620144773201764,-40.56066449119971,-48.9445576016617,-10.133038565175225,33.79608515628807,0.28681900000000005,32.089999999999996,1
0.6837836985973929,-0.0037470856254085646,-0.6472239856103944,0.02485736955487299,-0.0034275339576207375,2.7856864875563403,33.07395,-0.9793855248506483,-40.49647180291937,-49.16242839374439,-10.279191314467468,4.868231599572667,0.2855389999999998,32.129999999999995,1
0.6840144070171088,-0.0027236517561670544,-0.6447291080738919,-0.07132769018552339,-0.0029893160385747347,2.7850737254638336,33.074383,-1.4508751354104867,-40.55263574184329,-48.97835290222521,-10.431358106477028,-36.887723752789164,0.28937699999999983,32.129999999999995,1
0.6860687269055469,-0.003436484319716903,-0.6450551098500308,-0.011833725308624508,-0.00248457510955777,2.7847801983897975,33.07392,-1.6198261180647917,-40.68153171382065,-49.02887094601401,-10.629404237285726,8.298368949099723,0.28681900000000005,32.13,1
0.6840162457137429,-0.003547600225452855,-0.6441879625081215,0.06399044641496766,-0.002690932071159479,2.785155212011601,33.07593,-1.298809691475288,-40.118159226704826,-48.971306169631745,-10.219047205470877,35.974175503394136,0.28681899999999994,32.129999999999995,1
0.6848845797601623,-0.003717080101554819,-0.646624333148138,0.01136163408971849,-0.0025624941064214114,2.7856544633127833,33.077744,-0.9053144923311085,-40.50508513708932,-49.02491215225741,-10.99164916931309,-17.342919031674874,0.28809799999999997,32.09,1
0.6840310138031097,-0.002307779820348655,-0.6459094005634783,-0.07790052027300096,-0.002475510122823134,2.786079436990165,33.077663,-0.4818053295801472,-40.07759999712236,-48.98621119887934,-10.575205520449732,-35.37622620401737,0.28681900000000016,32.09000000000001,1
0.6835870334706062,-0.005625054566534166,-0.6471559347209935,-0.004394259186520464,-0.0021511546278343814,2.7863124818740217,33.07931,-0.007139637026308259,-40.20783471123699,-48.94211403816622,-11.334159117624885,24.63658391156995,0.2880980000000001,32.09,1
0.6822776102710776,-0.0038661958898096134,-0.6471805689825567,0.05796289166350917,-0.0027756555357159375,2.787109913251728,33.078773,0.6637546583221713,-40.52110713621885,-48.90216930840645,-10.860929679592436,31.459762245239382,0.28681900000000005,32.09000000000001,1
0.679565655055736,-0.007474349432939842,-0.6505324364795927,-0.011409221008597306,-0.003915355898062289,2.787075390536905,33.079224,1.6093426746593062,-40.164371727693556,-49.05855749877425,-10.53205514891966,-25.38073449938792,0.28809799999999985,32.09,1
0.67777541712294,-0.002525678774277827,-0.6505563827146837,-0.0717863563229632,-0.0027560751911417107,2.7867846515450507,33.08058,2.326353349619984,-40.319457448141634,-48.964699716374376,-9.951946288882342,-29.859991418149242,0.28809799999999985,32.09,1
0.684980145478471,-0.005880977635536712,-0.6446921737447884,0.07129923136078058,-0.0025114765507109472,2.7874190099090472,33.078964,2.5731738503906247,-40.42159170729928,-49.22106144814363,-10.431399556880152,33.83779794683096,0.2880979999999999,32.09000000000001,1
0.6836888524008503,0.0003353522481907968,-0.6454983283118606,0.06877227904132184,-0.0023086229968102287,2.78770552601746,33.079494,2.1812949695400947,-40.48598447628782,-48.75952304853568,-11.017659935781491,21.930349381665604,0.28553899999999993,32.09,1
0.683547810712861,-0.0047944080623529735,-0.6472099175005297,-0.06131500750708494,-0.0028948813530890543,2.784844298651033,33.081528,0.8444017767560271,-38.511538437211435,-48.39515066270298,-12.249142646371308,-30.26328311377959,0.2868190000000001,32.109999999999985,1
0.6847034526223105,-0.0018156304097164165,-0.6444978527102633,-0.0402854820156076,-0.0021424792191966835,2.784136987479782,33.08371,-0.7387268139901625,-45.805744047436484,-44.12175051532768,-16.366011524976958,-25.164159077740237,0.28681900000000005,32.10999999999999,1
0.6832031272220619,0.00043067363135378676,-0.6484609115623033,0.0659475042164038,-0.002050675594651551,2.7847078550617494,33.081955,-1.7130124517584429,-48.959102632817554,-42.052249635656494,-13.451853166483248,30.62228184762924,0.285539,32.109999999999985,1
0.6823407259569942,-0.004258979042522301,-0.646774155018984,0.008011985422963178,-0.0030475431553721333,2.7871575508532893,33.088318,-1.8339422893585278,-45.54768608232391,-43.06648375711059,-14.555685913732828,3.2329869749164026,0.2893770000000001,32.109999999999985,1
0.6843042489444171,0.0008985958875779096,-0.6461452192242326,-0.08224816909592426,-0.0028572235534958233,2.7870398255430326,33.081898,-1.7503392391947379,-46.54746348651711,-43.0073151825722,-15.096931123518255,-39.51741199524984,0.2893769999999999,32.089999999999996,1
0.6843133572576334,-0.0013877705431356436,-0.644565271244865,0.00947789670907089,-0.00300404652480277,2.7875460629117144,33.086266,-1.6293362405272016,-45.94624073033538,-42.99303698337933,-14.262612040175993,5.441676441256258,0.2893769999999999,32.089999999999996,1
0.6845897117261799,-0.001092173267861035,-0.6478052500063273,0.06431853947528705,-0.002678163508389667,2.786805845372891,33.08639,-1.1787530739796799,-48.578386509329455,-41.598316677584,-13.199060161273858,66.28675274194084,0.28809800000000013,32.089999999999996,1
0.6820436980984559,-0.0029382396220391234,-0.6471618697159813,-0.04228405260429534,-0.0032622144952354575,2.785219265475783,33.0898,-0.493770755064154,-47.27104899784328,-41.13493848244352,-14.684639219573068,-10.858398756179348,0.28809800000000013,32.089999999999996,1
0.6833326843041377,-0.0019170078986896872,-0.6469998452871123,-0.07108424686311794,-0.0032601003278451713,2.78727228738331,33.089672,0.5567692749074198,-47.836513354786064,-40.422126683514605,-19.485637073385053,-32.99491083462947,0.286819,32.07000000000001,1
0.6848905256086615,-0.004133810808507471,-0.6444748866065617,0.0637991106933726,-0.0031671689221365647,2.787958437279345,33.090366,1.8469136655894554,-47.163823547526015,-39.906321819770994,-21.11182687273849,26.851963823044926,0.28809800000000013,32.070000000000014,1
0.6808326665886469,-0.006667863439348543,-0.6485115181701221,0.04710481885146613,-0.0029627542080485287,2.788564045680013,33.089413,3.0378495006466535,-46.88914234194861,-40.02523158348873,-20.12984839390309,19.90069285802837,0.28553899999999993,32.07000000000001,1
0.6815676640679901,-0.007507361640903869,-0.6473755479291927,-0.06834972443042193,-0.0024107840043067247,2.7881827907329098,33.090847,3.841786450448234,-46.12810933421965,-40.596934133677124,-20.020228691314475,-30.062885857903474,0.28681900000000005,32.070000000000014,1
0.6893105712516329,-0.003672889695253838,-0.640328010746869,0.031491761458592844,-0.0026891875828212344,2.7872426437462066,33.092632,3.6622897970460313,-47.11165914890107,-39.95738901756648,-19.533219349917754,-8.014304416252264,0.2868189999999999,32.109999999999985,1
0.6870184371760727,-0.006510831925831139,-0.6415341417065062,0.10205461921565408,-0.002460297296871649,2.7865581605550105,33.09165,2.4345213483345267,-48.21501552265314,-38.75606042506594,-19.13003438638588,49.935926271622996,0.28809799999999997,32.109999999999985,1
0.6866699044559597,-0.0007807698504253497,-0.6459198450579748,-0.043365517501084125,-0.003315578020770244,2.7853593046780314,33.09259,0.7563427927374193,-49.183168448983864,-38.03538511260523,-19.61806479423292,-1.6370730519175511,0.2880979999999999,32.109999999999985,1
0.6848829670863688,-0.00015412839918827565,-0.6447596913295491,-0.05042552611932362,-0.0036498427284033996,2.7850595077715856,33.098835,-1.3103673634090687,-50.12731968292152,-36.469901629734096,-19.34136897339839,-47.94047419119642,0.2880980000000001,32.109999999999985,1
0.6868910912025915,-0.00144593069792012,-0.6428523927427865,0.050606038467305985,-0.003087764965212886,2.7847616686787515,33.09338,-2.848366898300066,-52.220529202673006,-35.10658999877744,-18.309284838243624,-6.573607655245432,0.28553899999999993,32.11,1
0.6851736118014078,-0.0012890344482470737,-0.6444608620197597,0.03437078984572042,-0.00272808648209205,2.7835361537350085,33.096058,-3.350399842064117,-51.29437237057896,-35.40726639727181,-18.742201950118055,6.29804319838687,0.28809799999999997,32.11000000000001,1
0.6862525120727122,-0.0003724479503839962,-0.6440990285665116,-0.07946976247081601,-0.002755498986035427,2.7855160535574823,33.094025,-3.328841462321394,-50.14614530837283,-36.12660933615573,-20.61259525672849,-45.22247691753004,0.28809799999999997,32.11,1
0.6871875462739201,0.001883152187131129,-0.642908160795506,-0.013495586352573754,-0.0033979666975903744,2.7843318877338734,33.094738,-3.106403722701722,-50.13066776632814,-36.468742398489844,-20.346870632964187,1.5580764936914868,0.288098,32.11000000000001,1
0.6863239175523358,-0.0021643612577440267,-0.6450785865082161,0.05221426936774362,-0.002818225590615828,2.7861440700327904,33.098034,-2.6555595754634695,-48.85056502562769,-37.915850934976305,-19.927242962045305,41.05677717227612,0.28809799999999997,32.089999999999996,1
0.6823014647359117,-0.00315669764723072,-0.6465621329435914,-0.009739407353397895,-0.00262055100566503,2.7866737843947127,33.09693,-1.7663497861285744,-47.81506526868978,-38.82398785402362,-19.699224645695708,-8.15013139104373,0.2868189999999999,32.089999999999996,1
0.683149161847652,-0.004329322178057998,-0.6480799487561415,-0.09823140659803055,-0.0030041880256563807,2.786302820428487,33.094807,-0.29356808579324345,-47.208495310032234,-39.10262048270736,-19.739680735130772,-41.716241040035364,0.28681900000000005,32.089999999999996,1
0.6818528370166675,-0.003213838668673328,-0.6463413347644628,0.02776521402388508,-0.0026668000210735574,2.789336086715512,33.097214,1.5017841105845067,-49.61341697270303,-37.60140690064845,-19.363218881914584,35.07457367394811,0.28553899999999993,32.089999999999996,1
0.6804871039111577,-0.0033105988714554183,-0.6472079959173465,0.08556120505677799,-0.0028565227010789035,2.787855247494142,33.098183,3.177935556210103,-49.1516149605253,-37.32382120593206,-20.724173042986415,41.86490082828917,0.2868189999999999,32.089999999999996,1
0.6816354228676648,-0.006157279568972192,-0.6478224129323314,-0.02662858658967504,-0.002774864317469805,2.7881573569169977,33.09901,4.320789421953849,-50.53006002169472,-35.93491212647673,-19.177555207913215,-22.45634663562725,0.28681899999999994,32.089999999999996,1
0.6851352992462278,-0.000248077295351825,-0.6456523786301206,-0.023541290898751493,-0.002814929053203153,2.786127267302184,33.10207,3.9778671856711707,-53.455014409303416,-34.7613928482931,-17.043381600546443,-51.00781559410518,0.28809800000000013,32.089999999999996,1
0.6854391062665393,-0.002202322387184249,-0.6449314562871336,0.0853812464030752,-0.0029469228394623744,2.788546279546114,33.10029,2.0879305266990063,-51.4994435780967,-35.25948072413134,-17.70249584950612,24.324406401362783,0.28809800000000013,32.089999999999996,1
0.6838672073243506,-0.0013048105516402465,-0.6472114773135608,0.004862872784295416,-0.0030351196993915037,2.7870753828395674,33.103443,-0.3090774923822338,-49.84803642157938,-36.61751222860277,-21.11626275092473,20.224934309649754,0.28809799999999997,32.07000000000001,1
0.6842921347513726,0.0016669987555477214,-0.6458143985462484,-0.07859733678314608,-0.0030277452372294246,2.78697363542714,33.102016,-2.43133308137949,-48.02747311205063,-37.80815756891616,-20.71640931528932,-31.923177922474913,0.290656,32.07000000000001,1
0.6855134406145018,0.001263671368621784,-0.6446300583365622,0.0060026112749493364,-0.00272020861778659,2.7864926250318534,33.1024,-3.643703159148926,-47.962142505898846,-38.2414850915878,-22.06105436456655,11.413626371534408,0.286819,32.070000000000014,1
0.685371321282445,1.698999154714075e-05,-0.6425031982079412,0.06152923877230735,-0.002250201888837274,2.7860413188835254,33.10306,-3.6627576433444293,-47.549182862489175,-38.75086779112381,-21.6314446166258,54.36904443077689,0.286819,32.07000000000001,1
0.6854309141251961,0.0006682703881062039,-0.6471561466529319,-0.04243942467417837,-0.002497267243141313,2.7857411171005335,33.10612,-3.0960878544503236,-47.66362694884343,-39.079717611125716,-21.298013137768944,-8.215944189248976,0.28425999999999985,32.08999999999999,1
0.6833188733131137,-0.0009974306450675576,-0.6468984629072849,-0.07141420327918316,-0.002782042819413932,2.784850547118529,33.107635,-2.357669852595885,-47.066581746859846,-39.03361307134932,-20.755125274365508,-20.742538874058347,0.28809800000000013,32.089999999999996,1
0.682692667537093,-0.0025222247554943663,-0.6472187517081018,0.05102347323645361,-0.0031829789863029585,2.7859317893091284,33.105267,-1.1244619241040361,-47.506940289107014,-39.1098055592173,-20.9611980115308,28.549448267779674,0.28426,32.08999999999999,1
0.6820278251725463,-0.002589700282792034,-0.6474351694618082,0.03489737382411678,-0.0028389188018349753,2.7861233884136363,33.10804,0.6477308999156309,-47.62494737920912,-39.100944451830955,-20.89169095296217,20.00330009411844,0.286819,32.089999999999996,1
0.6799833670138236,-0.004504991581186609,-0.6496713038719,-0.08188496486309389,-0.003023005920759387,2.7857889855051594,33.10462,2.2439568301550437,-47.81800293035674,-39.08562785389635,-21.2407072055685,-48.8559165392012,0.28170199999999995,32.089999999999996,1
0.6846751649834536,-0.003918595901576033,-0.6424866721404024,0.0260933588088737,-0.002867924672253727,2.785564998650666,33.107426,3.299147807663766,-47.20895249070596,-38.81520397084408,-21.327047116332892,-14.133130230577557,0.28809799999999997,32.089999999999996,1
0.6873953870633847,-0.0034513621884034937,-0.6426802157694851,0.10305087287423753,-0.0028245729538234144,2.7828203338875332,33.109818,3.490936699503352,-48.53419137967076,-38.58541617973141,-21.4047544235943,41.89890844002289,0.2855390000000001,32.089999999999996,1
0.6862109214641352,-0.0015361953062035351,-0.6420062744762626,-0.04873355794017005,-0.0031476303296435926,2.7842032771893344,33.11088,2.4640194872378376,-43.887876744073544,-38.66276219213711,-21.534925023513733,-3.481258292902538,0.28681900000000005,32.089999999999996,1
0.686437622846525,0.0005994472582395794,-0.644598427811928,-0.030384732691447647,-0.0025592301114127436,2.782704669750185,33.109604,0.7065381378101798,-53.44258509283737,-33.25251935116598,-23.212557504642405,-40.589108601679484,0.288098,32.10999999999999,1
0.6856389080879824,-0.004625267035131391,-0.6441494662303857,0.06950246878109373,-0.0027023080966743296,2.782325505594888,33.110332,-0.774500802963803,-54.14538354354255,-31.351858001059945,-22.457835831555087,17.87779890384533,0.2868189999999999,32.11,1
0.6856383895085434,-0.0009201255284707095,-0.6454298602319454,0.00889329453197163,-0.0024763935678214486,2.7850755886505816,33.109943,-1.668517377134774,-51.080859267427535,-33.403451077331866,-23.698227778038248,18.736826234359576,0.286819,32.10999999999999,1
0.6854076127889116,-0.0004174909565407218,-0.643173748652182,-0.08326597719177108,-0.0024579331892009746,2.7825540889668505,33.113808,-2.227709257449717,-49.10780892037969,-35.50976429996863,-23.63990110527923,-46.380307187050626,0.2842600000000001,32.11,1
0.687598502730917,9.115787542395916e-05,-0.643844394677365,0.012836660462622513,-0.00262817991777893,2.7835505305702535,33.110397,-2.4635117807719733,-48.37953318249468,-37.27828263327932,-21.200915085904995,-1.363019814107706,0.2868189999999999,32.09,1
0.684960478701682,-0.0032324849707025846,-0.6452449383549539,0.05612308613570025,-0.0023869569313637834,2.783449592339214,33.115322,-2.115358336424441,-48.744434908818704,-37.86117550706727,-19.758180716853513,65.73475835667286,0.28553900000000004,32.09,1
0.683501284046131,-0.0003288089449034306,-0.647310805497679,-0.05944392207699863,-0.002847069171280768,2.783053564272143,33.11546,-1.201935402700258,-48.622174279984534,-38.07968853213965,-21.02431916803026,-13.840422124441783,0.28553900000000004,32.09000000000001,1
0.6821746593358554,-0.0033211364833266176,-0.6477068628648336,-0.05189040289899055,-0.0025206984251488875,2.783701023968958,33.11067,0.1705173998870744,-48.36945440962603,-37.95744753107348,-20.443793108341893,-34.46717547172802,0.2855390000000002,32.09,1
0.6824300354381667,-0.0019141221662690713,-0.6478372999385652,0.07441025248667087,-0.002739396045297562,2.782382207257814,33.117504,1.4237771245304403,-49.34685440417865,-37.74172385184217,-20.266736788106233,22.72530973303487,0.2868189999999998,32.09000000000001,1
0.680089621251154,-0.005766522597708426,-0.6506171526965132,0.012298683066332926,-0.0025394249295133593,2.7832831655536823,33.115776,2.429235442536283,-49.19009862310271,-37.688070632032854,-20.076363605542806,9.666173146157561,0.2880979999999999,32.09000000000002,1
0.6775090665713587,-0.005363756574025774,-0.6524970665843978,-0.08328580803554553,-0.002820649370043162,2.7830402073014273,33.119152,3.138997025699901,-48.75656394718873,-38.14920664538892,-20.433656747508827,-43.08603842597195,0.28681900000000005,32.09000000000001,1
0.6814881075216643,-0.005024752015087851,-0.6474532323564516,0.05084061971865325,-0.002489903133697592,2.7837305869083386,33.117474,3.5295993317756014,-48.96300899241508,-37.86232001139058,-19.51949720343775,-0.5254265311991058,0.288098,32.09000000000002,1
0.6845158074197834,-0.0036649789931368997,-0.6459347907705414,0.08933525316071758,-0.002075262696835086,2.7823970134426825,33.117607,3.5411516870593154,-49.0477697563186,-38.02495295503157,-19.86263709699333,40.04295206696106,0.2868189999999998,32.089999999999996,1
0.6832506025245353,-0.004338092303145047,-0.646952194238267,-0.05510033786275253,-0.0025730669437230035,2.78240091631732,33.11738,2.649220941906009,-49.13400265766316,-37.34781042381363,-19.780764305243984,-11.53513814497959,0.288098,32.089999999999996,1
0.6860358689062115,-0.0018332405403238556,-0.6460196126966912,-0.0258827141696108,-0.0028868524404694826,2.780398405571156,33.118855,0.7377053260246703,-50.54249519872973,-36.663595528869095,-19.04444408543267,-21.69186766895412,0.285539,32.09,1
0.6872294293538311,-0.001421260427897975,-0.6410162307430076,0.06303385826095231,-0.002459697634058683,2.7796564607849503,33.119213,-1.2627738246201572,-50.23539612297229,-36.43044879700297,-19.689396445841883,35.79765233392114,0.28809799999999997,32.089999999999996,1
0.6861380264735284,-0.002465712021798792,-0.6446620170637903,-0.005906100620185955,-0.0029147440669199977,2.7795535454712557,33.118637,-2.617189770684071,-50.826496926966314,-36.10468844781984,-18.592398721736267,6.70626046062006,0.2868189999999999,32.06999999999999,1
0.6874142365767693,0.00022357918761254712,-0.6419713724624276,-0.07612846089402735,-0.0031588477704827225,2.7803500280428812,33.1217,-3.1181050685608795,-50.905487134402314,-35.983552851357324,-19.31210391678811,-36.649643360901614,0.28809800000000013,32.07,1
0.6886279175864021,-0.0005901179515449212,-0.6416540006019193,0.02973831403735466,-0.0022614492745541537,2.7790576915461784,33.122093,-3.0736422113040316,-50.38752345039046,-36.080832350103165,-19.936278974813575,10.12227969289215,0.2880979999999999,32.06999999999999,1
0.6879743136189455,-0.002315888792805572,-0.6410744303146633,0.06378057943211932,-0.002763998470417213,2.7811727000508983,33.12472,-2.65396437724844,-49.90305935348035,-36.33305084459047,-21.489383096050418,34.346819901512085,0.2868190000000001,32.07,1
0.6875772340110045,0.0012112073098630104,-0.6432685708261096,-0.05411632610400639,-0.0022270107921480015,2.779103340295572,33.122387,-2.243668818117059,-48.58210990766788,-36.936251670401695,-22.08824586465313,-27.103284866760436,0.2880979999999999,32.08999999999999,1
0.6855674940533313,-0.0011828364878404241,-0.6439384242263799,-0.05773877200675838,-0.003019668466415636,2.779979561952267,33.1254,-1.709856101652412,-48.468793389481135,-36.93362297666714,-22.65580118036275,-27.53735453887555,0.2868189999999999,32.08999999999999,1
0.6872121242847088,-0.00485230988499195,-0.6424702740301321,0.05592209897793338,-0.0027921236926813876,2.7825351031361722,33.12708,-0.5299589947471879,-48.113225478435005,-37.36373922876196,-22.526970146266766,37.286544751435486,0.28681900000000005,32.089999999999996,1
0.6849196217383503,-0.007058716054887942,-0.6448083470237266,0.025510472137275135,-0.0029509289423326145,2.783036771492267,33.12546,0.8479756989354866,-48.461084350136815,-37.33269093749662,-21.756296849962418,21.456938284215106,0.28681900000000016,32.08999999999999,1
0.6834572896062516,-0.005553528077577074,-0.6477661339144204,-0.08209336008466647,-0.00314485597768782,2.7808184787824572,33.12408,2.367539087707232,-47.98170672935133,-37.5026801741548,-22.5835748278865,-22.82211222870373,0.2855389999999999,32.09,1
0.6838297410509598,-0.007839550920022835,-0.6431895115182377,0.02762202501904534,-0.004146032746785814,2.7798059815065046,33.1271,3.5648766757393098,-47.92476851936164,-37.886360067741,-21.816899409604588,4.819863441570216,0.288098,32.09000000000001,1
0.687052018419779,-0.006646213656301761,-0.642977877329436,0.09488550906118708,-0.0035992086867132284,2.7808359935860767,33.125256,4.142971259952755,-48.055410704294204,-38.03303252902662,-22.312305501250407,22.468592718938417,0.2817020000000001,32.09,1
0.686614492528445,-0.007280013022273358,-0.6439904264386254,-0.054580995450630436,-0.0028483870251989124,2.7787301735972774,33.12814,3.740443386586351,-47.96808940750611,-37.97767921960486,-21.700214613207546,-22.96938366645236,0.28553900000000004,32.09000000000001,1
0.6888430597999597,-0.004708837756710531,-0.641378872866539,-0.0064099293772073435,-0.003184381669318387,2.7779607443423715,33.129295,2.129936733468216,-47.63313632734345,-38.35225354767526,-22.366151543929554,-36.30285822639802,0.28553899999999993,32.09,1
0.6876721331476258,-0.004257991944671122,-0.6418409561742983,0.07707150478130508,-0.0024194028425251635,2.7805483561846285,33.130707,0.32923666495907994,-47.24509587852752,-38.97525353490663,-21.73634201530359,19.60707793013227,0.28681900000000005,32.09000000000001,1
0.6881032334884964,-0.002398145818364649,-0.6418242562832086,-0.009130173643424569,-0.0029464358716780195,2.7788842727385643,33.130917,-1.2335429811513334,-47.360036191269764,-38.97431781530637,-21.937364862851155,11.47246262253045,0.2855390000000001,32.09000000000002,1
0.6886049059248927,-0.0011142447489631204,-0.640849547603349,-0.08251806608896514,-0.003197085379048169,2.7779551941131593,33.129898,-2.5523410464698153,-46.284386987132216,-39.155559610412645,-21.014165134394226,-31.122533254085802,0.279143,32.09000000000001,1
0.6897725033246187,-0.0028537721039679077,-0.6403167420007819,0.029918490776739342,-0.0030601501791225555,2.7769038145325986,33.131706,-3.4174853260140856,-45.59591041287895,-38.59877337511508,-26.761417812533733,8.92840967502273,0.2868190000000001,32.089999999999996,1
0.6895758651996736,-0.00011013303147955704,-0.6391100100465642,0.045445032589276846,-0.00266750662963742,2.7774469035553735,33.131844,-3.4917152572580252,-45.27459872799494,-37.57196839312387,-28.127393806364918,25.13263995173009,0.28937700000000005,32.089999999999996,1
0.688906666438231,0.0004726670545550087,-0.6427180585464872,-0.07158029444373057,-0.0029924309234016628,2.7764862548562723,33.132286,-2.9645974292224713,-44.705445754687396,-37.923604215779214,-27.452304049136696,-28.059219609800067,0.286819,32.089999999999996,1
0.6878697954623563,0.00022344075244977332,-0.6399932500862902,-0.04973424501696281,-0.0023810991577982495,2.777391148257973,33.13514,-2.057629703515531,-46.39459751643999,-36.782606479666015,-26.576310632649502,-23.024046147574754,0.28553900000000004,32.089999999999996,1
0.6893331671568478,-0.003781248258156592,-0.639505696494008,0.0641795410130419,-0.0032653838532005425,2.778756817758128,33.134552,-0.5989049862713538,-47.32310903931284,-35.611623910795444,-27.166713474884638,54.62387299657195,0.28425999999999996,32.11000000000001,1
0.6849205664938055,-0.00611143294969776,-0.6440121074930936,0.0017496840229176565,-0.002507769258662859,2.780736799750904,33.136917,1.16957252638411,-50.735216469384916,-33.99505897426401,-23.453466522831956,25.373626932750376,0.28809799999999997,32.110000000000014,1
0.6848953613460529,-0.002568872666603939,-0.6425778040631739,-0.07193296877191169,-0.0031148148772857905,2.7805639647249585,33.135094,2.6616533490675516,-49.30659620925027,-34.49202968273367,-25.727311547038855,-58.35269065715955,0.285539,32.110000000000014,1
0.6891227138178944,-0.005669051603492559,-0.6382833822061172,0.0663923557499168,-0.00261666614363836,2.7802288897881073,33.13642,3.6226826224742164,-49.036455529646894,-34.458584788069636,-24.760233720252455,-23.205128567162586,0.28681900000000016,32.11000000000001,1
0.69064498154791,-0.0034051922935068543,-0.6394571215558111,0.09082729751345626,-0.00302180809745393,2.778731762195626,33.1358,3.5550304160773774,-48.86703088863638,-35.068961995338405,-26.43461780015478,20.55394529007672,0.28681899999999977,32.08999999999999,1
0.6895211998527557,-0.001965919424345203,-0.6394865509064945,-0.05748936075000152,-0.003225561463409474,2.7786147009497446,33.1372,2.1372074598052078,-47.39357815906553,-36.41735285007761,-25.14592200915663,-9.519610044699226,0.28681900000000027,32.089999999999996,1
0.6903166233602692,0.00037939128912947137,-0.6396322189402526,-0.01877461178783453,-0.0030420908300876582,2.777812737281128,33.138927,0.006801641821318675,-47.6843477646494,-37.150580350700906,-23.4283533775482,-19.71539106410569,0.2880980000000001,32.08999999999999,1
0.6897340291738244,-0.0033618638689451746,-0.6390830567049489,0.05981985863910261,-0.0024966059103037393,2.7771667812200995,33.14255,-1.6886516629916526,-48.051345925261295,-37.03012912586709,-22.821319683102715,41.17514721045679,0.2868190000000001,32.089999999999996,1
0.6892358897316171,0.0005538082760115319,-0.6396886110936699,-0.0008969253931287279,-0.0026679215285111833,2.7771271989798914,33.139355,-2.5834639218160764,-48.10354363356097,-37.03002096597511,-23.277130465749625,15.79053449498233,0.288098,32.09000000000001,1
0.6902647281926834,-0.002220860874223055,-0.638470103838958,-0.08751673292805309,-0.0018538356666548965,2.774055843680055,33.143085,-2.8182470527577417,-47.97229164069103,-36.96067405060618,-22.777370546069015,-21.88340601161811,0.286819,32.09,1
0.6919365761947748,0.0011992125423251345,-0.6381772668272553,0.028744499585511188,-0.003360238148721855,2.776325962823043,33.14169,-2.6156001563988682,-48.15636690981567,-36.59099804452615,-23.64933063703438,4.293726085149867,0.28681900000000005,32.09000000000001,1
0.689184962133429,-0.002252339347584571,-0.6396814276674857,0.042217581262168305,-0.003510902766725659,2.7792684511876167,33.141445,-2.0595005212578243,-49.60665790264549,-36.01638847375666,-20.842339538176333,19.867129899049182,0.28553899999999993,32.09,1
0.6879107626739981,-0.004577129272267043,-0.6416535099558465,-0.06341262429802946,-0.0030683879620030208,2.7797319680288184,33.142544,-0.8511596699018659,-50.17243601646223,-36.26561706945893,-20.84309211760142,-30.538508273870097,0.2855390000000001,32.089999999999996,1
0.6875762687292688,-0.003274213353942169,-0.6411024321485266,-0.04465326830711835,-0.002263165865500118,2.7797395701080214,33.140347,0.6862333502493774,-49.96142826988948,-35.928484875560436,-20.638820034776284,-27.42910341849916,0.28809800000000024,32.09,1
0.6876553593524878,-0.005699392903561013,-0.6400837625321985,0.09083978400283119,-0.003005937149780096,2.7805963276850725,33.143932,2.240572018375499,-50.059155481840065,-36.06288300449885,-21.20888311596984,33.60779595805684,0.286819,32.09,1
0.6873896371672936,-0.005995745095302277,-0.6415554222759635,0.008711892099651517,-0.0025520141682521787,2.780181953326534,33.144596,3.399246532870446,-50.24348148090084,-35.94600156812174,-20.77860958212435,11.395210543086087,0.28809800000000013,32.09000000000001,1
0.6898738943322891,-0.00410539384758198,-0.6398149403383153,-0.05744208598073336,-0.00295692802277873,2.7812265286328763,33.143654,3.535667011414176,-49.90392690795359,-36.0356191535541,-21.204290570390473,-41.174603994527786,0.2868189999999999,32.09,1
0.691270192280697,-0.0042276043858284935,-0.6384018668213559,0.0485107118776163,-0.0023619289943121,2.7786744520799522,33.145126,2.494617118459535,-49.86477972277032,-36.09804494133177,-20.94400701901122,4.402005762066477,0.286819,32.09,1
0.6909528868259854,-0.004862737159645629,-0.6382195405620366,0.06715881750700596,-0.002727950989862548,2.777221141130241,33.146843,0.9077111226447797,-48.05845114065441,-37.22689829992609,-23.318399994271665,41.226804635850904,0.2880980000000001,32.09000000000001,1
0.6897160412930836,-0.0001846643666937301,-0.6388671240362743,-0.07013007165424504,-0.0028829997668289487,2.7757083884820735,33.147644,-0.6352150019788229,-47.147401886215036,-37.09644190345478,-24.21182619742985,-13.834194901326953,0.28809800000000024,32.09,1
0.6918941605564783,-0.002076031323815069,-0.6383950149404555,-0.021234323184506302,-0.0036891003326826833,2.7766134172142456,33.14708,-1.9444301543141211,-48.04016157446586,-37.16989692236439,-24.023595019402116,-17.652033142541065,0.28809799999999997,32.08999999999999,1
0.6914565857228974,-0.0014612059925044499,-0.6358827125417833,0.06180660158053246,-0.0029494621600062955,2.7768548099202675,33.146614,-2.62150249520449,-47.52214516781323,-37.46244590741282,-23.68564947373631,34.58125522027407,0.281702,32.089999999999996,1
0.6909443744502387,-0.0019820988990078055,-0.6381571316415101,-0.012608026871671221,-0.0016087108290447228,2.777370977537696,33.14957,-2.552401114881976,-47.34724226485526,-37.92730246414446,-23.627352364050658,17.445231942959012,0.28553900000000004,32.08999999999999,1
0.6913231338898365,-0.001090507197615199,-0.6381619425691102,-0.07750370529121065,-0.0029843907267027296,2.7762807008108688,33.150723,-2.1807715480797305,-47.02823798110343,-38.014305641703835,-23.20048962935605,-29.74081042182296,0.286819,32.089999999999996,1
0.6932465908244588,-0.0009941826462794333,-0.6371673449887927,0.02884809911473462,-0.001980415441542285,2.7755418332482007,33.14688,-1.7756773219752673,-47.74572429256747,-37.8234152582303,-23.243075084232427,-2.8390839336195803,0.2778640000000001,32.08999999999999,1
0.6889948123596925,-0.002690045153542295,-0.6391293463029191,0.050103670926860716,-0.003447233264369832,2.7763571835948415,33.148354,-0.8877398799308134,-47.66608376207226,-37.806047349125905,-23.284208399177885,26.520856831707547,0.288098,32.08999999999998,1
0.688826707391029,-0.001947400649264814,-0.6403798597764391,-0.05321223161181835,-0.0031123504488926213,2.7773028242190625,33.150455,0.5050866864204467,-47.1700882578424,-37.22371005765218,-23.50789698852434,-29.885611316535556,0.28553899999999993,32.08999999999999,1
0.6905731545729452,-0.0019950689923591922,-0.6393407897379041,-0.05037261981008471,-0.003301194058247794,2.7769753060590197,33.15403,1.8087552581545154,-48.967409666979115,-36.32464635322912,-23.98308960059789,-28.95602240957315,0.286819,32.08999999999998,1
0.6891297428143618,-0.004688453654953223,-0.6379159510435496,0.09442240616399238,-0.0021987792851475237,2.779953301262612,33.151737,2.8503869134962336,-48.03770587154974,-36.661423972800435,-24.394007577908727,35.6117983619032,0.282981,32.08999999999999,1
0.6888274628075934,-0.004121155123923104,-0.63692193800225,0.010872340342437604,-0.0027690021550028643,2.7813202567199498,33.15336,3.7348651036836906,-47.8942322207355,-36.72826763882672,-23.641653821827397,16.90461044842549,0.2855390000000002,32.089999999999996,1
0.6938049909240183,-0.0029716985041927154,-0.6364335021573724,-0.061641156345246466,-0.0032052971138464546,2.777727876775833,33.153137,3.9444316304249605,-48.23542327244866,-36.46529090169067,-24.598251667425362,-45.16290086973289,0.2868190000000001,32.08999999999999,1
0.6929406600538378,-0.003375468866197848,-0.6342420878042643,0.042116713179066664,-0.0027250941890623044,2.7759848678192665,33.155373,2.7733944567914186,-47.1276367359354,-36.83944945532963,-23.927395853126573,-3.7382597829162236,0.28426000000000007,32.089999999999996,1
0.6940580951621662,-0.0019497293789272905,-0.6342317506685359,0.06958879536113076,-0.002791532821872053,2.7748310278618233,33.1546,1.0078071735095941,-46.64931462803874,-36.20583287859664,-26.22299301996628,42.94303264925525,0.2855389999999999,32.11000000000001,1
0.6921516612600481,0.0013089822905113073,-0.6366840181669183,-0.060678040362250635,-0.00259902340118566,2.7731450106851128,33.15627,-0.8339350976013093,-51.775100361350724,-33.86005999661907,-24.23876888729599,-14.860453247963719,0.28426000000000007,32.11000000000001,1
0.6936817701177869,-0.00139866946168298,-0.6357702989271291,-0.041908601363328635,-0.00272065846438797,2.773608159283087,33.156307,-2.2144009652941956,-48.49171070382027,-35.03031961722237,-24.886644708963637,-25.78430565661845,0.28809799999999997,32.11000000000001,1
0.6926431628452928,-2.2117902977788155e-05,-0.6338895755256169,0.05778945364260057,-0.0034743922382883823,2.775088213017634,33.157646,-2.809547690371792,-48.920388158123316,-34.988863620553644,-24.609630978898572,31.831978493024142,0.28681900000000016,32.11000000000001,1
0.69390085440495,-0.0021926708930756983,-0.6346598192528506,0.02007351630991632,-0.002381392186773818,2.7729003793712934,33.159164,-2.738296939701792,-48.87318028220992,-35.164192260865256,-24.63153024589896,11.81599531595131,0.2868189999999998,32.10999999999999,1
0.6911650122550339,-0.00011525422534823929,-0.6368292825636,-0.07916340285659372,-0.002415026399375297,2.7755140321162237,33.157852,-2.391112569384603,-49.54025670976177,-34.87800225071079,-23.580356967630046,-16.015827157769408,0.2868190000000002,32.11,1
0.6956865777745235,-0.0003504695613744679,-0.6338347318405955,0.016113372001543596,-0.0030391387121404805,2.773567479357997,33.156948,-2.0500108679211198,-49.21741529133495,-35.108322380917755,-24.804838004476316,16.56292304815661,0.28809799999999985,32.10999999999999,1
0.6923418594872197,-0.0011747307874364575,-0.6359721336341011,0.05968627802995158,-0.003334420120975687,2.776182793920495,33.159775,-1.6520044704588421,-48.2999530518843,-34.89958567056979,-24.432898692091563,28.942070447106293,0.286819,32.11,1
0.690927030300375,-0.0030901117874966655,-0.6388498985681111,-0.027562716678619585,-0.0019582618887674587,2.7773039389427674,33.16084,-0.8550468306626455,-48.99316341451893,-35.094950948894244,-24.59795373863671,-14.946949154051074,0.285539,32.08999999999998,1
0.6900705618414839,-0.0025696799323377028,-0.6385315889559527,-0.08221647053076793,-0.0027350863423053866,2.774228824604652,33.162968,0.4999881788793802,-49.175800156595194,-34.90918167744936,-23.845691754761248,-34.916163677915854,0.28937700000000005,32.08999999999998,1
0.6889582539573693,-0.004283237716804838,-0.6392457202369918,0.0728096855879885,-0.0026011530078193803,2.7766333928127302,33.162796,2.03496153240702,-49.147166687211296,-35.08748533376168,-24.648346173258723,25.752864631662632,0.28681900000000005,32.089999999999996,1
0.6846503081555002,-0.0040101174617741455,-0.6418375240161123,0.04104006129681827,-0.0027852929055782365,2.7774944577333622,33.163143,3.526314178589607,-48.63235216364356,-34.915364035980645,-24.245705534749877,22.64804686254169,0.2868189999999999,32.08999999999998,1
0.6874640244324791,-0.0038323669903791257,-0.6406264122752651,-0.06492174358808753,-0.0027985166588054447,2.775114799555242,33.16154,4.273278252175726,-48.86593484337465,-35.08200890038203,-25.5943590964532,-27.039027548747768,0.28553899999999993,32.06999999999999,1
0.692107984238528,-0.0029914949046424034,-0.6359099462894413,0.040940233291787975,-0.0027032155004394517,2.7772192443655435,33.162952,3.836374842116786,-49.80333043507423,-34.921710680362764,-22.415682556401002,-18.141617204382733,0.2868190000000002,32.07,1
0.6921463359242426,-0.005438568137876448,-0.6374228070682364,0.08649995749153738,-0.003106261481203789,2.7784936398594677,33.165665,2.2969727529685025,-50.476017140790006,-35.27347223146769,-21.96368709466769,28.779748743926383,0.28553899999999993,32.06999999999999,1
0.6929274820020174,-0.001475709997976783,-0.6360918371683775,-0.05694110222774514,-0.0027548992670883357,2.7766554345141263,33.165634,0.27012717904452843,-48.76132504423654,-35.577807340958344,-24.293914292162743,-4.415286717082749,0.28681900000000016,32.07,1
0.6929579574489572,-0.001173729371074537,-0.63657918784572,-0.036041067011019015,-0.002955273690762041,2.7757479200735684,33.16614,-1.7985294829030747,-47.66031404091591,-36.018141691222084,-25.61190839562308,-26.849927048764844,0.2855389999999998,32.09,1
0.6929777527113175,-0.0009315335668206311,-0.6346214897680494,0.06474503406952711,-0.0032309746364301054,2.77625945683158,33.166573,-3.019523305848181,-47.75275457930787,-36.02946327691482,-26.47577071333413,16.92474798328702,0.28425999999999985,32.09,1
0.6920115256848435,-0.0017140850921767241,-0.6362137445913497,0.006929061247588827,-0.0022346048525008454,2.7754486552667106,33.16774,-3.256051607090761,-46.52195854895683,-37.05642075268683,-25.563904669415972,6.989040593848425,0.28553899999999993,32.09000000000001,1
0.6925998581012974,9.361756100901318e-06,-0.6349656120647367,-0.07993433734809047,-0.0036235582074534696,2.774698656615279,33.169743,-3.0056456067117576,-46.83119326205196,-36.864164375188935,-26.12188727151735,-34.10482957516018,0.2855390000000001,32.09,1
0.6948829211319223,-0.0010808794326603313,-0.6346301728319887,0.027059810871524502,-0.0038817293722160687,2.776166902449287,33.169518,-2.6651567544739687,-47.17758365762129,-36.77825046059569,-25.835137930222853,17.87195926733947,0.28553899999999993,32.08999999999999,1
0.6912975180206702,-0.0005674530940859894,-0.6368635853007116,0.038778513938661864,-0.0029663622982397607,2.777617109796512,33.169758,-2.002111201651454,-46.73419924958192,-36.89562717736514,-26.514179194097473,35.246715174672886,0.28553900000000015,32.089999999999996,1
0.6886508350006806,-0.0016230482098983463,-0.6408638675585375,-0.08006394040685774,-0.002598616823329602,2.778051062302301,33.168587,-0.7405594108532537,-49.78120145149392,-35.84566219003772,-21.126273022636667,-23.88897961937136,0.28298100000000004,32.08999999999999,1
0.6869541039928058,-0.006231483105215054,-0.6421331560323494,-0.035330745340835155,-0.003228692384214825,2.777923977058142,33.17184,1.0360799787924904,-51.62220268582282,-34.87700092209374,-18.98558337614233,-39.6829759237537,0.28298100000000004,32.089999999999996,1
0.6865888937351357,-0.00046056663809376086,-0.640539650829071,0.09390546587455627,-0.002801160368480456,2.7789449304244633,33.16798,2.7442230971378487,-49.51937755356447,-35.42363445087821,-23.870844139007893,25.03496929127464,0.28298099999999987,32.089999999999996,1
0.6851113808308887,-0.0056364126893585385,-0.6421608560438578,-0.017294242884188522,-0.003288324055747868,2.779066593895493,33.172615,3.9089178402273235,-50.612064647382745,-34.972895504085216,-21.080272965174963,3.7495840087342005,0.2829810000000001,32.089999999999996,1
0.6905697413799591,-0.0025537410350307435,-0.6391031127088025,-0.03828862003300799,-0.0038047496807005806,2.7788987925422775,33.1729,4.123220318065669,-50.48266019916311,-35.23932237230547,-21.463939763869433,-41.82867203407064,0.28426,32.089999999999996,1
0.69193192388727,-0.003599759326885633,-0.6354251784132497,0.07906385704232796,-0.0035011390987226745,2.777150429596575,33.17248,2.961072658134547,-50.1468453876255,-35.494216360742804,-21.983867645949054,-2.329538449733613,0.28553899999999993,32.089999999999996,1
0.6931850654951419,-0.002430475793105876,-0.6367822549166141,0.0037255885302428684,-0.003889881115358909,2.77397095100249,33.175426,0.9899809866948929,-48.33229801396245,-35.881800406742116,-24.471258480727165,31.184251319747254,0.28425999999999985,32.089999999999996,1
0.6925757994747641,0.001250464065663268,-0.6363201149125862,-0.09863513213645338,-0.003178187856496496,2.773934062893807,33.17356,-1.0454154253992705,-47.44614404054554,-36.06817039493947,-25.765758397490522,-8.817909835044047,0.28426000000000023,32.089999999999996,1
0.6947974270453693,-0.0010246687140335758,-0.6333765177863286,0.025202103676265155,-0.0027145184945903344,2.7726989243518423,33.17484,-2.5439036643232376,-48.12745336779719,-36.08915336724441,-25.199064461892146,-10.561708942445728,0.28553899999999993,32.089999999999996,1
0.6931547106416405,-0.0012493198952985177,-0.6336981950331119,0.053729540127144364,-0.002326244658792568,2.7720171678404704,33.1781,-3.1254572466534727,-47.74257714200213,-35.97612662034298,-25.00760218673559,35.06062499554287,0.28553900000000026,32.089999999999996,1
0.6934348528000042,0.00033302122359346565,-0.6357739015033155,-0.05513133614237378,-0.002332166469582842,2.772233737027727,33.174686,-2.809893332449262,-47.54424166535119,-36.45053755751318,-25.207072988515897,-6.930178520308983,0.28553899999999993,32.089999999999996,1
0.6945013506071743,0.0002807018552720478,-0.6334286427358539,-0.029563864126773143,-0.0028588654206179987,2.772380528897582,33.177082,-2.339281833782722,-47.62637295159522,-35.9954939326783,-25.134812592113768,-11.324403489894172,0.285539,32.089999999999996,1
0.6948861379638679,0.001486698307295914,-0.6346511477056038,0.0698510240505439,-0.002045353146338455,2.7704126877487116,33.178993,-1.872975636074802,-48.00693861649352,-36.144967905925284,-24.865236209407875,33.515678387620326,0.28426000000000007,32.089999999999996,1
0.6907197157214159,-0.0024352744333421975,-0.6368805972575984,-0.0027563277582731234,-0.002963273459245675,2.7711900465057053,33.18207,-1.047801498650074,-47.567477102907,-36.33568017345996,-24.906530018480755,3.47919572459103,0.2855390000000001,32.089999999999996,1
0.6924803051499471,-0.002931156855122504,-0.6363247721002186,-0.08203977039241911,-0.0026356061859567777,2.771774554427067,33.177788,0.10371011044378654,-47.593182889942426,-36.285624145478536,-25.138922134970198,-42.06758027395193,0.28298099999999987,32.06999999999999,1
0.69052313481485,-0.0023178089170625585,-0.6375337986961735,0.01747278271857023,-0.003182586193378155,2.773285596296105,33.180275,1.2884656898268412,-48.26717369807981,-35.68930222759701,-24.943165179851658,6.78639024108581,0.28553899999999993,32.07,1
0.6887286259384544,-0.003529674476081821,-0.6378953546679391,0.08521969150544775,-0.003879830400277951,2.773347044575329,33.181084,2.5632177768402586,-50.40614622544635,-35.0335453628208,-23.096145279668693,39.32885563689691,0.2753049999999999,32.06999999999999,1
0.6881440349751653,-0.003253808766501678,-0.6389607622048318,-0.02947897463452958,-0.00364340834049084,2.7733213036261137,33.181274,3.6643795315452996,-49.284667454298905,-35.150454457466466,-23.60930378686148,-22.357788155856692,0.2868190000000001,32.07,1
0.6935404168709615,-0.003157554609855173,-0.6360720485554676,-0.021305582005247008,-0.0027759285090417736,2.772460118994265,33.178425,3.6314205933040733,-48.88929294587917,-36.083460472169726,-23.971843634663813,-31.699842781999635,0.286819,32.08999999999998,1
0.6941888371696314,-0.0049044703260900475,-0.6334387877907234,0.09325006980919343,-0.0027597768990947603,2.7718399499123043,33.182285,2.410493377498831,-48.60421320785416,-35.87571611606726,-23.94265945975885,33.064313675705435,0.28681900000000005,32.08999999999998,1
0.6938705442597504,-0.001600897431366251,-0.6351101989007154,0.021005757422292014,-0.0027210658096429607,2.770361108238565,33.182053,0.7840909284439159,-49.18549816708092,-35.961368773539505,-23.898807237805393,16.978110924136,0.28681900000000016,32.08999999999999,1
0.6922696117580611,-0.0028197688307695042,-0.6361722323750815,-0.0852678266667448,-0.0032576500170769748,2.7703667627078077,33.181957,-0.8412854104655093,-49.19237640145374,-35.81606156869265,-23.063526550132835,-38.89190573684124,0.28553899999999993,32.08999999999998,1
0.695818650217007,0.00031461317800988466,-0.63221323227992,0.018664234169125438,-0.0023113577573206767,2.770303663889126,33.18336,-1.9211209759208856,-48.95149326738379,-36.071785034218976,-24.16171844536105,2.6371214385041855,0.2855390000000001,32.10999999999999,1
0.6929068505890943,-0.004348665646194824,-0.6348253066009776,0.06824737257344851,-0.0029035434091701077,2.7687570807736206,33.18374,-2.310572827835044,-47.98697627531256,-36.02731760419261,-24.63164380302785,37.948050585764996,0.27914300000000003,32.11,1
0.693045474915558,-0.0007278061307321287,-0.634975706711708,-0.032122297159884676,-0.003380414941776977,2.7696896424587676,33.185562,-2.230962649520805,-46.647227577646206,-36.10651063381702,-27.603927908483715,-17.40083350139824,0.2868189999999999,32.10999999999999,1
0.6938710496319237,0.0009601544249755411,-0.6333372476087599,-0.06835164787459823,-0.0027258789196448864,2.7700119570572466,33.187286,-2.0676615875861475,-47.9072479086187,-35.791045091750576,-26.442440930661256,-29.828174444689537,0.2855390000000001,32.11,1
0.6946867406623753,-0.0015080637464393058,-0.6342378736419462,0.055641343287259976,-0.0024725498592862044,2.7693955562034573,33.18587,-1.9061195764993073,-47.71930423206583,-36.014237313105404,-26.238915462515102,32.98038981290146,0.28681899999999994,32.09000000000002,1
0.6927461992207281,-0.001078580326358424,-0.6350938958449395,0.016308123966875008,-0.003972380380109002,2.7712151590384506,33.189663,-1.4574877977982357,-48.07506046980036,-35.865934780455675,-24.374764952067963,26.91309089183683,0.286819,32.09000000000002,1
0.692486216129298,-0.0011392012703904271,-0.6360959524427547,-0.09126830278828205,-0.002949652635460843,2.7714951359875144,33.187912,-0.7130356363748671,-48.98765824670426,-35.712203780094555,-24.33525365189453,-18.57995764336845,0.28553900000000015,32.090000000000025,1
0.6913346094446313,-0.0014396228791132785,-0.6349197145964733,-0.019928500490028804,-0.0025909365603300713,2.7706633224424086,33.18771,0.3526477935026008,-49.95101787896712,-34.79540752630478,-23.13606615300551,-11.86689990722662,0.28553900000000015,32.09000000000002,1
0.6919393621891717,-0.002762568005850928,-0.636633719074762,0.08472474882402713,-0.003085306217834187,2.7771649388361133,33.18976,1.3525297673025394,-49.40704564529089,-35.18298944262903,-24.24398803441706,21.303612551180446,0.28042199999999984,32.07,1
0.6893271865606273,-0.004883540346892935,-0.639559147985094,-0.04585299343706406,-0.0031500960780233627,2.7775261562508162,33.188892,2.260699559862198,-49.659692193576745,-34.82778328146744,-23.123794726843773,-18.07862269183046,0.28681900000000005,32.07000000000001,1
0.6892569272256766,-0.0016686272988970516,-0.6392718311844775,-0.05882544404350682,-0.0026503341851930947,2.7782577882441606,33.18916,2.954352312329654,-49.41708892697428,-35.162940911295344,-24.112317399791046,-46.63470828017313,0.28553900000000015,32.07,1
0.6868944996400685,-0.006745684274518108,-0.6403819312479587,0.08614342839819676,-0.0036467782049632914,2.778837209708617,33.19068,3.230018571706796,-49.06866542885931,-35.021515684088946,-23.34407301924613,18.661109240665507,0.2855390000000001,32.07000000000001,1
0.6887702095580982,-0.0033071155821642025,-0.639335320909161,0.02540212612858308,-0.002978548335985704,2.7785742163713194,33.191154,3.33838896247079,-48.85917933930551,-35.68969193866233,-24.569090092343394,28.336171741674047,0.28425999999999985,32.089999999999996,1
0.6904232372466382,-0.00562213413417412,-0.6393648482877055,-0.07184850382744508,-0.0029166291171693944,2.7768366251875105,33.191017,2.936566591233159,-49.00957021613804,-34.87140360860048,-23.552976419724033,-28.646706675844893,0.2880980000000001,32.089999999999996,1
0.6937687203134595,-0.0028497874975769956,-0.6345946011457048,0.06485647543012633,-0.0025378573530030787,2.775153822151592,33.191616,1.6507612130211478,-50.17383947919495,-35.301516815386265,-25.203018694544,-7.87871977361143,0.28426000000000007,32.09,1
0.6912766180994919,-0.004610461317556441,-0.6367717886574126,0.06366156779349189,-0.002794781531249852,2.7756578638032146,33.19243,0.2686106270621538,-48.97915004572283,-35.60611933985556,-20.596403394523133,37.7136061799525,0.28553900000000004,32.089999999999996,1
0.6917628082594558,-0.0011535620245252767,-0.6364740657722973,-0.06539740907819991,-0.00333848942687927,2.776424566700951,33.195335,-1.012522930821449,-52.275114831871576,-36.20845562796332,-19.17241513929428,-14.859213341071579,0.28553900000000004,32.07,1
0.693120792192508,-0.0016354743518686458,-0.6346731472304681,-0.032877315782767313,-0.0028549234892576844,2.775957085657938,33.194332,-2.437940898889076,-54.377966421936485,-36.35225913376219,-4.396560773747327,-29.114158460272833,0.2842600000000002,32.07000000000001,1
0.6893957695607199,0.007448071062032154,-0.6390779595168611,0.07924656646870161,-0.003350405557282909,2.7740129556521005,33.1952,-3.3620410621687076,-45.56660588675327,-37.38999131813042,16.87388904718682,29.43002599971521,0.28425999999999996,32.07,1
0.6902850514985723,0.004530262278708729,-0.6399095122342735,-0.011140096596311022,-0.002911028686126629,2.7750279588149063,33.1953,-3.26907821415891,-17.49760480075796,-33.132354351672845,53.80485724909501,11.281887408180694,0.28553900000000015,32.07000000000001,1
0.6929796578420367,0.0057554441158022196,-0.6402130076456743,-0.08222316284837575,-0.0018963518190551329,2.7762923732088702,33.195477,-2.7926674608930253,-26.91366598277323,-33.15709164507783,45.281284735781966,-59.14106666268288,0.2932149999999999,32.089999999999996,1
0.6932327119850175,0.007369980465239705,-0.6309466929894315,0.00879932842209885,-0.00216734594599408,2.774492550821508,33.19724,-2.1577901592718916,-48.21131888675963,-41.88552071957329,-13.46752778112936,11.602040342036071,0.290656,32.089999999999996,1
0.695987376792711,-0.01489207064856446,-0.6323446241892016,0.04817541894232142,-0.0027645548327022546,2.7788454757159538,33.19663,-0.7891464028785359,-51.933848867071134,-41.89976041764854,-2.4208982972439275,20.42097073536893,0.28553899999999993,32.089999999999996,1
0.6917321570059393,0.002620833976362411,-0.6367796248940111,-0.09159178355878457,-0.002530988178732853,2.7767206062918346,33.197456,0.8046167773845476,-47.91540922335733,-42.959208185791205,7.272909016450396,124.59328956175564,0.28298100000000004,32.089999999999996,1
0.6885270958035087,-0.017888340110411002,-0.6426646982169444,-0.051385988353639715,-0.002712830300747646,2.777206522982871,33.198204,2.1938207859253023,-39.50280557312611,-49.12663324680553,4.639004182618814,65.58333668419394,0.28426,32.069999999999986,1
0.688720663702007,-0.023712232024256256,-0.6389549226722138,0.0856992110364122,-0.0030874026338777163,2.7750437125052425,33.199978,3.355180705439751,-42.66147243042908,-51.0058478360962,9.307758376465493,-133.5280269388928,0.2842600000000003,32.06999999999999,1
0.6891952939254384,-0.027611460763986306,-0.645332195330457,-0.01776386117500042,-0.0026613953411388,2.7783307584133468,33.199097,4.424753187038716,-13.009562844594834,-61.01442672458851,19.08571058461785,-45.686155569197936,0.28426,32.069999999999986,1
0.6932248691830413,-0.010108931856330954,-0.6367046512394698,-0.07462077642247832,-0.0027460554182204932,2.7768865162952348,33.20149,5.367537345315396,-13.365642107468368,-54.564388245933856,19.69925448344772,-60.0784458169688,0.28425999999999996,32.06999999999999,1
0.7025670539017255,-0.005282832219775739,-0.6247061312654977,0.09148036043523458,-0.0029070751109187653,2.776023806229773,33.200653,5.838456306369836,-16.143741612489706,-50.71576034472609,26.4266033770285,-24.100876626061716,0.28170199999999995,32.069999999999986,1
0.7001449260079132,-0.008449838453060694,-0.6215849832624963,0.009777232586158747,-0.002684905209132077,2.7794818374780075,33.198673,6.410498913544236,-8.776692240710608,-53.637673135561414,30.88929101673682,56.980415014307255,0.28042199999999995,32.06999999999997,1
0.7096677910281316,-0.015048790350253033,-0.6135045509889924,-0.06596892711834991,-0.00237566687986704,2.7788465112221186,33.20191,7.468506733499437,-7.258131377366166,-56.275496073793256,30.32716366979101,90.40347262688825,0.280422,32.06999999999998,1
0.711133055029849,-0.011790229845110262,-0.6144824422700972,0.11789549789519581,-0.002138572812764776,2.776288687162442,33.199505,7.428438680726326,-4.937620881320994,-53.27512300316934,29.572491592839548,-18.200550727251812,0.28042200000000017,32.06999999999997,1
0.7135780170308642,-0.01376783360146057,-0.6089966201261289,0.05429085187922158,-0.002725301424632922,2.7765455616444603,33.1997,4.708949279466266,-5.830521083170357,-55.102145519228,30.933719403475852,137.40443504066752,0.2804220000000001,32.089999999999996,1
0.7123823350917612,-0.01766159447704153,-0.6134759710128267,-0.078848021673961,-0.0028419850325536026,2.7759033477224055,33.203213,0.8880213283870135,-5.244288940118158,-55.870549688827275,27.49209714114189,0.44611881878814946,0.28170200000000023,32.09,1
0.7144316983321491,-0.014332912796455502,-0.6079143789053081,0.057705580010636734,-0.0017808828654066729,2.775899390959705,33.20209,-2.4682117351901964,-3.0950657573615707,-53.490791384162485,30.165979474782123,-179.7203663865933,0.27914300000000003,32.089999999999996,1
0.7092109235698308,-0.015581791599037055,-0.6163716931550053,0.0724047429850797,-0.0020745796794434303,2.778656418970414,33.2037,-5.034591407538588,-5.665343327651114,-55.764019225071415,28.32858534133953,33.924534747912496,0.28170200000000006,32.09,1
0.7112284727658188,-0.013291888100455194,-0.6136008568446941,-0.06671543311108026,-0.0031025418341864234,2.7745385880347393,33.203724,-6.74671702097264,-9.734271069239167,-55.187688949224345,27.10306914448752,30.627979962501005,0.28042199999999995,32.08999999999999,1
0.70603203825377,-0.016627207211301998,-0.6222557044935215,-0.029607337734739454,-0.0027660902696851645,2.778115362217638,33.20351,-7.920344781523762,-21.27940196424008,-56.89718880787871,17.558315468139362,-91.17381905105715,0.281702,32.08999999999999,1
0.7060584854938374,-0.011539930611409434,-0.6180444354075721,0.0819415823335646,-0.0021695607603906455,2.7779609529001426,33.20772,-8.452779249449412,-32.168488090935135,-54.6888286399467,10.116965146719426,53.57452816525086,0.279143,32.089999999999996,1
0.6967905451752358,-0.010020151762219487,-0.6328372725853137,-0.025379803133904387,-0.002555576891609627,2.7765710511059734,33.208004,-8.304030861388064,-28.262941590854712,-56.82836777656777,11.306694756523708,-6.128590401760012,0.279143,32.08999999999999,1
0.6969336627100652,-0.011860770517836286,-0.6314717925812022,-0.0770040604185408,-0.0020471356338368357,2.776093998276343,33.20676,-8.170117641794405,-23.858476448404552,-56.83039417459809,10.929040818853633,-49.07323776924922,0.2804219999999999,32.10999999999999,1
0.6949431962542376,-0.010648229625554714,-0.6359925842714822,0.028228505726352267,-0.0019950051465123177,2.7761990728849906,33.209175,-8.006176499507182,-25.588274640328983,-57.65263894126309,11.606752263982083,-33.092348737369456,0.280422,32.11,1
0.6956531186081031,-0.012897057705659225,-0.634785824293484,0.035609701026734136,-0.0030593279742436204,2.7793230912327678,33.206364,-7.194211962114926,-26.883057851862162,-56.424701914388095,10.240106606375216,47.318842192769914,0.28042200000000017,32.10999999999999,1
0.6908020679171869,-0.012205221981166942,-0.6382883809953884,-0.09419469339146468,-0.003507254520434433,2.778133723504745,33.209427,-5.52375662439979,-26.766520863602718,-56.548527973478926,12.601062700612765,10.033661994168192,0.27914300000000014,32.11,1
