chest_ACC_1,chest_ACC_2,chest_ACC_3,chest_ECG_1,chest_EMG_1,chest_EDA_1,chest_TEMP_1,chest_RESP_1,wrist_ACC_1,wrist_ACC_2,wrist_ACC_3,wrist_BVP_1,wrist_EDA_1,wrist_TEMP_1,label
0.902537322415799,0.06418574357352233,-0.10370748301943405,-0.11555384720688068,-0.002332055466454788,1.42241777630835,33.52929,-2.133192533129583,55.54202495312093,-13.381614028187213,-29.26202098723827,-2.236842002197214,0.25739600000000035,29.849999999999998,1
0.9045127496829171,0.06645529651284285,-0.09406929387314483,0.048245934312894444,-0.001830625433672565,1.4219106977444076,33.53115,-2.438091677257734,55.3517634175231,-12.120343067644804,-28.179583732614553,14.398262539378475,0.25483700000000037,29.849999999999998,1
0.9038055985400796,0.059005829745416044,-0.1019382940158143,0.048800562466150714,-0.0015325897985265793,1.4212252820640372,33.528862,-2.231887693568215,62.77899159699793,-13.431097343710483,2.4154575068869284,-45.94622642189919,0.25739599999999985,29.85000000000001,1
0.9052339270217936,0.06120088818150938,-0.10745666947577821,-0.10793080182962614,-0.0032431242528642035,1.4249823333966896,33.525913,-1.7410451812839447,54.483627617572544,0.607276312276705,19.29542316927413,127.60646383609124,0.24844100000000036,29.849999999999998,1
0.8964676841340674,0.04568447173380783,-0.13863324443003236,0.04505246838008563,-0.002137443348395481,1.4211329708835585,33.5273,-1.0756147161420613,69.60521192107927,-9.162442630010435,-9.458506899159357,-173.7977010550809,0.24716200000000002,29.849999999999998,1
0.8976160309253045,0.05943403687658111,-0.1537674739269025,0.05002817496117497,-0.0028627987307835146,1.4258704658000985,33.527424,0.32512543645488884,57.43826563334375,-20.339059710299807,11.353338793695183,70.7389529814633,0.24460300000000015,29.849999999999998,1
0.8973440543842139,0.03103650168479757,-0.15489617451407314,-0.08637158621392117,-0.002720724691873047,1.4239762762301433,33.52549,2.860825737494817,33.210422219723355,-2.7755871498132416,46.610801483372725,92.07508384909818,0.2535579999999998,29.85,1
0.902958408433945,0.044532197453963765,-0.13346319770337134,0.09914386996917439,-0.0020475748818833354,1.424442001255425,33.52884,6.0188099779343895,36.426807159606746,-12.25946220609319,58.08515473674495,-161.48987075757762,0.2561170000000002,29.85,1
0.9031119414560465,0.048745473145039714,-0.11431786717046388,0.0020102194006256942,-0.0015759582883917893,1.4254540176552422,33.5258,7.873664575071938,54.57450803501504,-2.9132204535588495,20.230716326192713,47.43480686727712,0.2561170000000001,29.85,1
0.9013911620494917,0.04969393162310574,-0.14072467853580828,-0.09859975426891453,-0.002330652480259358,1.4248127140341214,33.5284,7.156700523899254,68.36209690312802,-6.690856484152107,0.6660027154797404,193.34990527141127,0.254837,29.85,1
0.9022563231669806,0.041327605187028084,-0.12902206060582108,0.1902399399399798,-0.0023194325653747546,1.425891100627684,33.524734,4.098067471132625,60.95994815227863,-3.9157618251070097,-5.617970684132269,-49.02909955950468,0.24716200000000002,29.85000000000002,1
0.9031607161358214,0.04836147054340948,-0.12844109191055245,-0.11842348495609109,-0.002147719836456746,1.426869162253106,33.5263,0.7319245146648923,64.11817427464838,-3.010917136188438,-11.779075471353394,-192.1387451807412,0.24204500000000007,29.85000000000001,1
0.9014066094756445,0.047420893578022955,-0.1273306266083982,-0.04695663872551325,-0.0018649961297247319,1.4234143531259766,33.525303,-1.3605883361255804,62.9749341275968,-3.7465135671117182,2.6251894232127424,-21.174691921246982,0.235649,29.85000000000001,1
0.903095396988131,0.04979892510330936,-0.12643637475943081,0.10668021327449789,-0.002828351374962464,1.4265149374414838,33.523766,-2.5401324617427976,63.04318416570992,0.9674847820445616,-3.99057465376065,-32.43420055603598,0.2382069999999997,29.85000000000001,1
0.9019458409158683,0.046089204895619615,-0.12660375275285754,-0.07249299561592669,-0.0023670997310854536,1.424218147850931,33.525654,-3.1793759538983686,65.30679224862179,-0.9448638897682435,2.1373258112622855,131.26568045869755,0.23820700000000003,29.85000000000001,1
0.9033055165253154,0.05038620430259235,-0.12576094698417917,-0.018656463013788017,-0.003011841452566344,1.4254433085272447,33.529404,-3.266069938390685,60.41337971915188,6.9858741472815264,-0.40317135251448855,20.523857814732054,0.24076600000000029,29.85000000000001,1
0.8998098419298824,0.05705839131622128,-0.13261624734788838,0.08383213430088292,-0.0023854967667449683,1.424163320109061,33.523598,-2.753175688549103,59.70597552438585,8.111081675479463,-6.935415774713041,-22.673464047492605,0.23948599999999998,29.85000000000001,1
0.899548754147459,0.06663128939622723,-0.1363558465560582,-0.06226988871326831,-0.0028233824752228838,1.4268091214210006,33.52548,-1.434366922840249,67.38770463922597,-3.1230957764172604,-1.394667192911348,-16.743488129470016,0.24076599999999992,29.85000000000001,1
0.8985274633688825,0.0692030996809497,-0.14089115731212595,-0.06349646033654856,-0.0021733069023942464,1.4252440110857434,33.525337,1.246380504894628,63.430606709678116,-1.4225066177345338,-4.042660941872466,32.89930316293272,0.23820699999999986,29.85000000000002,1
0.8967603284715968,0.06392854174981957,-0.1494059196611313,0.0893800116915299,-0.0023870782394007396,1.4266917605707314,33.52369,4.374397790272823,62.286038476886105,3.8310482398931764,-6.469177436013001,-28.696154194728248,0.2420450000000003,29.85000000000001,1
0.8948809332668437,0.05029767254074327,-0.15292241987325003,-0.02120139432836722,-0.0023608528560787358,1.4269374991031214,33.523094,6.543581120355999,62.43737112159067,2.9355101166354265,1.7101792667727076,13.27518226436844,0.24076599999999976,29.85000000000001,1
0.8978330854073202,0.04981599443694691,-0.15807195269443092,-0.02947118268202667,-0.0024551373468618804,1.4291708290926,33.522892,7.250184687643319,63.462609610872256,3.3004054413235986,6.983351585495492,9.541642547881018,0.23820700000000025,29.85000000000001,1
0.8965624640047086,0.05105782181603106,-0.16370134263564676,0.1138398834724,-0.0032552069553357143,1.4294100096256284,33.52773,6.127558954024837,60.27175312933318,3.548500036779232,8.503986694496573,4.363333072800861,0.23948600000000012,29.87000000000001,1
0.894037635950078,0.05503087531220442,-0.17110539033186106,-0.05777929907891189,-0.002609407118964786,1.4286605194100637,33.516838,3.30128471521113,62.70827091660027,-4.232517128710484,11.498224706318908,31.089740628446,0.24076600000000029,29.87000000000001,1
0.8950657022782192,0.06213750004598861,-0.1642421763298609,-0.04859342585677459,-0.0029075818683365544,1.426174259662951,33.523045,-0.13579272516230198,62.8647396024741,-2.5600850275935465,2.7283773711280817,74.76452491314389,0.24204499999999993,29.87000000000001,1
0.9024285904794769,0.053771219252841354,-0.13600289254104533,0.10356365755531917,-0.0015164712163544195,1.4271138445155258,33.527317,-3.053887162918399,62.99615132825062,3.157381529401448,-4.872859162593478,155.6288321369087,0.23436900000000038,29.87000000000001,1
0.9006254214667435,0.053347973189455666,-0.131937622280479,-0.0753773394392261,-0.0027961334588434126,1.4260346205030312,33.524426,-5.11924184038568,62.90129585217264,-2.175340688852887,4.925814329451673,-115.47017279874028,0.23436900000000013,29.85,1
0.9021333963525342,0.04498067568050847,-0.1287547991793615,-0.038309258033471946,-0.002512946888395922,1.4262251616769221,33.524406,-6.118525547450698,61.97608287658106,-3.038097781574237,4.684489106140133,-114.37265217057788,0.2343689999999997,29.84999999999999,1
0.9021511910881398,0.05304033114450765,-0.12851729480144786,0.10373104097888138,-0.002200761860452769,1.4263446594631597,33.52455,-6.421065102247392,61.430607907138416,-3.291051128530952,6.531964944547424,-41.296106090941215,0.23308999999999983,29.84999999999999,1
0.9044912061381886,0.03903952766514648,-0.1315319027288307,-0.04880372170808388,-0.0029273147119904383,1.4281888624929726,33.52609,-6.187755401233298,63.08794743580493,-8.73275210574234,6.982131603034812,-18.094385721808212,0.23692800000000017,29.84999999999999,1
0.899312420314557,0.0346585978230178,-0.1501533889972403,-0.0550277357065629,-0.00239689781209526,1.4263450111887994,33.527462,-5.313435760459631,60.592055857648674,-12.045412882744033,13.295518913500153,0.6549193860003658,0.23692800000000008,29.89,1
0.9004115733281364,0.03220408627456947,-0.16067581306307577,0.09589121138567923,-0.002357831306667742,1.4270163397044335,33.5218,-4.008383011268341,61.804964940075294,-12.122807973551094,13.797388968993499,57.181935287357945,0.23948599999999987,29.89,1
0.8970094180686627,0.03169382000237647,-0.16167946332646335,-0.03613419643273037,-0.0025112077264325904,1.4260539741115812,33.52408,-2.182769544549862,57.41974412120628,-14.728728970429003,18.710185236838072,-38.735355336115624,0.2382070000000001,29.89,1
0.9018528831465963,0.04473310737861516,-0.15443618796095715,-0.06394080067178103,-0.001967689474086261,1.4276872399710852,33.528473,0.5742994434379008,59.59295947311991,-14.101907911287693,13.961965614661322,-94.8128549931349,0.23820700000000034,29.89,1
0.896672464770263,0.031789626495050356,-0.15637538205381585,0.10997159114701785,-0.0030775474531445557,1.425952364081572,33.525894,3.8558306459017095,59.59788669387243,-13.864808205102694,12.57633356936509,30.839673154018342,0.23692799999999994,29.870000000000015,1
0.8992169663428933,0.022676497204647653,-0.1679742509484356,-0.0193515399880803,-0.0027112193542178304,1.4291285003738086,33.52343,6.204956248945306,60.62742807992833,-13.904249647047418,12.574513352337474,108.90470439823746,0.24076600000000015,29.870000000000005,1
0.9001137844456352,0.020238291971151737,-0.17345040414451685,-0.07213977866095524,-0.0030101347550610157,1.4267349676458265,33.525753,5.783911188362772,58.51666805786019,-14.89295800999834,15.881967163859704,-17.459600681299776,0.23820700000000017,29.870000000000005,1
0.8969212399287517,0.034427345442603154,-0.17232568547018803,0.11128489232781531,-0.0021150216646991125,1.429751094265861,33.526424,3.257196382270864,59.61305625902144,-14.794131280761354,14.523328158691827,-4.30780489780891,0.23820700000000047,29.870000000000005,1
0.8984075641641999,0.03316484980958425,-0.16532531514125476,-0.0687092957970956,-0.002062211512524545,1.429463437194514,33.528885,0.24673874183808925,58.42053725957567,-15.105773440619211,16.4469435401019,-61.198538143924445,0.238207,29.85,1
0.9004520881950352,0.03589680448194398,-0.15941646068889387,-0.049007284532616484,-0.002412400485808337,1.4307434466770286,33.53069,-1.9192114223716366,59.39454902130129,-14.917370869457619,15.350326200136173,58.16777879464492,0.23948600000000025,29.85,1
0.8986596159296628,0.03508903483855104,-0.15905457652994365,0.10199338907506919,-0.0016348522609809222,1.4294675109386905,33.527317,-2.9426046463458033,58.62819459146654,-15.070494886765976,16.296265516211278,79.71062947196162,0.23564899999999964,29.85,1
0.8994574154928268,0.03459295721287946,-0.1559137866024574,-0.05717449619461914,-0.002663696387865789,1.431613758388846,33.527752,-3.1130144838181772,59.348793408772735,-14.937559422019415,15.48338487859048,-17.41587871903573,0.23564900000000003,29.85,1
0.9026681109060092,0.032865195763544,-0.147896378061897,-0.05249079150616914,-0.0029134221343282405,1.4289725829033626,33.52664,-2.7187993957327303,58.6723214003648,-15.05643094271324,16.320497307094534,-33.20673153374808,0.236928,29.85000000000003,1
0.9009664174198218,0.03324336829459729,-0.14857766547719667,0.10771502596047741,-0.0024680118939772633,1.4306588761105055,33.52822,-2.3429902639580886,59.30716535457829,-14.948410219059854,15.76464325848403,-40.564585388474654,0.2356490000000002,29.85000000000002,1
0.8995658607229042,0.0338081310188333,-0.15627772474147783,-0.034196447548113136,-0.002342253230498944,1.4301789797766475,33.527462,-1.914918853534495,58.71727693671158,-15.047403869990806,16.55228608695054,3.3278653743802944,0.23692799999999972,29.85000000000002,1
0.9010296327882044,0.03540452212687857,-0.1559990883176026,-0.07677372437710595,-0.002589965375450558,1.432503611402194,33.527218,-1.2509305725888253,59.20221420756061,-14.956612443624582,15.534787671424864,-0.1525369522766124,0.23436900000000008,29.85000000000002,1
0.899800820173371,0.03188222583185741,-0.15598838834858972,0.0831987809296239,-0.003079027461300226,1.4308220325860606,33.528065,-0.1556585298858395,58.6355915165961,-15.038556996057522,16.471647766535355,-7.879541496485717,0.23564900000000016,29.87000000000001,1
0.8991959726035663,0.0338546343137813,-0.16048754244678454,0.03711567770054024,-0.002445236595826568,1.4318005568203516,33.53299,1.4939701709839324,59.148141994352365,-14.972083871696647,15.829390126424014,4.3496685319415045,0.23564899999999972,29.87000000000001,1
0.8967278947371387,0.03337982944079597,-0.16313673180532984,-0.08353075892221755,-0.002442881773663024,1.4305490223051915,33.526375,3.4557799690891366,58.418622825932594,-15.166522016446908,17.109885173680063,10.604863388261395,0.23564900000000003,29.870000000000005,1
0.8980573906531892,0.03360791912181438,-0.16161225739146975,0.07332401268402307,-0.002272301129979898,1.4322250047162863,33.529327,5.048761604040459,59.227956941142935,-14.941330359639855,16.582838198914992,-12.038506562034106,0.23564900000000008,29.87000000000001,1
0.8992801233304336,0.029897630210195456,-0.16376678936624942,0.038838327678717637,-0.0025215421996938286,1.4348852465594832,33.53062,5.437755092431024,58.65419907151038,-15.054424888064926,16.79888554492747,5.314401123026333,0.234369,29.870000000000015,1
0.899625161484739,0.02923732144359015,-0.16382675894364612,-0.09864243369474589,-0.0022151755959051453,1.4330397444895089,33.530777,4.154807845308229,59.186975256154405,-14.942254449651593,16.145139980386077,5.833704363383496,0.23436900000000005,29.870000000000005,1
0.8984258655398439,0.03006431037393881,-0.16653386137921808,0.05404116030933405,-0.002227173838336755,1.4318846085581498,33.531685,1.960497237613053,58.55292789672953,-15.072294504509069,16.96884450517605,-5.081872005155981,0.2343690000000002,29.870000000000005,1
0.8979403168126175,0.03399480032485006,-0.1674808463662432,0.06628344788536623,-0.0024457734132941086,1.4352289758857784,33.531284,-0.289951324521555,58.995042965904574,-14.836491225612702,16.90216015321172,-3.57822186415656,0.2356490000000003,29.870000000000005,1
0.8979413417506454,0.032158647682949563,-0.16920651148085594,-0.11181419071735269,-0.0023405320640808264,1.433095916229222,33.529873,-2.181577405070783,58.600521744949326,-14.856772634415272,17.422308412928597,10.636836334373426,0.23436900000000005,29.869999999999997,1
0.8988919317744514,0.03205022288331905,-0.16501650612607058,0.03328692769150897,-0.002049364070413187,1.4341099893927478,33.53106,-3.526530968932206,58.91426685264205,-15.01031458768474,16.629919010799984,-8.399131120005116,0.23436900000000022,29.870000000000005,1
0.8994330821149737,0.03128327089854752,-0.16347848887652547,0.07681871356289892,-0.0019617441903502946,1.4333953161925503,33.532692,-4.073060226011115,58.74341328638286,-14.866461091732097,17.35031118821604,-1.6002779638674174,0.23181099999999982,29.870000000000005,1
0.8989019124691772,0.031870325975613616,-0.16236900972528798,-0.09415639996844759,-0.0020433492950020318,1.435871909326001,33.530445,-3.803220969697312,59.00753186917012,-15.020332414598116,16.661193749041097,7.184938945511264,0.23436899999999988,29.870000000000005,1
0.8993688835010533,0.03312001610389829,-0.1639307038019563,0.00036678265870278867,-0.0021595096156137635,1.4346273437844659,33.53259,-3.1564127494968286,58.617521102903304,-14.987187606664985,17.330900556652203,-3.5981693182636763,0.23181100000000013,29.870000000000022,1
0.8992273098073795,0.035464626005414494,-0.1644839671684008,0.08595927889275314,-0.0021769502125094627,1.435621720584513,33.533936,-2.5628949432284442,59.00475734796772,-15.011459696703403,16.67492434645397,-6.774818401403457,0.23436899999999983,29.87000000000001,1
0.8979334714753822,0.03540693655243067,-0.17030252723387407,-0.08477021937661532,-0.002215121516153589,1.435345861380816,33.533653,-1.8711917518112897,58.66628180411963,-14.98696245969512,17.32078639169624,10.483049348361865,0.2279729999999998,29.87000000000001,1
0.897849008695873,0.03461684199187769,-0.16938184652877303,-0.029300318352553627,-0.0026999736832678586,1.4349806575930655,33.534813,-0.9202823666754255,58.9667540151408,-15.017592711063298,16.681897171996376,-4.468595963209251,0.23181099999999982,29.87000000000001,1
0.8983118743765748,0.03208792037299266,-0.17142292507275103,0.08872226063910738,-0.0022425843648141834,1.4361744333000173,33.53399,0.47273593659252444,58.740415428016945,-14.972283375656032,17.31900352892487,-5.874510793502375,0.23309000000000005,29.87000000000001,1
0.8959023377023251,0.03173794100671528,-0.17557650575441344,-0.04255877953495016,-0.001984747222708033,1.4380951808551365,33.536068,2.2453032867781526,58.82737438984226,-15.05626094947193,16.63462934807605,7.259327348302479,0.2318110000000001,29.87000000000001,1
0.8961553839921217,0.030975117249868428,-0.17484393603909815,-0.02711737404504343,-0.0025105172861432613,1.436990702012132,33.53399,4.0574393477703445,58.79950831874626,-14.717074440253286,16.997278079761774,0.8423061006081569,0.2330900000000002,29.87000000000001,1
0.8960769748622768,0.02994466829356512,-0.18213688313836013,0.11071360950795284,-0.0019967025480720343,1.43859169371121,33.534348,5.007207385583808,59.46156040646039,-13.811812610594188,15.260763429838796,-8.951641113820374,0.23309000000000057,29.87000000000001,1
0.8955524037611885,0.018064927520324642,-0.19152326898875272,-0.050618614537442576,-0.0019606820335006515,1.4377904858313246,33.53671,4.058489557531115,59.776011872380096,-13.095155045111415,14.85449681781681,5.384211490447111,0.2318109999999999,29.85,1
0.896892896653188,0.004765645763519516,-0.19097701352826987,-0.04212940080903002,-0.0023896007585220017,1.4386445184897267,33.537632,1.6256762158815985,60.07706345824717,-12.363479328195323,12.726041331998037,0.0305869355025563,0.2330900000000003,29.84999999999999,1
0.8974046570919452,-0.005352102167696174,-0.1866150905344422,0.10019909296920174,-0.0019259813904643288,1.4374663214513599,33.53578,-1.1801895440857573,60.43530567612467,-11.634639900751502,12.362029976960471,-13.990592136094302,0.23181100000000013,29.84999999999999,1
0.89883443680413,-0.018843012669704617,-0.1825762925611632,-0.09181353073100336,-0.002389848203084912,1.438543479332887,33.539185,-3.054273719255361,61.17147287903623,-10.880178809118839,10.766099839094132,9.620233172407534,0.23053200000000026,29.84999999999999,1
0.9036461893081037,-0.03517867544561747,-0.16807030009393914,-0.013868562941742041,-0.002538990617329355,1.4353572348413568,33.539257,-3.9382005303984577,60.8710735054362,-10.781051207700324,10.329326095535203,9.516325971112943,0.231811,29.870000000000005,1
0.9032884422151723,-0.03484749231874049,-0.17705774749113318,0.1090111301423691,-0.0024934167098045034,1.4350567191712427,33.540546,-4.280954401902517,61.091455496610976,-11.149443530661983,9.578064979045134,-0.9926261768346205,0.23309000000000013,29.870000000000015,1
0.8992538537924054,-0.03083165123670345,-0.17983328461216655,-0.08008355410882378,-0.0027178821249917106,1.4355930706630993,33.538437,-4.081721191942359,61.04910002119932,-10.854679639237009,10.01496684327989,6.307448972055447,0.23181100000000004,29.870000000000015,1
0.901651765262725,-0.008820686601729827,-0.17879547902806633,-0.022089580229695104,-0.0020203719679712045,1.435820132546634,33.536148,-3.3242010234771615,61.19000260971873,-10.789059832305965,11.023457645236146,-4.188935654949675,0.2318109999999999,29.87000000000001,1
0.8998058336446322,0.0055755630135749445,-0.16078701859857084,0.08972020243323346,-0.00274779703914465,1.435643563786486,33.536816,-2.0509043846828443,59.80334845782833,-12.575417878271795,12.154636866224278,-6.731422687442834,0.23181100000000013,29.889999999999993,1
0.9083542296779038,0.0068620337438291285,-0.1487882857511239,-0.07444981061345307,-0.0026219762943003374,1.4376466119955835,33.53642,-0.47725897294373326,60.368506545349256,-13.170124521505638,11.410145662502424,1.1260559994846746,0.230532,29.889999999999983,1
0.9028607100400273,0.013838102125452964,-0.14975574854823637,-0.0387707792257899,-0.002365635484499203,1.4360845748779796,33.536083,1.2549057751454538,60.335624558172235,-12.959383345330531,11.857718262925477,0.6311524042989832,0.23181100000000013,29.889999999999983,1
0.9038908001644133,0.0018797581448154038,-0.1522290668328516,0.08362885027586824,-0.002080771135574631,1.438168526866026,33.54135,3.191076820774966,60.073326497772015,-13.064846061781404,11.843142584229847,-7.481878103359434,0.230532,29.889999999999983,1
0.8975735188088303,0.0006462746782847244,-0.1724699681051462,-0.041671409701613864,-0.002380068364419571,1.438112883721974,33.53309,4.791067895049627,59.91567057585585,-13.241592882073498,12.375869568596546,7.953835854182068,0.22925200000000026,29.869999999999997,1
0.8991746045328726,0.011091829806330304,-0.17316626585355932,-0.03368598746231215,-0.0023008071769875177,1.438852992367967,33.543816,5.939652141798571,60.05426696569899,-13.551279025384808,12.775506683968068,0.42559908732654406,0.23053200000000018,29.869999999999997,1
0.8977801616197829,0.020327505541201156,-0.17352182536732172,0.10203580579750712,-0.002231904486997211,1.4380563093891245,33.540405,5.559545454099646,59.45945408887235,-14.049395754008069,14.244025053594946,-3.070640458636948,0.22669400000000045,29.869999999999997,1
0.897001130683007,0.028395526223884835,-0.1722933435739412,-0.06290268735510728,-0.0024495548323576173,1.439527164058479,33.544605,3.7573142879459795,59.42689044198513,-14.471236576411062,14.267590200331437,4.120153699453275,0.23053200000000004,29.869999999999997,1
0.8975160366517543,0.03487555691487712,-0.17885015202261736,-0.051670775855547364,-0.002699935641031215,1.437150525017869,33.540718,1.663846187923278,59.02796017396468,-14.850661967069051,14.838951410896602,3.532018466554316,0.22925200000000026,29.87000000000001,1
0.8955842151073914,0.03674348160055211,-0.17800612867698584,0.10431044264150482,-0.0021421670701427665,1.4391564072583412,33.543316,-0.42917133934766344,59.42031231802742,-14.513820737472159,14.663430165189265,-8.077257434009033,0.2318110000000005,29.869999999999997,1
0.8953647201820842,0.03728603929395045,-0.1793845612238725,-0.041867001516257184,-0.002195721672439158,1.4395710867415215,33.54161,-2.0001296721052793,59.06237154875001,-14.333312778294049,14.665599745231468,3.505771166974811,0.23053200000000013,29.869999999999997,1
0.8961485504626197,0.035887445360560516,-0.1759681640671837,-0.06563738554056733,-0.002336535601929866,1.4380878318320136,33.545353,-2.883788107643196,59.340978032077935,-14.858946072178385,13.924969151866927,1.3363081411661946,0.2305320000000004,29.869999999999997,1
0.8984652064060618,0.03489558236965155,-0.17198216540147138,0.09311251158716,-0.002410842426076286,1.4380299219951034,33.54243,-3.1498071837722494,59.25778889148876,-14.763276585150237,14.308773675900367,-5.336534893058104,0.23181099999999957,29.84999999999999,1
0.8979224907560834,0.03241593169786255,-0.16505163391386715,0.006315339232039166,-0.0027764775663572964,1.44144767975615,33.546204,-2.90285018759122,59.25080390323397,-14.527354765781164,13.84890083606164,3.7155823803244186,0.2305319999999998,29.849999999999987,1
0.8994426264582267,0.031088026509994364,-0.1696047338013412,-0.08368963476173186,-0.002681190206296919,1.4395651567691146,33.542244,-2.3474902816379766,59.59411806453637,-14.58708799313246,14.304657151499603,3.447714510729418,0.22925199999999993,29.849999999999987,1
0.8986102267804437,0.03102240857858981,-0.16690492722874944,0.06897471154942955,-0.0022984996748073084,1.4403685303261697,33.544155,-1.756962323180875,59.60444262187843,-14.245286840414197,13.748668640156927,-7.739373074810755,0.22925199999999993,29.849999999999987,1
0.8983508943805507,0.029379357166968722,-0.16779630000726134,0.03974745226159257,-0.0018732167834311683,1.4406587228382843,33.54347,-1.1720899128876763,59.15436843135991,-14.500053743320832,14.261507491181062,4.16779192428887,0.2292520000000001,29.869999999999997,1
0.8985765699826673,0.028887820129694087,-0.16879500620737797,-0.09957257080832164,-0.00258842377825274,1.441915201241299,33.545643,-0.4360769790620828,59.12460228053662,-14.66639652148518,13.954636595639581,4.077820896466355,0.22925200000000015,29.869999999999987,1
0.898705313384948,0.028752522840431227,-0.172549143495058,0.02998253502648536,-0.0026578204861162484,1.4402337574398212,33.545723,0.44927495926534056,59.05124787841625,-14.961012196921398,14.496444810103469,-4.786042875192792,0.22669399999999998,29.869999999999983,1
0.8965496677529156,0.02829705404427571,-0.1703310329933214,0.08164444122609735,-0.002273185349863738,1.44294206597457,33.54684,1.828680575995362,59.16470840368161,-14.962633870594015,13.881795591196179,-0.25147359090082766,0.22925200000000015,29.869999999999987,1
0.8968126981987089,0.026644903063689277,-0.1737598738956008,-0.06784256998484663,-0.002102632733500156,1.4420223869508793,33.54723,3.4240514001844797,59.37052220969327,-14.618866581343111,14.26833369632997,5.708996363093108,0.227973,29.869999999999997,1
0.8977070528504808,0.02366827592123136,-0.17754715836450335,0.01389007494206451,-0.0026505771369587173,1.4423706400377796,33.54949,4.332745789127224,59.84068471032965,-13.986724558185475,13.807405093163219,-4.834910855600421,0.23181100000000013,29.869999999999997,1
0.8959696232445422,0.02521380549099994,-0.18168085321854285,0.08065641267067632,-0.0024977068925120653,1.4424126816364335,33.544838,3.6653696664175985,59.518402812249626,-14.30424908285477,14.336256361831149,-1.3665443285420453,0.23053200000000004,29.869999999999997,1
0.8973239613557215,0.02824790870375393,-0.17915799116306444,-0.10245242944335904,-0.0026206165482556987,1.4438884450352643,33.54516,1.814953714565929,59.40989394345493,-14.192298412295164,13.74582390071664,4.385034447558294,0.2292520000000001,29.869999999999997,1
0.8970593552365993,0.02875507755698236,-0.17769145271851583,-0.008817996938057059,-0.0024217694188769967,1.4412352148575998,33.549488,-0.17493506455113111,59.58516414918717,-13.985262429378292,14.227809863112014,-0.9122896361612508,0.22925200000000018,29.870000000000015,1
0.896509392858571,0.02623153559982564,-0.17621492276392442,0.08888719406331677,-0.002255862045393109,1.4424795219094495,33.550045,-1.7215633249086435,60.128047975702074,-14.115190467097014,13.81183521619659,-4.0278311063195735,0.22925200000000046,29.870000000000005,1
0.898173703958341,0.025692186662326654,-0.17555186564406972,-0.10094814410411565,-0.0020534014030037817,1.4410827585426276,33.549595,-2.4632213059896566,59.89767490220807,-14.024973091864464,13.944010487111509,4.490331404239804,0.2279730000000001,29.870000000000005,1
0.8983101715812839,0.025341282075943185,-0.17374019693454748,-0.01493727098140956,-0.0022031797752291808,1.4425198323203199,33.547325,-2.4319970000084963,60.091381922157815,-13.985705156711381,12.671374166626968,-2.6280504327872563,0.2292520000000004,29.870000000000005,1
0.8973312876526554,0.025745652013578948,-0.17415985389927377,0.09579934550699233,-0.0028328471831664988,1.440845452510844,33.550846,-2.253202337103783,59.91446110804157,-14.008634646194071,13.296468837944769,-3.5303906050511658,0.22797299999999948,29.84999999999999,1
0.8989341789639951,0.0255717816830449,-0.17148833615248946,-0.05759546138401648,-0.0017725385353024948,1.442326499709369,33.547333,-2.0268563959139034,60.082640318953516,-13.99701918360198,12.716863439821232,6.288009413026065,0.2305320000000005,29.84999999999999,1
0.8980819556649386,0.02576188968152923,-0.17354703965874696,-0.04729328878765965,-0.0019471937152180962,1.441522487566987,33.549225,-1.5507249335260955,59.917170702594944,-13.995918310825305,13.275613509003408,0.22372794814866562,0.22925199999999968,29.84999999999999,1
0.8982764128303019,0.026016894302259834,-0.17226846298984055,0.10527776005138449,-0.002227454509540406,1.442450526620497,33.55229,-0.9323434478568523,60.09009424745825,-14.013367429964253,12.730093686358037,-6.67934469077385,0.22925199999999998,29.84999999999999,1
0.8985931001171259,0.026448548351786907,-0.1783068385843266,-0.04586548210501651,-0.002283375871596472,1.44487332408405,33.54981,-0.25833202087871254,59.84288261395514,-13.994085560289726,13.262683610124878,3.1854200111318063,0.22797300000000026,29.85000000000002,1
0.8984694638675036,0.027304787341856117,-0.17254066035684587,-0.05764584645169245,-0.0029783120372238983,1.4422402162660164,33.5509,0.604008378069672,59.9925307817648,-14.463266846800124,12.886168450986103,-2.5209567687781167,0.22925199999999984,29.85000000000001,1
0.8979749163178756,0.030152026740909246,-0.17346099675315366,0.10285116297974146,-0.00221124404823745,1.4433157049946832,33.548416,1.622295770545369,59.68398339804666,-14.504153393994896,13.687681947268414,-3.1826222175441883,0.2292519999999998,29.85000000000001,1
0.8969982488262794,0.02640944756238369,-0.17650045521552912,-0.03589723678754656,-0.002286649980586787,1.44465285563282,33.5517,3.0899317070475436,59.7534376774729,-14.387048369255446,12.918651008232432,2.1839188523081803,0.227973,29.85000000000001,1
0.8995001641756073,0.02350519508414685,-0.1693330125020692,-0.05161372073471598,-0.0019930099577134507,1.4424618142477457,33.551563,4.730087380975581,59.89959645351218,-14.3307319921177,13.347517102154614,0.8285439266382919,0.22797299999999998,29.849999999999998,1
0.8971687641397251,0.018435915238276937,-0.17207060128854695,0.10770786354599031,-0.0017596608963603622,1.4446826349714752,33.55163,6.361751208424351,60.02465033074924,-13.914038152991909,12.973264093989014,-8.401534994096997,0.22157700000000036,29.849999999999998,1
0.8994772345682275,0.026296459297070827,-0.16841783044320877,-0.04137647298210663,-0.0018204730071392234,1.446122423591733,33.55105,7.6961462861822785,59.373169135798356,-14.899768132395968,14.265255838165006,5.491929098480379,0.22669400000000015,29.849999999999998,1
0.8972516795915856,0.02540375254176289,-0.16745051649005138,-0.03238836079038316,-0.0018795455413121243,1.4445957865723444,33.553703,8.405005556757102,59.77454743370494,-14.63924532233352,13.713264989687923,4.590920349286428,0.2279730000000004,29.849999999999998,1
0.8968040785360369,0.023612936373788494,-0.1757655194208268,0.10987181081014177,-0.0022157394430780603,1.4417818505026008,33.550617,8.44073729125603,59.956373397757176,-13.966055458294464,14.206173576621019,1.0218274211876266,0.2266940000000003,29.85000000000001,1
0.89848715597747,0.018186919844498075,-0.1734497346609612,-0.0810873367160404,-0.0020592788070247646,1.443950436954363,33.5533,6.669424306689854,60.06435303700965,-14.152839936388668,13.619012758792184,-0.10689922101404534,0.22925200000000065,29.849999999999998,1
0.8989695680460771,0.020556298798529587,-0.1705080672691004,0.001031198154558473,-0.002784691029927916,1.442986614731252,33.555183,3.657316075536851,59.77407391137749,-14.718286160512783,14.213638084083831,2.170192919552538,0.2279729999999998,29.849999999999998,1
0.9008582001924627,0.020334714444760458,-0.1703162893566616,0.09189401366202699,-0.002050083299241819,1.4453641426360766,33.552208,0.266572232566167,59.50498424546732,-14.645669826986303,13.697125064850862,-5.222873702387047,0.22797300000000006,29.849999999999998,1
0.8973518005881878,0.024123208313288628,-0.17593350157688556,-0.12322196448859875,-0.0023470797076700555,1.445125967356872,33.554462,-2.920368136264559,59.33150435284579,-14.516448412228238,14.316141912539468,3.614740000454867,0.2292520000000001,29.869999999999987,1
0.8981630533933171,0.020849485544950197,-0.1755583668959383,0.03625146045864092,-0.0021324948959250403,1.4423131282766657,33.554527,-5.678633943323492,59.74576927951687,-13.96787498416528,13.674640022426402,-2.771393310674105,0.22797300000000006,29.869999999999994,1
0.8984963885286326,0.020211959923326618,-0.17441631974565067,0.05339944701819037,-0.002150840946145491,1.4455853474199545,33.556267,-8.097852472557808,59.99124395364929,-14.02762000037397,14.33409162480579,-2.295791459561248,0.22797299999999987,29.869999999999994,1
0.8988978936223274,0.018072819450721752,-0.1713444438013891,-0.11444772749782507,-0.0026546160128874388,1.446115618251464,33.55378,-9.82530210846513,59.9729885070766,-13.988107284656673,13.658918614613803,3.0570608717677117,0.22797300000000031,29.869999999999994,1
0.898692739637506,0.02222983297430895,-0.17271190718896243,0.028218515770723315,-0.0017903303271498488,1.4426411018017946,33.5546,-10.36721909900413,60.034803617589766,-13.948267909868639,14.302174536196508,2.4117146026522507,0.22797300000000015,29.870000000000015,1
0.8988348494198668,0.011530425519836575,-0.16832187806605145,0.0800159754750649,-0.0024965117716219433,1.445707651658847,33.55638,-9.818223490525606,59.960195053688075,-13.47433294695859,13.42298526772507,-5.368360972184904,0.227973,29.870000000000005,1
0.9016082024689658,0.018159843778073868,-0.1618989730892077,-0.08646129215450067,-0.0024703345987193955,1.4446010706841155,33.55779,-8.462186810051854,59.89669685807795,-14.146278190374835,14.08149413987923,9.294124893810128,0.22413500000000003,29.870000000000005,1
0.9008384652399581,0.022056697454169508,-0.15842156163042734,-0.00504522534757222,-0.0023361153359273776,1.4454495146077375,33.55573,-6.638741070034038,59.799218134662205,-13.800344449877251,13.70796445563636,-6.2589819807512255,0.22797300000000015,29.870000000000005,1
0.90097605758066,0.023249720487014156,-0.15637110615909974,0.09287023123172014,-0.0028393017834937705,1.444595604103054,33.553978,-4.900025570114954,60.11264416025371,-13.855175240129668,14.319963716997135,0.9369330516638044,0.22669399999999992,29.849999999999977,1
0.900736595307885,0.023978111890762713,-0.1620992798728806,-0.05675256751544091,-0.0031862547667763806,1.4446752536453566,33.559505,-3.3934375674935997,59.610425760204045,-14.06780637566303,13.679558295111628,0.8030676235193727,0.227973,29.849999999999977,1
0.8998250667392386,0.027815630100599575,-0.1687826714677082,-0.05794860801374555,-0.0021212794097299347,1.4460813552186311,33.56163,-1.869601753143768,59.75958286331638,-13.833210320055533,14.481277303770606,-0.48355287878530434,0.227973,29.849999999999977,1
0.898223996704786,0.018234010620999035,-0.1695205619810896,0.08590120774382913,-0.002032681411056221,1.4473739762897377,33.560146,-0.22039560229093302,59.0325675703,-14.823775021279522,14.209393300687967,-9.11579328370863,0.22797300000000023,29.849999999999977,1
0.8979082043540406,0.02970375893812895,-0.1721233872087556,0.006216793546514383,-0.002904090168534162,1.4489927108550205,33.560623,1.9616348774106274,63.72310804442639,-15.197407049247728,4.44447954168802,14.534460051537245,0.227973,29.869999999999997,1
0.8939170431988067,0.039204757037735675,-0.1720289729045999,-0.06453143508679683,-0.0029896926138629314,1.4478247511169806,33.56189,4.401024825017252,63.41386823832668,-1.2032742279107536,-9.631262282550052,-9.922663011133473,0.22669400000000017,29.869999999999987,1
0.8998260183045017,0.02147093476839661,-0.17588600254954806,0.08967156079532897,-0.002701220730998548,1.4484487989834036,33.559574,5.749560968188915,59.74165215793413,-7.846621093415041,-0.34821286068642116,1.0261311393438055,0.22797299999999984,29.869999999999987,1
0.890124236499575,0.036938972582150224,-0.1891953643489831,0.011292217229283032,-0.002660579824295123,1.449267848569386,33.563107,5.116937442040223,63.09950975775245,-2.1176705878895725,1.0791108409473005,-17.850015114488183,0.22797300000000026,29.869999999999987,1
0.9000437690274933,0.02961047944691689,-0.1757621108320648,-0.10361464358180143,-0.0027574524238018856,1.4482213824987966,33.558514,2.9193799439607653,62.208122133754856,0.37413247701352487,-2.341173670610416,56.80380445503117,0.22669400000000015,29.88999999999999,1
0.899894844803671,0.03822463198054819,-0.15492834001682268,0.08724879278844304,-0.0025079613518337596,1.4488225192476911,33.558002,0.5991607494814802,65.31500871962145,-0.8613520154696684,-6.2699466032991555,11.941136389086276,0.2279729999999998,29.89,1
0.8984982949927868,0.03947814714949494,-0.15202228704080936,-0.02377969541717484,-0.0018067359050908032,1.4493790916239504,33.56141,-1.068479572005948,61.834109024098396,-5.140898069594459,-2.931976478487697,-21.54091445259279,0.22669400000000006,29.89,1
0.8969272864389978,0.0506482824670773,-0.15717702430250216,-0.07041914584910139,-0.0018571438012254973,1.44837570030512,33.56455,-1.7272983261370842,61.76542719848211,-5.5430058098932635,-4.181896412722437,-110.06545147331366,0.2279730000000001,29.89,1
0.9028920711900748,0.032950918277705035,-0.14303207771505883,0.1303233542892012,-0.0024761482963661153,1.448445912536848,33.56158,-1.5391234312429931,64.559961299517,-1.525405503546667,-4.0022686718439,106.21409521629158,0.22669399999999992,29.850000000000026,1
0.9015884006715809,0.050911221596750676,-0.1438836183858359,-0.07056532471195416,-0.0026844406380220867,1.4492284490426453,33.5658,-1.0758917334395288,62.46441038554498,-5.9675451337023295,-4.412603787373931,103.09658069867284,0.22797300000000015,29.850000000000016,1
0.897177963676479,0.049530806858613545,-0.16089695724587408,-0.04680708204954568,-0.0024678974164408164,1.4468853996438276,33.56262,-0.5429467521551659,61.9672903492138,-6.607531947144723,-0.5944833186677473,-109.37265610283606,0.22669399999999984,29.850000000000016,1
0.8943321508474666,0.04993389012720815,-0.16682702739088298,0.15330687535300205,-0.002349150500963239,1.4507201859974577,33.56625,0.23690532934547862,62.19276117082451,-3.875428421424663,-6.579563279872908,-74.5797171589329,0.22669400000000006,29.850000000000016,1
0.899357395056168,0.047579571339919004,-0.15795478189190865,-0.140305539798598,-0.002695724033333171,1.4494788248433663,33.56401,1.6575676210651682,61.81729710564668,-1.9594954206265764,-13.520428467602015,-26.47286106475572,0.22413500000000006,29.869999999999997,1
0.896097285174734,0.0705173061409575,-0.16027672174933527,-0.004733474789763493,-0.0025189729994504685,1.4501583131773708,33.56135,3.7750155635526466,62.673124248494624,-6.098429137555756,-7.203023226878366,103.22208987662401,0.22413500000000025,29.869999999999997,1
0.8946119941356371,0.04828128934618493,-0.1628374521452108,0.07942258231480075,-0.002247188627358817,1.449959633999842,33.56723,5.674215059001096,64.08625358446606,-6.395996514817483,5.357100575786643,-43.98892871195889,0.2215770000000002,29.869999999999997,1
0.894040467122594,0.05442413896095954,-0.17965283514953173,-0.0672125673504005,-0.002191381871082002,1.4512551369692621,33.56348,6.431063697476896,61.092375155513494,-7.616114114825633,10.35016139076199,33.37148085007488,0.22669400000000017,29.869999999999997,1
0.8952161261293596,0.045052546940426444,-0.17206532194020316,0.08287701092689842,-0.002438922861992247,1.4520682193177445,33.56561,5.02920779012486,62.74602561363587,-2.2739209768046544,0.8892762077434072,-8.869565965119891,0.22413499999999972,29.85000000000002,1
0.8983320147581386,0.04865229791347916,-0.1606904125709931,0.01381812931639704,-0.0026036603600896836,1.4514475010331553,33.564754,2.2523336223908044,62.54380060048296,-0.30003181995336714,-7.0515897833409085,-20.63354861400201,0.22541500000000017,29.85000000000001,1
0.9013906560151986,0.050197219035761464,-0.15331869894891673,-0.11743266913495526,-0.002257894201877857,1.4494680520613654,33.563755,-0.04496722255173688,62.96320151517127,-0.2842933313487,-2.10559215259428,39.399185305881005,0.22413499999999997,29.85000000000001,1
0.898781433019383,0.04169878222441725,-0.15128322078893344,0.13454599185247368,-0.0020911721057633604,1.4508440743260649,33.564907,-1.5137355096149854,61.90512007199028,-2.7852674618361286,5.254189395142498,40.265980264982225,0.22413499999999997,29.85,1
0.9014695982940173,0.03086814354690791,-0.14220363285768864,-0.08179900982561808,-0.002349776703423949,1.4509290456134194,33.563923,-2.2581383061861504,63.970446997490384,-2.4679244619909113,4.138796232493113,-71.60590650269405,0.22669400000000006,29.850000000000016,1
0.9012660513833085,0.04730677796299393,-0.14486941244425852,-0.04286996725482975,-0.0023855280727531837,1.4500697233677253,33.567196,-2.431965572227573,62.110551938139,-5.091927874214303,4.0281226245237844,17.602009703868518,0.22541500000000023,29.85000000000002,1
0.9010402688950288,0.034217711189791174,-0.14416063524046027,0.10215217712922924,-0.0023927628229893317,1.4500853604078623,33.564186,-2.442791042629962,62.77091204067418,-2.201744977925904,-4.715861980818733,-92.15465968997239,0.22925200000000018,29.85000000000002,1
0.902335932108843,0.03508111349219458,-0.14377634307712972,-0.06509020613396209,-0.002651495356786335,1.4510850347249176,33.566242,-2.2670804577771677,63.64052372962888,-4.496488318896923,-4.830472796795844,179.50889108821235,0.2266939999999999,29.85000000000002,1
0.8982791107691416,0.04059563429405818,-0.16226991146861475,-0.04525858595618049,-0.002234875685980603,1.4499527456801677,33.5686,-1.950110197790593,63.235922264632514,-3.8526245462239466,-4.583361472098038,-73.69445035294456,0.22669400000000045,29.85000000000001,1
0.8943522707506016,0.035529756816342795,-0.1785999303360573,0.11963606866337177,-0.0020451264893719913,1.4498350041548886,33.565434,-1.6118864083152094,67.93554927637055,-4.7812594942122075,5.21010222635171,-72.25594589639073,0.22669400000000028,29.849999999999998,1
0.8997864487765372,0.03186885741724439,-0.1648997002502255,-0.08816596897363195,-0.0019764617209852547,1.4495410497695655,33.563423,-0.946237557247882,56.53330967168264,6.221126763940611,10.811141522761858,-6.697324348394076,0.22669399999999948,29.849999999999998,1
0.8973140796439563,0.05646170601124899,-0.16290259337389384,-0.029418740413875228,-0.0023758897340643973,1.4511697433615591,33.565716,0.47077680720048404,64.43504949269334,-2.5364853814707717,15.541844442383734,41.74162762460165,0.22797299999999954,29.849999999999998,1
0.8939411653644405,0.046976424137009115,-0.16833978161157773,0.1142353939625277,-0.002160950367051617,1.4518017288884615,33.567883,2.2865923026359214,44.1744485734899,-4.300043431399527,46.05269481265512,-8.168475138791377,0.230532,29.869999999999994,1
0.8983379535781645,0.019106975920362517,-0.14936480791199688,-0.05114434464715923,-0.0020898487169113953,1.4521484630243284,33.57026,4.063451923322148,23.3277355475927,-8.089552273665317,56.723191865984894,31.108308905387,0.24332399999999998,29.869999999999994,1
0.9028293647841475,0.0351262706559285,-0.1644105653565099,-0.029200363192013832,-0.0023936190143689796,1.4508042436377502,33.56714,4.906657473817723,45.793858375365616,-10.015332798441184,46.445180703462526,16.186443872318595,0.23948600000000017,29.869999999999994,1
0.8999903953809737,0.04083379200456717,-0.15711962955741576,0.13476043990892553,-0.002124298662406455,1.4518991295697223,33.566097,3.8421834401687343,44.39564217021941,-7.451388696111496,42.30338862967275,50.97797203566356,0.23692800000000025,29.869999999999994,1
0.9009095252520927,0.03237615573574621,-0.1553444011964832,-0.09580230023779125,-0.002355844409360778,1.4513745156552897,33.56863,1.571347774174697,51.26318668628152,-8.834564044138206,40.62676296535813,-91.04740382756236,0.23436900000000027,29.87000000000001,1
0.8978124743620538,0.0335538631121275,-0.16094719177737757,-0.04723442883647477,-0.0020356738453625746,1.4495443552196254,33.567375,-0.5644931392502867,40.37240729821481,-9.423488050298575,43.962458154672845,-6.836118411960013,0.2407660000000002,29.869999999999997,1
0.9009956567303773,0.0318025897470778,-0.15819238780788078,0.10492107787499594,-0.0024839555096658563,1.449548332492643,33.566555,-1.8589667455978274,43.719117725684065,-10.312276223463028,45.76131692212226,14.615181970466638,0.23820699999999986,29.869999999999997,1
0.8999812759020603,0.03463369522180749,-0.14873280849271356,-0.08512306764914776,-0.002396842608281422,1.4540584091213744,33.5684,-2.1803516366094,42.71921531600714,-8.573189948331995,43.3157510589808,0.48261833002702303,0.2382070000000004,29.869999999999997,1
0.9016092369293988,0.03442272691699945,-0.15651849392246808,-0.0051818468658181,-0.002287742330986674,1.4505584915431746,33.570076,-2.0479989223456787,42.73437727528776,-10.533295900813284,47.20932352537926,106.84930102761683,0.23692800000000008,29.83000000000002,1
0.9000777175392602,0.03478204533999967,-0.1615992227862262,0.11072615121603911,-0.0023702793060901535,1.4537987875779876,33.57099,-1.7914042632152967,38.75134938659429,-9.561790269964531,44.452842244261284,51.61563562279338,0.23948599999999998,29.83000000000002,1
0.8953981687609698,0.03470175345847427,-0.17706948461044297,-0.1395800804676198,-0.0026224375162763607,1.4521854440521795,33.571575,-1.5518889892854355,55.17378598093813,-10.502244279212968,32.79295469513765,-231.56033463542147,0.23564900000000003,29.83000000000002,1
0.8952935505455664,0.0425800192505951,-0.17232770766648361,0.17065153171062697,-0.0022347343180487244,1.454333702672952,33.57061,-0.9703706644587591,58.961002217074515,-11.447294466208868,18.140145355488094,100.5174117931244,0.23309,29.83000000000002,1
0.8977009680968028,0.05400606390921245,-0.18022538724560166,-0.01018844730974706,-0.002494843110090376,1.4551387791399086,33.567562,-0.17008539093319036,66.25299195006481,-6.439155557243167,7.62528131569076,53.987979796712146,0.2305320000000003,29.830000000000023,1
0.8914453858210987,0.038496667959426085,-0.17533418300836826,-0.1854521244286662,-0.002781107040854576,1.4564963826894568,33.57099,1.03165300064853,53.58239725730678,11.244658585404428,26.333827040588673,-75.24019547127651,0.22925199999999954,29.830000000000013,1
0.9033787624489428,0.005195299479244924,-0.17715610933069362,0.040719918988874566,-0.0030797800812832504,1.4512763945417237,33.56939,2.67326768679499,27.661064070393284,-14.905163370186939,51.943039896585155,-114.08764219315401,0.27786399999999967,29.830000000000013,1
0.8919720176635043,0.019348460846990063,-0.19295421584638078,0.0605476771370382,-0.0022806250969297764,1.4543759879442,33.569668,4.601068261365854,28.296621259195245,-11.530443718772622,58.60181858969039,13.74671282770508,0.25355800000000017,29.830000000000013,1
0.8901231432808393,0.03410799083779389,-0.200089539516267,-0.07399483356936526,-0.0025644151736632865,1.4545735300992972,33.57176,6.588277700653096,21.452063194167707,-13.16891122679769,55.465867474170786,99.59620815099639,0.25100000000000006,29.829999999999995,1
0.8882347992881313,0.027598736550039242,-0.21628749254980192,0.12611717003442016,-0.0031794980466219357,1.4551816588970177,33.56455,7.409994334651061,20.402730245257036,-18.10477826511114,58.7561779623963,65.28771882160606,0.2535580000000003,29.829999999999995,1
0.8890238279599977,0.009491510823245801,-0.22524493561300177,-0.054252130283097506,-0.002755279027162431,1.4552317819317153,33.57169,5.375680390549682,21.475313127004807,-19.672058806851197,53.755466248661385,-4.62435078691169,0.25483699999999987,29.829999999999995,1
0.8995175945767069,-0.002082513349375219,-0.21050735247472419,0.08576410038382436,-0.002457688792838645,1.4540413072416802,33.57246,1.4260888012190085,20.05632661864062,-24.64951065178101,59.33589519938168,-122.9394444635629,0.2548370000000002,29.829999999999995,1
0.8999107333627675,0.03116865576355915,-0.18393082461145213,0.08577331992026434,-0.0030487762572511228,1.4552410379874965,33.56744,-2.0415361613731515,47.724243165334045,-8.112107797422503,37.404663814117654,-47.97162036988987,0.25867500000000004,29.83000000000002,1
0.8938841772179236,0.033740224206463054,-0.17401168012102067,-0.3025815783061597,-0.0023360433140687245,1.454026572749927,33.56887,-2.7300123760816697,58.81239141495582,-22.22377018575015,15.184524413742752,82.0052726624797,0.25227900000000014,29.830000000000005,1
0.9072660875316377,0.026527354190390113,-0.1713967025684702,0.10981807431537655,-0.0024766200841209334,1.4546403217787298,33.567314,0.37054825852565587,46.11369486639996,-29.976851998115585,31.446923335284357,15.379445951079997,0.25355800000000006,29.830000000000005,1
0.9020418998404036,0.04120531896888753,-0.14799918713080937,0.019660146262542547,-0.0016937465677210877,1.4549490440102109,33.565113,4.826454139596185,50.17379522667105,-24.485161365311523,29.43457423018024,155.14452716231958,0.2497200000000002,29.830000000000005,1
0.8908364221880268,-0.0003004872534365986,-0.14744101120292064,0.010007689817231324,-0.002956409452349529,1.4545110312206966,33.568302,10.558706208714185,49.4088806011253,-24.815010476314477,28.471071342848166,40.10097809532135,0.24716200000000044,29.850000000000026,1
0.892167260599203,-0.021250842558554965,-0.17970676270531502,0.06421561975146879,-0.002943917957997386,1.456004859412041,33.56789,17.415284527504387,53.43758729185002,-22.576012747543295,25.67790903065822,-31.884939210630645,0.2458830000000001,29.85000000000001,1
0.9090149457028479,-0.07374680656405348,-0.19534863121947332,-0.05569881749452029,-0.002310529021677197,1.4562214909721538,33.56828,19.672931707702062,52.99888513965112,-23.54375958953778,23.886247633153285,-72.46739799150743,0.2446030000000003,29.85000000000001,1
0.9050173872405329,-0.06741983385182682,-0.1820427742492284,0.036688469668111845,-0.0024765960124115975,1.4525510664339094,33.56696,15.294667479830686,51.967994606197564,-27.077933355571574,23.94950946574917,-270.77466329429285,0.24588300000000002,29.85000000000001,1
0.8866824744518941,0.00477777760032751,-0.18991275209911757,-0.0019792019734563198,-0.0027862450788530705,1.454821576971539,33.5707,7.732612947836399,42.452030314544636,-34.199244067437185,29.608704664759443,56.91328266779433,0.24460300000000015,29.830000000000005,1
0.8905106022388074,0.07380150272497353,-0.18175221974334424,-0.07723004500637956,-0.0027543376029886533,1.4537459062614095,33.569706,-0.03367760711517653,37.14700317168284,-37.39791762492624,32.852776916998714,2.6911083845244796,0.2446030000000003,29.829999999999995,1
0.896124113274582,0.11210177294322961,-0.1609605233612686,0.10340008516498687,-0.0022531840721230945,1.4542890525322003,33.569363,-6.513973780668429,31.238280580977328,-39.35450441104957,35.700121064140916,15.261317016386393,0.2407659999999999,29.830000000000002,1
0.8796462130226715,0.11338154876038405,-0.16510340869445433,-0.15074350024905583,-0.0025637883594523897,1.4538093340284928,33.567226,-11.405453637987197,34.253303070988295,-38.04051512433431,35.96328318959896,-17.45320935305189,0.240766,29.829999999999995,1
0.8966873937780355,0.07803225653666902,-0.1521978030239035,0.11279501897476643,-0.0024210914922305118,1.4522686650955097,33.56358,-14.74157551008214,30.420941111302056,-38.837754820091796,37.54905078684068,98.71470462210111,0.2394859999999999,29.829999999999995,1
0.9010106519313649,0.11066816127985253,-0.1320286229713215,-0.07099056906290657,-0.0018737965515140626,1.454967491502419,33.566536,-16.74066326561134,32.543502462174374,-38.057867637832665,36.775487934106856,25.783200800131684,0.2394859999999999,29.829999999999995,1
0.9078408070637746,0.1028290335416294,-0.13230549828153687,-0.05188241567210976,-0.002019400578576481,1.4506734436801951,33.56776,-17.50246485681535,34.0440470230093,-35.83131763352692,35.70453372493621,-22.34352743533144,0.24076599999999992,29.829999999999995,1
0.869495314627643,0.04204385387058611,-0.1740634186040035,0.10153189044056221,-0.0034791097099949432,1.4529814866275594,33.57015,-17.03307043039856,47.08872706830899,-29.94358167542235,28.546749159245923,-18.431663467956778,0.24076600000000012,29.829999999999995,1
0.8954677397531855,-0.01781712204598493,-0.21547954527527635,-0.09118460343004672,-0.0027721710617585747,1.4519077083008092,33.57411,-15.671170304957982,52.675325422975995,-22.852351963954977,24.947378548045258,-1.1442785190166458,0.2407660000000002,29.829999999999995,1
0.9131038135105058,-0.07180237090705505,-0.18865901501737348,0.044128573677160034,-0.0024969161217306703,1.4546571232179837,33.567726,-14.245126437283902,55.23993093375776,-22.364815670406824,22.094952222445254,24.128062100150167,0.2407660000000002,29.82999999999999,1
0.8971538013138668,-0.06938206948531965,-0.18905290490939214,0.08470438510622474,-0.0023022432333891013,1.4523883041535117,33.56796,-12.643083442962828,53.28008095441753,-21.287168865662025,22.460225647487395,-11.000902106600766,0.24204499999999998,29.82999999999999,1
0.8987850320069402,-0.038649948868578976,-0.2076693451100849,-0.06847624940938812,-0.0024449347755662893,1.4537315967630657,33.570835,-10.540504605371313,56.222433728443065,-21.99301119702009,22.149056727887665,21.401528318798338,0.24076600000000045,29.82999999999999,1
0.8855710138623346,-0.01797332970326566,-0.17509832130021535,0.04575699418443918,-0.002882734073411454,1.452533181649893,33.571823,-8.59365317878864,51.95868429880423,-20.516150591443868,23.62956794264885,10.55834359381092,0.2394860000000001,29.830000000000002,1
0.9138589104918808,-0.010007116732291089,-0.15859018734221658,0.05891232981898782,-0.003159552928804298,1.4551800531181573,33.571033,-7.3083556042658975,58.208760455634796,-26.483332856265996,20.1174741340801,15.025331835670691,0.2382070000000001,29.830000000000002,1
0.9025598832734699,0.01378526876284803,-0.15261228386921782,-0.09185421650575581,-0.0025325648424147067,1.454187277853166,33.57537,-5.385405638419189,78.65366578329558,-14.744905991140074,-8.343067969676296,20.865312117261055,0.24076599999999992,29.830000000000002,1
0.9056783856252675,-0.00461170988270385,-0.1796294187737063,0.04044986231411851,-0.0018102119756858565,1.4562133977659313,33.573006,-3.2988123683511446,41.647928162517076,27.13291238237872,-8.244794854986292,33.57340435035137,0.2535579999999999,29.830000000000002,1
0.8896515647851757,-0.0028168530384036893,-0.20149115169263662,0.0604508157214161,-0.002710939726721189,1.4558956395342002,33.56959,-1.9558662708245573,32.59792233079368,42.09733279705955,-22.82669103582131,18.87929810709373,0.2433240000000001,29.85000000000001,1
0.8952290570692557,-0.0010371451149055186,-0.20495457392724103,-0.11465817934916317,-0.0023722847200227416,1.4570903635137498,33.577282,-0.3685429347466267,31.266757064938446,48.43683186983584,-31.344717551890614,234.23798397408083,0.24332399999999993,29.849999999999998,1
0.895807000320537,0.002265607330361471,-0.19182600983035403,0.09650656527238724,-0.002781408080211065,1.454752293979028,33.574745,1.6488312819955493,30.32510341965836,46.0093566877458,-29.53879426115202,38.946766248638504,0.2509999999999999,29.849999999999998,1
0.8990312539807958,0.005282051709231902,-0.1950850549228693,0.038245837801289206,-0.0025287614938255616,1.4564258828236485,33.572975,3.3229853862573977,29.213865552616717,46.236215278810896,-29.815236062685894,-306.69099043755944,0.2509999999999999,29.849999999999998,1
0.8938220745722157,-0.0015368921100551416,-0.1970041826693384,-0.08420138613430116,-0.003180079401979949,1.4552965379288805,33.57339,4.375739673346292,32.763082848284455,44.31412194909693,-25.673167166639573,-1.0609197581315637,0.24716200000000002,29.829999999999995,1
0.8976192825693087,-0.009691769086223595,-0.1989558614464839,0.1067282627146088,-0.0026457916227634304,1.4573054490948487,33.574898,4.715571690183159,45.9163545703927,39.3265370614387,-23.67777762115545,-20.334475007913724,0.25483699999999987,29.829999999999995,1
0.8964044095413768,-0.008347314900738806,-0.19424867638647897,-0.031054067543950476,-0.002534120353439765,1.456375530191697,33.571354,4.677964852024024,41.178694421690395,21.120498876063337,10.999455657207031,-17.135553871949867,0.23948600000000042,29.829999999999995,1
0.8951741870730455,0.001954352807669331,-0.20918008624435125,-0.07435935445473675,-0.003092090723419638,1.4570680132324887,33.574818,4.50492672235358,34.41120883469786,-12.150202849142532,66.66052238375967,-4.188567755299936,0.23820700000000028,29.829999999999995,1
0.8933576659303383,-0.01055787492477758,-0.20036121941864882,0.1112318603294032,-0.0019879447067375987,1.4576108391414244,33.57603,3.7532735640993504,23.36506292927068,-19.38505981770133,54.62578431809021,15.648808592646647,0.2509999999999997,29.84999999999999,1
0.8970374159117904,0.004586300377565842,-0.19736217062172795,-0.09338466746273676,-0.001920051494477673,1.4591773055595594,33.576717,2.7589352673487824,20.266176853702127,-23.39183758987788,57.10493549097268,15.028485993981441,0.2573960000000003,29.84999999999998,1
0.8969787096964865,-0.0037616440576093246,-0.18536722629581026,0.009115919015285646,-0.0025125201326775216,1.457680848690983,33.578762,2.4799535673456097,20.80055133666349,-21.991840198504097,52.76953716449797,74.66893087569188,0.26251299999999994,29.84999999999998,1
0.9002089133729115,-0.005872815977598963,-0.18713794501786096,0.07700601231970688,-0.0025014060603452937,1.4577907607199436,33.58003,2.8672981897600707,24.866627225985518,-22.268353457806672,54.45128886306872,71.29395904379204,0.26251299999999983,29.84999999999998,1
0.8943720284450065,0.006849244072243901,-0.1899788210733277,-0.1246372514863207,-0.0020810260276388974,1.458053448795225,33.57924,3.367546309345658,26.93832812450368,-22.371531835628325,51.10409307859182,14.004292911565054,0.2637919999999998,29.85,1
0.9007456260210173,0.015397364526325308,-0.1832119770756691,0.05096900830010346,-0.002198903930309154,1.458313515407531,33.578136,3.4107924977386053,26.695841628881293,-22.607509724168494,51.985398040692694,-37.9937065611927,0.2625130000000004,29.85,1
0.8964823841192331,0.0162598219753684,-0.1839437750500707,0.03351021528443925,-0.0013739855835412948,1.4571545622776807,33.579407,3.179403893187854,27.973094904378748,-22.62710506719718,50.469675077165654,-174.9218845807647,0.26251299999999994,29.85,1
0.8943905765072784,0.016579287537610045,-0.1955337173704392,-0.12196499459410105,-0.0023276350172050813,1.457685921521895,33.580547,3.0451603899358752,28.510911257920572,-22.23946311627056,51.19249024759211,-125.5008942610312,0.261234,29.85,1
0.8941094935252629,0.015894953464006073,-0.2010376122340778,0.09543084782168502,-0.0020280452816173996,1.457280858428749,33.584694,2.9426643173778633,28.98355361646959,-22.288929335821017,49.68979107881693,7.684132377957876,0.2637920000000004,29.830000000000005,1
0.8945342927354091,0.018997105961712057,-0.20154787777609662,-0.014294896329187508,-0.0027537309741940547,1.4594901928633461,33.579853,2.7784018165162077,29.028072197920345,-22.313158565178362,51.09580432091923,20.262260505196874,0.262513,29.830000000000002,1
0.8918608421823465,0.022302042455527648,-0.20022450842762107,-0.08913253089548807,-0.003118873002703248,1.4597805673249582,33.578476,2.748455049676332,28.80671188549216,-22.59531385254471,49.91524360919306,8.919725037436601,0.26123399999999997,29.830000000000002,1
0.8945700916882658,0.02886603355203572,-0.1977622168451301,0.09636396364027594,-0.0022982584696755806,1.458537798447971,33.58353,2.7072056237210647,28.361718438193645,-23.003859459060752,50.711681425650774,7.665940227278616,0.26123399999999963,29.830000000000002,1
0.891610955776756,0.034165490877869,-0.19780925969632238,-0.033794864419127255,-0.002737419626112957,1.4588985143188866,33.581013,2.5517861890993054,28.502664909017135,-23.12805676642606,49.795211013943096,33.04498492921524,0.26251300000000016,29.849999999999998,1
0.8942009012169347,0.029713748608973783,-0.19902618474357958,-0.057056279150995155,-0.0023801599699213903,1.4607489242646223,33.58001,2.418739503152548,28.839275932132846,-22.940375688711935,50.96910375969128,8.102899016701464,0.2612340000000003,29.849999999999998,1
0.893397738598507,0.023765836183674907,-0.1983771061037018,0.11221355305357378,-0.0024995248950930877,1.4589773678228457,33.58412,2.0970515685094964,28.98840311622756,-22.753945833509853,49.601841187366794,-7.877924228269463,0.26251299999999994,29.849999999999998,1
0.8933027150488595,0.025149568963665103,-0.19197811667769615,-0.015577242239278222,-0.0016714680259552262,1.4608636924221516,33.580276,1.8097351669591948,28.988002264368003,-22.141317714157047,50.63983208170908,27.791099067522406,0.2612340000000001,29.849999999999998,1
0.8970739817884283,0.021203608536207112,-0.18737081415337392,-0.08269071583307529,-0.0022476644253095917,1.4602688763156761,33.5826,1.5958841200841039,29.36825910860196,-21.992776847903603,50.03652280889072,18.4910922518443,0.2599540000000001,29.83000000000002,1
0.8980350075710101,0.015825745199188602,-0.1871343710111489,0.09158851150350565,-0.0018475967476737653,1.458978423701259,33.583153,1.4204000295466517,29.982174899093014,-21.93317543155579,50.575218027685715,-4.8026154051248096,0.26251300000000033,29.830000000000005,1
0.8948300449988978,0.0102683656015595,-0.18726733873223228,0.012236003149501923,-0.0030564560849695595,1.4605937941000036,33.583294,1.225982917162315,29.93464837849671,-21.817119987490326,49.66684050339414,20.14724495689925,0.2599540000000001,29.830000000000005,1
0.897808807463316,0.011970320262056125,-0.18683397915033156,-0.08457774437174094,-0.0016562621308462957,1.4611799563677554,33.581474,0.9515248913466237,30.2215923941032,-21.971769932389268,50.3140482784228,6.471635530779409,0.2612339999999999,29.830000000000005,1
0.8972160517240039,0.012840057944937155,-0.18421117874241394,0.0889600876741394,-0.0030591113346196126,1.4615896344374706,33.580353,0.7442147813162668,30.0990099942285,-22.074441293708972,49.42331978193559,-13.526810458169871,0.26251300000000016,29.85000000000001,1
0.8981146195888188,0.01212487907394822,-0.18425763013967209,0.01866696061014136,-0.0020618724871005454,1.4617742548050041,33.585293,0.6457477979455541,30.71745910748092,-22.072528244593403,50.3554549157778,4.789796382715208,0.2612340000000003,29.85000000000001,1
0.8965340446353345,0.009533260091052894,-0.1872637232374518,-0.10039361500697981,-0.0024012302252921468,1.4617251140670084,33.58446,0.713601104017467,30.439852613745046,-22.008364892756465,49.36425928025868,4.130265863690097,0.25995400000000035,29.85000000000001,1
0.8974006239404605,0.013958540359787434,-0.18873026300248313,0.08415175919020176,-0.002063223137640766,1.4617922562347412,33.58858,0.698670580460322,30.45451465389813,-21.96952010871592,49.90930383470679,-16.292794769834853,0.25995400000000035,29.85000000000001,1
0.8951680242613096,0.013104867542509026,-0.18846648894203344,0.02848012714261165,-0.00203096788365826,1.462119610571275,33.583187,0.48887360872292535,30.23824579110686,-22.052467311114444,49.5426344570334,11.604792714985107,0.259954,29.85000000000001,1
0.8977157916356026,0.014351336635507948,-0.1886282262953119,-0.10180611005436897,-0.0019098704233586406,1.463572369263765,33.581753,0.32355809811059477,30.655351559877204,-22.08143898086199,50.14719010538073,17.41657534708865,0.2612339999999998,29.84999999999999,1
0.8955648427889228,0.012154839493129533,-0.19316429610770816,0.07319710925886648,-0.0030691620237959954,1.4623985046492745,33.58473,0.2461779794848744,30.39746085779403,-22.271197831891353,49.50393419594498,-7.036704283869623,0.2612339999999998,29.849999999999998,1
0.8957966906969745,0.008670120655650109,-0.1972395988840853,0.002049913825212342,-0.0036031080125747093,1.4657625807180712,33.58295,0.24016655571760026,30.69624602329056,-22.45229018678629,50.05647543128025,7.775304968823528,0.25995400000000013,29.849999999999998,1
0.8957595741575963,0.009473874863404046,-0.18916967105414317,-0.09233246526262907,-0.0023377302206727727,1.463013546640615,33.58396,0.7793858108935824,30.264973857666458,-22.826956684109266,49.32268886287121,14.67240860764856,0.261234,29.849999999999998,1
0.8976749000377314,0.009272428744558841,-0.18864059805028055,0.087299216076773,-0.002540079473845736,1.462947291312664,33.585457,1.994582601216602,30.61551870805692,-23.035061739564643,49.564791846944516,-21.84585352603423,0.2625130000000001,29.849999999999998,1
0.8948246405335859,0.007203130846799425,-0.18939961819734122,0.0031898992980049765,-0.003372818922559007,1.463749700957362,33.585907,3.534134439781351,29.9541309500469,-22.89409888251812,49.28198760011494,1.3566805533982091,0.2561170000000001,29.849999999999998,1
0.8954189159194901,0.009369128872955015,-0.19508363454573405,-0.06347915356013885,-0.0030264770741031516,1.4638416212194654,33.58514,4.675269725254861,30.640531591404862,-22.24346504777334,49.88537022709767,6.4528651282553735,0.2586750000000003,29.849999999999998,1
0.8950771662396297,0.008480809986018557,-0.2010176761360706,0.11314427294348349,-0.002705287662798989,1.4626479926102383,33.584774,4.217572698118126,30.222143479133823,-22.072456320451163,49.63598164742681,-9.530615390490816,0.2612339999999999,29.85000000000002,1
0.8954195000356264,0.0066839220528605294,-0.2021721878972515,-0.05071008646081445,-0.0013552994494896043,1.4650709057701805,33.58587,1.991677112570215,31.049338811265244,-21.778747773614956,50.2457840032567,8.001897221795236,0.25867500000000027,29.85000000000001,1
0.8950629578231776,0.004321672764206873,-0.2049606842076398,-0.04889836973138247,-0.0028676479692372604,1.4628559551779874,33.58501,-0.7471436689978734,29.882689286012198,-21.663601576414536,49.689194002143466,8.514664774199696,0.26123400000000013,29.85000000000001,1
0.8939837638415208,0.004521947323806802,-0.20628863476644307,0.12130794414807217,-0.0018343347923966042,1.4655069592813856,33.586357,-2.84276643844785,31.710341375211062,-20.92255384264979,50.3767126136069,-6.000391964558715,0.25995400000000035,29.85000000000001,1
0.8930563760050045,0.002866852190598394,-0.20731173399626004,-0.0845741573825576,-0.0022634239824192324,1.4655526106992447,33.584576,-3.8574300577033327,29.331546974993806,-21.593097681744272,49.532156635586745,5.993540298740016,0.2599540000000003,29.85,1
0.8947055227593976,0.007784306898676156,-0.20466998337553374,-0.03059071611066471,-0.0023678014641997564,1.4658734778306943,33.586174,-4.164360274705927,32.76942617080346,-21.26301549060381,50.600587467097384,8.148274058127289,0.2612340000000003,29.85,1
0.8950556411194375,0.005246097226195475,-0.198832018147477,0.10768574370322846,-0.0023066125188849537,1.4644860774602784,33.583157,-4.05355270178854,27.206409122919023,-23.25926572613473,49.33862850926811,-16.147857215157504,0.2612339999999998,29.85,1
0.8959202018817775,0.008973913374050265,-0.1959818257673479,-0.1029056258158347,-0.0034851109663828718,1.46611936935529,33.586586,-3.5616917544432427,47.53043499731432,-18.966387015362177,59.05052601290882,10.203918032476404,0.26123400000000024,29.85,1
0.8944662354652111,0.007658905726420986,-0.19003334278331854,0.0002684121554695294,-0.003355304189211654,1.464588065279648,33.587997,-2.8257502461164594,55.57054466188089,15.752097599082912,23.097227161577596,-12.643991484339443,0.25995400000000013,29.870000000000033,1
0.9017557323039577,-0.010459426228500593,-0.1869096615965649,0.08671570278729418,-0.003054589624161886,1.4656237913537484,33.584705,-2.4003704652359046,41.442851411989245,29.910875926093766,6.974665310219008,3.95124508699571,0.2561170000000001,29.870000000000022,1
0.8940149709060438,0.003121955911828791,-0.20028203517553517,-0.1341486618256896,-0.0009029305642437625,1.463950995586687,33.58687,-1.5252863033533695,49.30750733884985,39.824795893089544,15.075986171295625,13.398336027560562,0.24460299999999985,29.870000000000022,1
0.8983258719781033,-0.009247695851484137,-0.18989874107683696,0.03744319264296624,-0.003258860085775212,1.464336058025087,33.58933,0.042143189051822245,40.39901668399687,45.15320697757946,10.935693957684354,112.013926509214,0.24844099999999997,29.870000000000022,1
0.8968193942975321,-0.0028558913740658995,-0.19186204371779053,0.04443438139317964,-0.002543879490057905,1.4652155710053232,33.586887,0.8878655602733018,47.072888389138576,43.430256116351345,17.309565248576828,0.3389641461430959,0.24460300000000024,29.849999999999987,1
0.8973536439674142,-0.0093808921093037,-0.19457560648534772,-0.12187870504889696,-0.0017856415222644493,1.4666824613319005,33.585693,0.5032166764939969,39.551326415181784,33.9210195766836,16.101400617117378,-239.87136979056433,0.243324,29.849999999999987,1
0.8973768657451707,-0.008713383940462525,-0.19663105811997234,0.13481335073840994,-0.0013398880074472921,1.4660746964192826,33.587593,-0.3993969420061091,47.27225279215774,17.16978798475243,27.359711967765318,48.498565387422,0.2433240000000001,29.849999999999987,1
0.8949157796259173,0.017973363316332522,-0.1949465726660811,-0.07111240269948071,-0.0020421654540615235,1.4681864718877862,33.58674,-1.4916874396176838,48.028881543935135,0.8616602223400582,56.885821512172186,14.752816964018395,0.24588299999999993,29.849999999999987,1
0.9000527966161617,0.005091984467760777,-0.1849036701090402,-0.00857958491451802,-0.003031126580747812,1.464778600887429,33.58696,-2.5996306447180264,25.93193915077301,-16.76512001197299,57.554860249521184,43.49022157763137,0.25611699999999993,29.870000000000015,1
0.8946990967186078,0.00344617921829477,-0.19236360229403288,0.11093617241776264,-0.0025031420143198373,1.4675937030415367,33.589607,-2.45422176723814,21.978570123014208,-19.977734668113506,56.08599966724029,-10.322780113894911,0.26507100000000006,29.870000000000005,1
0.8971476209210428,0.012693823215525786,-0.19467507652633315,-0.09567013667585976,-0.0021061229592751218,1.4655215172497476,33.582916,-0.7165400665485304,18.79570538536372,-20.92192556981592,54.315631327473305,90.2145312808623,0.2689090000000001,29.870000000000005,1
0.8961994336667731,0.02006897440404177,-0.18407241104483574,0.06300880330022231,-0.002710550902158935,1.467470540333255,33.58515,1.8365656821845242,19.65675709987862,-20.45084524098468,55.63329464736506,75.06930163521213,0.27274700000000063,29.870000000000005,1
0.8959997261670399,0.018594061324265006,-0.1825310645814931,0.05052577219990735,-0.0019379019658437068,1.467180308635663,33.5859,4.2322932204427826,23.972473811316412,-22.138718443283278,53.10843179242409,175.14294296810527,0.2740260000000001,29.869999999999997,1
0.8965996903344406,0.01947307168679068,-0.18963243927804735,-0.08150152937383984,-0.002992117118358293,1.468326196313062,33.585674,5.662541287924221,29.34297937434099,-20.66538540511389,51.58483615248782,-6.834177313241585,0.2753050000000004,29.870000000000005,1
0.8950185738575692,0.013272076430382746,-0.1973136941899142,0.08935123645946325,-0.002301520965913604,1.4681727220575147,33.584557,4.92357901954552,28.055202410985906,-20.62281066083672,51.58950445902097,-124.02711133014209,0.27146800000000026,29.870000000000005,1
0.8930124053147589,0.01290078298856643,-0.20404193766394793,0.0016967265262356238,-0.0021602936813987137,1.469889537508344,33.588135,2.2179040899022895,29.44010674482335,-20.631351299536462,51.57604241370149,-132.91640227866344,0.2714680000000001,29.870000000000005,1
0.8939251050326144,0.014626449820210406,-0.20237009626240943,-0.10075785148592069,-0.002404213382723889,1.4679757749932816,33.58558,-0.6135940682728613,28.740881250068167,-20.622405907735995,51.30526169439501,-180.9436835505965,0.27146799999999993,29.870000000000015,1
0.894085126941043,0.019893166949658602,-0.2012275269798656,0.07481538010560602,-0.0021332239012374857,1.468358358974078,33.586784,-2.452909672122856,29.155040482190916,-20.247222710453325,50.64499388677472,-249.35841840134609,0.2689089999999999,29.870000000000005,1
0.8930142303986385,0.022392548848924002,-0.19691077972801757,0.0024970440167031587,-0.0026737712154061718,1.467887256968223,33.5874,-3.1410486027479334,30.43885343445647,-21.172706587312444,50.167213962397504,63.987625144114524,0.27018799999999954,29.870000000000005,1
0.8968322876206443,0.02003675471362252,-0.19460007042729863,-0.0963421682753726,-0.0021958802501466667,1.4680034915440365,33.584686,-2.8176000515605564,31.155315213607086,-21.550176431714274,49.77401577470624,136.0753717162462,0.27146800000000004,29.870000000000005,1
0.894529045695728,0.02340422632181306,-0.1919216879323634,0.032076569316898354,-0.002163566816882381,1.4670517877591915,33.58706,-1.7426744682154551,30.92369174362714,-21.562266963140758,49.398367539394016,37.943009749642236,0.2714680000000001,29.869999999999987,1
0.8957029316984932,0.021140407001337784,-0.19103077073856367,0.038893384768495215,-0.003078999478174808,1.4693901468558348,33.58772,-0.05216424758587954,30.85388727333294,-21.820672498882455,49.95903093386841,29.21856097664334,0.2701880000000004,29.869999999999987,1
0.8939521511866914,0.025425250516139173,-0.1849670741174884,-0.06979972079595433,-0.0023974286190495343,1.4709604856796328,33.585274,1.943742324681317,29.909325796959454,-22.094570427945982,50.04189680872378,5.717432444612061,0.2714680000000002,29.869999999999987,1
0.8971260125828364,0.021985045518646378,-0.1857297032965242,-3.0069491627005022e-05,-0.0022882792463066273,1.4702990333843033,33.588905,3.6842571193033753,30.245893601993306,-21.436016971138223,49.93263328494694,-11.870936507395587,0.2714680000000001,29.869999999999987,1
0.8939771015255826,0.029700737246371033,-0.19312917922844255,0.11312161929847378,-0.002574778436073016,1.468525610155274,33.588093,4.348238586604931,30.50789233149401,-21.23193784501927,49.86412393737305,26.07194362780905,0.2701879999999999,29.870000000000015,1
0.8953522901046179,0.010528257389689806,-0.19618797356483889,-0.03219905674799172,-0.0022263542407311133,1.4709321853081283,33.585587,3.0743446388434417,30.83224134270093,-19.688111938456,50.74441266303799,36.37033141071615,0.2727470000000005,29.870000000000005,1
0.8961838845044601,0.0077097251616189445,-0.19944630918526685,-0.0436825443440865,-0.0014279003140106128,1.467243086389446,33.587925,0.36101903995250095,31.18430322094771,-19.3345070404674,50.7358008735184,1.964311120933159,0.2676299999999999,29.870000000000005,1
0.8948706272064522,-0.003993074615792885,-0.2043758718122928,0.06854530471229153,-0.0011320937976446834,1.4694916250824899,33.588787,-2.2549757576352962,31.478576013900486,-18.738680114891924,50.705738720657685,10.208592409630679,0.27146800000000043,29.870000000000005,1
0.8858450109238798,0.009776176112764583,-0.23299717648627738,0.03610334372108749,-0.0024590180690786776,1.4710094891269019,33.587444,-3.5928059036790856,31.33750724015399,-18.014949795375244,50.831773912532576,31.029489433971545,0.270188,29.870000000000005,1
0.8850099958578472,-0.004316767099681151,-0.2545867851757274,-0.09473416617339718,-0.0026679139445655703,1.4681343225390342,33.588623,-3.952328034409616,32.228882514039796,-17.235249611432245,50.49684490277394,2.102075171428875,0.2701880000000002,29.87000000000001,1
0.8868632345435938,-0.004254017962119643,-0.2465066503088186,0.04839312524462199,-0.0022712958107213637,1.4674940996272305,33.588234,-3.9042423123983867,32.69213350452478,-17.17251459251491,51.21518615858362,-7.694704496611413,0.27018799999999993,29.87000000000001,1
0.8880740258426095,0.021028344472015053,-0.22206155320554058,0.05175701227657327,-0.0021782415073578272,1.4680458514843073,33.588703,-3.4909113695986416,31.719535395547055,-17.740814030129346,49.86453426865992,16.859984359549657,0.2701879999999998,29.87000000000001,1
0.8963201990659074,-0.03511918293160732,-0.22196793588718525,-0.07375213051757205,-0.002178902102367696,1.4690194384758142,33.588436,-2.884256911494692,32.14513056543849,-17.983090765229555,50.34049392510255,10.691530266611705,0.270188,29.89,1
0.8840498644485347,0.042632192486008906,-0.22312081357562294,-0.022322356667407253,-0.002453693505053304,1.4694518925948654,33.58785,-1.5003527724450167,32.62151836920947,-17.24556458193811,50.741269376422665,-23.29713647680723,0.2701880000000001,29.88999999999999,1
0.9047314434723401,-0.03409214123411303,-0.18996279742068684,0.04980358322059463,-0.0019720188475754585,1.471186263324433,33.590603,0.3092371964199279,32.04830990197058,-17.637866566778317,50.22283696357521,-3.5004402025963866,0.2714680000000001,29.88999999999999,1
0.8949947348404347,0.0009968382237759213,-0.2008298830903761,-0.08136985475551928,-0.0020702521610616535,1.4709601081256096,33.59065,2.727288822579409,31.88808653881139,-19.079276720716003,50.008190384992915,26.960713037816486,0.2701880000000001,29.88999999999999,1
0.8957574208175647,-0.0033218162751958063,-0.19661410931488,0.004477720490765473,-0.0027344198528165722,1.4709615430689986,33.589935,5.495593673180534,31.678683594180796,-18.735923157764013,50.33175419019785,-3.5342658662064372,0.2701880000000004,29.889999999999993,1
0.8940527547970394,-0.0004503602540109815,-0.20106373382290696,0.08064316420854373,-0.0022631289393898924,1.4724823147393706,33.590855,7.011371115804489,31.33710428215782,-19.228643927943576,50.35057262969991,-5.448628447306964,0.27018800000000026,29.889999999999993,1
0.8873948268639538,0.006473337269800617,-0.21632058948626176,-0.06830576097204685,-0.0024230392787033808,1.4709677039316895,33.589966,7.291323960991958,31.199175494655666,-19.595006438252128,50.12821228236404,18.578664449057822,0.2689090000000005,29.889999999999993,1
0.8951061499130573,0.016926051708968173,-0.21921136294767868,0.05090368514759093,-0.0015105009839504907,1.4713688513698262,33.58759,5.8377072476514495,31.645748897833318,-19.82613146178343,50.15701442453891,-15.868136693991032,0.2701880000000002,29.889999999999993,1
0.8888574597560801,2.930489379175697e-05,-0.20158239419383242,0.04239868617613465,-0.0022156904036660014,1.4702822569654705,33.58857,2.591468073607853,31.67853068419902,-19.1887178054759,50.26051039159125,-0.38914046096838734,0.27018800000000026,29.870000000000022,1
0.8986162110293769,0.005585013157118781,-0.1948880659864074,-0.09765008951935497,-0.002212414786549213,1.4716155330424254,33.59449,-0.667541786798504,32.393491185256934,-19.004016168133354,50.178543730211274,9.362087724122514,0.2701880000000007,29.87000000000001,1
0.8994339964788844,-0.0008798654652513527,-0.19066871331501573,0.08999415169020263,-0.001972074272267272,1.4692634056234066,33.59079,-3.197232359202626,32.652526083038424,-18.986842586896845,49.83155147967065,-14.867851362231336,0.2701880000000002,29.87000000000001,1
0.8983300283650248,0.008860174789137388,-0.18252135890947302,-0.04810524618973875,-0.002243559839191123,1.470329242084666,33.58921,-4.6928600070438495,32.99246319941463,-19.013725662623397,49.39431245113972,-0.18150661602999882,0.26890900000000045,29.87000000000001,1
0.8986484330595192,0.00744835764345131,-0.1806581492524281,-0.041060622271158594,-0.002631051011424038,1.4714149627590174,33.58893,-5.1841885827697265,32.99957085438042,-18.987509735429875,49.090865603840896,22.329523395505767,0.27018799999999965,29.869999999999983,1
0.8993474260065253,0.01747572304061534,-0.17170077278043425,0.09806592135948952,-0.003240623798266835,1.4731842033753901,33.59894,-5.051919466122416,33.12591312888242,-19.135738168025128,49.25479159768255,-12.680414623694324,0.270188,29.869999999999976,1
0.8991477871833394,0.015980566617311696,-0.17668060180098197,-0.04855369625034605,-0.0022073927993646438,1.4736849933150962,33.59172,-4.55289119557118,33.0967041529309,-18.991204324181215,49.17981557800721,7.648833653868118,0.27146800000000004,29.869999999999976,1
0.8978578246632459,0.023924667983725924,-0.1815331860150184,-0.043030347738871565,-0.002431285845000632,1.472867904713039,33.59247,-3.9173425665104364,33.07629509787914,-19.00670733970919,49.291520242302994,2.722099878612011,0.27018799999999993,29.869999999999976,1
0.8956059662634754,0.01622537170020597,-0.18987585371808705,0.07037865336945909,-0.0026529586375964942,1.4729725835887832,33.59046,-3.245178428131318,33.33739848263789,-18.99562485798501,49.25852183341567,-13.116826850797723,0.2676299999999998,29.85,1
0.8954694753247596,0.01843070929397292,-0.19348031202213833,-0.022461051547960742,-0.0023796791476088817,1.4754014574377876,33.592194,-2.327309341527183,33.1637195953102,-19.001540151754025,49.27641130678128,10.192547537259017,0.27146799999999993,29.84999999999999,1
0.8962845447828435,0.0136293683034805,-0.19697866096130887,-0.0736979811924821,-0.0025327382847498492,1.4740438661437236,33.593227,-0.6818202228144886,33.3126691867601,-19.12739883906588,49.23456270443559,-3.7833684937272287,0.2689089999999998,29.84999999999999,1
0.8928062686507036,0.017939652530918396,-0.1938195225628037,0.05568166261156765,-0.0023045444514156223,1.4769233357395177,33.59232,1.2428140119141362,32.99823651225892,-18.990897509872816,49.01804456249509,-10.073537754751063,0.27018799999999993,29.84999999999999,1
0.8928218005693829,0.016295277973645703,-0.19714007075339127,0.04992619418179189,-0.002067301340338854,1.4751728541211437,33.595196,2.9397462252540008,33.23540950712855,-19.02532220452085,49.17484769163578,17.905439887849713,0.2714680000000005,29.88999999999999,1
0.894743080913292,0.016417479088894047,-0.20298876188064627,-0.06852156161027646,-0.002344990929605981,1.4751598526787624,33.595867,3.947857003692991,33.833840867170736,-18.8679829662897,49.259890772874336,-3.993517322680909,0.2689090000000004,29.88999999999999,1
0.8928563948473197,0.012650316849675245,-0.2067906188674533,0.015046030333077788,-0.00274634126597295,1.4728952728608693,33.59557,3.135477200487064,34.007312210571804,-18.592830069056365,49.14073056987401,-15.545884404664877,0.2689090000000003,29.88999999999998,1
0.8947259114287889,0.014589247904316857,-0.1999315757334343,0.07638901500370314,-0.001312919290312465,1.4744953619654015,33.59602,1.0900735322067647,34.00584334862618,-18.226882848026115,48.927381919897236,11.666996223891209,0.26890900000000006,29.88999999999999,1
0.8961367813535058,0.008215913591965981,-0.19464067247853523,-0.05534516318439808,-0.002587607147072612,1.475124610543005,33.596,-0.5178565029048808,33.98735316847479,-18.137723674529585,49.1102897999607,9.376561706938737,0.2714680000000001,29.889999999999993,1
0.8973958322496927,0.009376194311659493,-0.19044300291586352,-0.032884602996134826,-0.0018061330893558826,1.475433635733173,33.591637,-1.4736723017249107,34.01952183578918,-18.144169736432463,49.090475144982456,-18.304043246300672,0.2650710000000004,29.889999999999983,1
0.8962996790425208,0.008265838506200393,-0.1891579355758712,0.06757615138708735,-0.0026570520752215265,1.4752062083996584,33.593838,-2.004670831369019,33.97097012432356,-18.10957346205258,48.994338158431745,1.9382348673115382,0.2676300000000003,29.889999999999983,1
0.8973966752740945,0.012272247494958852,-0.18688826590710014,0.018426675380959313,-0.0017824306371209146,1.4778769253417252,33.59252,-2.0185209239696476,34.04534964610347,-18.636271629820747,48.86609820396803,10.950833249610533,0.2663510000000003,29.889999999999983,1
0.8980427470612844,0.00926587170694072,-0.18698748001965457,-0.08887243910773752,-0.0022867034602176263,1.4783866437034556,33.59716,-1.7261380244404623,33.91665990921807,-18.535003199687043,48.974570465530995,-12.84491239535285,0.2676299999999998,29.90999999999998,1
0.8977487926248305,0.010643968980256064,-0.1893282082007041,0.025757728159453687,-0.002583352790250988,1.4763881558581926,33.598198,-1.4817772876574122,34.35358471792805,-18.529198601112665,48.53125568072461,-11.33335983754203,0.2714680000000004,29.90999999999998,1
0.8949237299719688,0.008606634683243327,-0.19565430305127665,0.05541219791645614,-0.002504813282956506,1.4754233089073174,33.597443,-1.178629188329717,34.256457517038434,-19.122615714521473,48.83091564842646,14.683043403537544,0.27018799999999965,29.90999999999998,1
0.8958862945141094,0.010247328326813762,-0.19710932811204981,-0.06303904270694972,-0.0022721853842849987,1.4767695501317706,33.59893,-0.5610041826536412,33.91656601794026,-18.917680601443593,48.94573499884968,-2.330066298011316,0.2714679999999999,29.90999999999998,1
0.8939172459768575,0.010844130197484135,-0.2051330749777422,-0.034053845288148005,-0.002405672923082061,1.4773065982877949,33.59621,0.512182820070333,34.04403604442374,-19.070917321777735,48.92014008117596,-13.945746702347112,0.27018800000000026,29.90999999999999,1
0.8914820275848355,0.011324736341431295,-0.20655881220743874,0.07108514231717467,-0.002118074498536847,1.4788007910380039,33.598392,1.9281492734263812,33.98661280502057,-18.927418540899996,49.03398079488538,4.912691838559394,0.2689089999999999,29.90999999999998,1
0.8928663127223058,0.010555041273563905,-0.2064115250067238,0.019055385203505023,-0.00278969690406739,1.4759034628635823,33.596222,3.3250277453927604,33.807185366674716,-19.091758190785328,48.98033666001768,13.544054418735733,0.2714679999999997,29.90999999999998,1
0.8941246800266804,0.011757932493372645,-0.20490720701692042,-0.05524234029313695,-0.0022632969552599546,1.4779859794828085,33.601856,3.8970735421825684,33.90850746206716,-18.782291062050724,49.011729169942626,-9.18581385832972,0.2650709999999999,29.90999999999998,1
0.8949286908466618,0.009788660058176515,-0.20282969230986103,0.054126237427891806,-0.001741486591077829,1.4772559926296938,33.59867,3.061779577634105,34.05741877465263,-18.91117207465429,48.99386643389667,-5.310010469426059,0.2714679999999999,29.89,1
0.8943312495735813,0.01573384428910978,-0.20091137935057446,0.04057971359184443,-0.0028521016855938917,1.4765073531347521,33.599525,1.4230397261293293,33.95362838806704,-18.950712690445886,49.00139663640292,9.668671558859417,0.27274700000000063,29.89,1
0.8945785033265558,0.009461382437172353,-0.19980395730070627,-0.09245708850829966,-0.002577442184734791,1.4768608334671551,33.597366,0.1125621303449579,34.04055224392593,-18.706280257432507,49.00346082165033,-0.16437039604105866,0.2676300000000002,29.89,1
0.8956700165782717,0.01137344248274699,-0.1978670894580706,0.015652117150478765,-0.002381069091333945,1.4767556850082468,33.60001,-0.38997598119448096,33.9630943381431,-18.345770166061158,48.990178455299414,-14.327137464599884,0.27146800000000015,29.89,1
0.8946220822475786,0.009440837081118012,-0.19559174617355005,0.07923559095980429,-0.002479686605332861,1.4770400293714003,33.595997,-0.7272031421780855,34.03443156454852,-18.258174817603116,49.02188196426244,7.9442956755003795,0.27018800000000026,29.890000000000008,1
0.8966443961855916,0.012055662907117076,-0.19383744306435918,-0.06295291575703976,-0.0020756423337655256,1.4785559281847354,33.597202,-0.9571789522345994,33.96730599871678,-18.548083372026895,48.923891748361484,5.5416212612623434,0.2714680000000005,29.889999999999993,1
0.8965362034195546,0.007331654597328409,-0.19311300039792,-0.02867693044626035,-0.0021345638345165265,1.4758758302860266,33.598633,-1.002339611451538,34.15647049186415,-18.44656378918127,48.91790032269345,-10.645401785625786,0.2714679999999998,29.889999999999993,1
0.8966296293608101,0.008704376081610473,-0.19122871225938382,0.07693857634080899,-0.002741128090116365,1.4773973073374487,33.596146,-0.8912751215029896,33.96936249417078,-18.516770667436802,49.02830906783958,-2.17808727690244,0.26890900000000023,29.889999999999993,1
0.8960307044520716,0.0066951924282487646,-0.1948211791951014,-0.02274763724057616,-0.002594584549465091,1.4787053436865871,33.60004,-0.6411254211926031,34.030125661161684,-18.482336587144328,48.98282730615004,10.662499033199893,0.27018799999999993,29.88999999999999,1
0.8961104573447377,0.009664659754750829,-0.2016272173896669,-0.07489991292038352,-0.002590918776828251,1.4790813863397885,33.600487,-0.31146492880807886,33.97009848495037,-18.686449765757427,49.01234398379112,-9.773784732778674,0.26890900000000023,29.889999999999993,1
0.8936911471080178,0.008237207528651596,-0.20332026664092986,0.06996252326774569,-0.0032639224362589784,1.4788251930697418,33.603645,0.18235050000413025,34.02996346795355,-18.29622584186162,48.990150496395025,-5.901547524307917,0.27018800000000026,29.889999999999993,1
0.8939510818601929,0.010334205105162926,-0.20366958573866734,0.01685558023445195,-0.0023644348277382277,1.4796728065555227,33.601246,1.0423944894269637,33.96964863971077,-18.712398878633877,49.008716367299044,10.351792046406937,0.2701880000000002,29.889999999999993,1
0.892499532968422,0.007605032008209287,-0.20308559350305033,-0.07570060376759317,-0.002709003411039991,1.4784580875128148,33.60252,2.1349117975170007,34.031182371947416,-18.651716581203324,48.99123234602273,-0.28631604066608646,0.26890900000000023,29.910000000000018,1
0.8946933736050232,0.00979531970963541,-0.20479200892384739,0.05655222379597231,-0.0018395754554812514,1.4791117046202666,33.60186,3.1463175637302725,33.96723636608415,-18.529461616550396,49.010322103540105,-12.867985267613323,0.26890900000000006,29.910000000000007,1
0.8936702064078624,0.006265742241370016,-0.20504057731412487,0.06182135492482741,-0.0023968878089021613,1.4797761445936053,33.60191,3.3111302770824196,34.03600549369961,-18.393354075312843,48.985420211168275,8.629389333078416,0.265071,29.910000000000007,1
0.8954785054523945,0.0062938218983493634,-0.20090784865216404,-0.09865084195564744,-0.0021761333572235574,1.4789604313713283,33.603924,2.365121210604255,33.95540386501375,-18.101431968743945,49.02638208719255,2.956966682155834,0.2701880000000002,29.910000000000007,1
0.8951897818421042,0.004246787837518589,-0.20121733532256444,0.03292517590425355,-0.001789799897112434,1.4782426045773982,33.601685,0.9228666345662585,34.219174352009524,-18.10183891781557,48.87907845173898,-11.414408749251967,0.2714680000000001,29.88999999999998,1
0.897014981550505,0.006175221815982197,-0.19339246414625105,0.05803131178322215,-0.002434974629815836,1.4801653016003884,33.604256,-0.38661989417580017,34.19672629657611,-17.93041382716988,48.982648356527875,1.1165257868724285,0.27146800000000004,29.88999999999998,1
0.8972367050204257,0.0025607185948387117,-0.1865454562233577,-0.09328763837614135,-0.003988077361990336,1.4796558374992137,33.600838,-1.1065791054894085,33.96597636802944,-18.06423411044734,48.93911094175907,10.256485377773396,0.27146800000000004,29.88999999999998,1
0.8988100266698397,0.0018904820674881023,-0.17870308181747394,0.007537017638382292,-0.0016047065477264562,1.4804997484241487,33.60272,-1.3061024110770871,34.45000345338826,-17.939676286027755,48.91897461217219,-10.81409159968111,0.2701880000000001,29.88999999999998,1
0.8992736039313689,0.0029236094195714355,-0.17793063677752627,0.06865042098022527,-0.0024148180709307877,1.4798614340239868,33.602425,-1.2403335250165106,34.24958213771149,-18.75269867312656,48.95153535347424,-0.58121376714371,0.2701880000000001,29.909999999999997,1
0.9002589184403132,0.00856548830818138,-0.1758555153262884,-0.09657607502361683,-0.0037398809497283833,1.4804631489535993,33.605606,-0.8412212802948831,33.90312533048454,-18.93795860595604,48.913473056721664,9.442452359702054,0.2740260000000003,29.909999999999986,1
0.8989428700050776,0.00647370820209246,-0.17153803554609984,-0.00955261269115622,-0.002192093186640986,1.480459407831943,33.604454,0.12182038126085086,34.07772236773281,-19.052314315546294,48.97321883052533,-7.2841050528746925,0.270188,29.909999999999986,1
0.9013589836385849,0.007580842865409771,-0.16551224139318274,0.08630268733684404,-0.0032035898655283774,1.4807013665891142,33.606995,1.6773081807256027,33.92710957682211,-18.943565087566224,48.89011654199387,-4.678058287301672,0.2701880000000004,29.909999999999986,1
0.9015974259353582,0.007514197234950609,-0.1579137082908949,-0.05942017613445333,-0.00233760201664412,1.4806021691266276,33.605827,3.5937588103619653,34.07300418623657,-19.061986893853213,48.884001296079276,9.035173692491782,0.2689089999999999,29.909999999999997,1
0.9011464619665023,0.011435150421234132,-0.15756607660647598,0.0029456812456472503,-0.0029893022405362065,1.4812619817303299,33.60681,5.287799572159733,33.92415611363004,-18.931343052831267,48.743948762833405,-6.415760437608736,0.2727469999999999,29.910000000000007,1
0.9006640855869644,0.008049230025875346,-0.16196160978568497,0.09590775232866759,-0.003174476602926134,1.4793013364396561,33.604336,5.829242590790113,34.080800165042504,-19.076981154693808,49.074458168603805,-5.292800984444748,0.26379199999999997,29.910000000000007,1
0.8998037016070238,0.00868703198734754,-0.1700621904366702,-0.07124946735325033,-0.002138063274506529,1.4811723384292395,33.611843,4.6381884098994925,33.91209878518124,-18.911733883761183,48.910731325021246,9.537976833447386,0.27146799999999993,29.910000000000007,1
0.8987651627003922,0.006996831941045285,-0.18073297499286978,0.015978613812510683,-0.0019248106797750122,1.478827749321978,33.607445,2.0380474081205033,34.09767179410748,-19.106007543799787,49.094698138488816,-4.242888080805494,0.2714680000000002,29.89,1
0.8985137526788199,0.010813109400571216,-0.18446792775529547,0.08914212665690324,-0.0021161180926605213,1.4802350376014244,33.606895,-1.3588019588302316,33.888551781392614,-18.6209418837627,48.900586934298566,-4.8404947724234955,0.27018799999999965,29.88999999999999,1
0.8974984985449658,0.005915744680812506,-0.18380598546163976,-0.10346681966627902,-0.002538745766299518,1.4790854551400743,33.606804,-4.4322093310500135,34.13286152116107,-18.268491017936174,49.10252765227896,10.626256152358177,0.27146799999999993,29.88999999999999,1
0.8990612517011073,0.0075248502200573,-0.18288077062202734,0.022048989725524847,-0.002531032199023801,1.48091988732461,33.607235,-6.203629358177609,33.823258208366916,-17.997403897474943,48.9041154270328,-4.101334084214304,0.27146800000000026,29.88999999999999,1
0.8984494962450422,0.0032061999058259883,-0.17808242375114502,0.07686844382205717,-0.0022669931915899715,1.4814915497003436,33.6062,-6.7084652468268375,34.50354747714528,-18.405686270750497,48.97984050973922,-6.142978010020569,0.2714680000000001,29.909999999999997,1
0.8996446199014001,0.0026773757388218774,-0.18145556524426434,-0.08757041701316684,-0.003056082458565033,1.4803315710606675,33.609154,-6.410082612876185,34.86693696295967,-17.88779302199319,48.25081230749162,12.27196956678202,0.2714680000000002,29.909999999999997,1
0.8983234446333779,-0.0035831604379902193,-0.18012693978337024,-0.0058478968476893085,-0.0021387936600392125,1.4799823398227807,33.60658,-5.559316878917337,35.53532249770458,-18.56897984283053,48.47027142081307,-9.309289872754901,0.27018800000000015,29.909999999999997,1
0.9003246838362406,0.0016275263434298462,-0.1737823097315142,0.0689363980516073,-0.0032825199134570854,1.4819046912192015,33.607643,-4.5586909151390245,34.71848745072417,-18.854636846749777,47.86037469975029,-0.5942152763126887,0.270188,29.909999999999997,1
0.9015694631086734,0.005753062742727577,-0.1746084877181869,-0.07817642929757294,-0.002243114505571861,1.482084438899413,33.6092,-3.6317628918139286,35.49386703224815,-19.243920971316463,48.52255650070434,9.18069721083771,0.2714679999999998,29.88999999999999,1
0.9029905363375701,0.0032422486847729077,-0.1710068077501949,-0.01739000254382516,-0.0018512655293785043,1.4814112191021498,33.610817,-2.65240315504641,34.568934253757256,-17.743062406329205,48.68724485593322,-2.3754349090656164,0.26890900000000023,29.88999999999998,1
0.9018118266716054,-0.009436164812303187,-0.16819465578333043,0.09429424210592811,-0.002423584910874599,1.481856181215289,33.610268,-1.5817861317152908,33.056539986370126,-16.594358936263763,49.63943537628197,-11.622071365200393,0.27274700000000013,29.88999999999998,1
0.8987527430210523,-0.002877727183275527,-0.1909901340063815,-0.07110225757372876,-0.0025349778939258343,1.48282641143469,33.608364,-0.02039115707421423,30.72613293516644,-17.237636766458266,54.21585052420403,22.70540426025874,0.2727470000000001,29.88999999999998,1
0.8906749648647467,-0.010023906770537664,-0.2123596623301112,0.0025607924381001335,-0.001836176114291298,1.4818837024150393,33.609016,1.9350848374792524,22.901157239976257,-11.455749009575213,61.570753184469076,10.66676397547951,0.27530499999999974,29.89000000000001,1
0.8886977273582762,0.004697089983837633,-0.21177157960387477,0.0901717710899759,-0.0024952517500571197,1.4833160710671174,33.612606,3.4730915724615534,20.368334072374537,10.515790387817779,52.10248538393724,125.23189131917853,0.2740260000000002,29.89000000000002,1
0.8941052868814123,-0.012733679936852723,-0.2175626395461904,-0.0769817229859538,-0.0029844312952510884,1.482642244320361,33.609795,3.516263439917611,22.469732696138507,-12.04889451618097,54.217553484844096,265.9200050575047,0.270188,29.89000000000002,1
0.8902931048023842,0.010725658114060456,-0.20440929022399507,-0.000852580461987957,-0.0027882117110394743,1.482498960034095,33.61421,2.234841393628441,25.416244163341915,-18.846525601178033,57.979071179530095,60.530862139890225,0.2676300000000001,29.89000000000002,1
0.8961881936123973,0.009279753120616987,-0.18454072115833525,0.05763084101061063,-0.0019789147796762867,1.480463461311099,33.609314,0.6427091368590598,25.839708666119197,-14.926987601248937,56.23700539639466,-420.48270601660465,0.2689090000000001,29.870000000000015,1
0.9110430625900231,0.01562530236451177,-0.13754993154782463,-0.09255234813157077,-0.0026872501784330873,1.480975736430374,33.61018,-0.6952010183855065,24.176168050873052,-8.960009158996712,56.974917140150545,-199.6798658842326,0.2701880000000001,29.870000000000005,1
0.9041074739917266,0.01521382936742893,-0.13875793006921047,0.05461171593669346,-0.0027236707416928465,1.4789147375013139,33.614265,-1.2881853794675426,28.794399777035512,-13.95069623625148,52.08143664913202,10.508760027961214,0.26762999999999965,29.870000000000005,1
0.9008342359980863,0.020273622653657498,-0.1318741640542248,0.0490249649880318,-0.0023591383420034826,1.4806849018208916,33.609943,-1.2950076629287,25.806266816325948,-15.610626021311132,57.14146637039025,-144.083080924194,0.2689089999999999,29.870000000000005,1
0.9102093048429514,0.0169603323072882,-0.1131754872541378,-0.08619577068579669,-0.0022040519934050503,1.481901967291447,33.615997,-1.08563529327867,27.848235342689765,-14.373501777008428,52.81459963953251,89.0134966084473,0.2714680000000002,29.88999999999999,1
0.9115422702784026,0.018494897635487183,-0.11152471180780561,0.039491926681240776,-0.002199743202362589,1.4813244313204093,33.614635,-0.5777211854560134,35.366913828756225,-16.1042753277745,50.51542775939931,79.15201558841665,0.2701879999999999,29.88999999999999,1
0.9059739737471325,0.018012205320797264,-0.12697346416311797,0.05203667549627646,-0.002062621551549749,1.4818646932680024,33.616463,0.5816848343760884,31.677804410217572,-15.946629460425553,50.36115401448148,310.5506614475562,0.27146800000000026,29.88999999999999,1
0.9004872495794675,0.021221368267870196,-0.14366435546564246,-0.08660753215084127,-0.002735873146984294,1.4843344442128967,33.616272,2.2737378769081023,33.521336379788096,-17.539565772317818,50.45464428636425,-73.35996706260164,0.2714680000000001,29.88999999999999,1
0.9000861670447091,0.02902310819160714,-0.1575721009515583,0.005161282159337929,-0.002189155072857519,1.482485145950659,33.614872,3.7231769263039016,34.471567879132685,-17.056005557865277,48.80144871279077,-341.8977446236362,0.2714680000000003,29.890000000000008,1
0.8991707572523754,0.03441039131641035,-0.15530179527815102,0.06674078555541108,-0.002199231202482044,1.4836086808275626,33.61492,4.985506936415788,35.24262306279589,-17.970337901853927,48.86785119902013,-30.80526314120798,0.27146800000000015,29.889999999999993,1
0.899134204332274,0.031028750794409192,-0.15894534321941053,-0.07061376802042485,-0.0023035524652337577,1.4831564685118919,33.61196,6.266303489265508,35.10010421415354,-16.707043171495744,48.258641164186635,92.52873384577774,0.2727469999999999,29.889999999999993,1
0.8987602273845363,0.025290166673950416,-0.168504779155507,0.028867955209415676,-0.002441945420876931,1.4828794929849716,33.614025,6.643784005988316,36.732731563390914,-17.12530260769472,48.18845192481516,27.55795772577812,0.27274700000000013,29.889999999999993,1
0.8990668618121678,0.026756803211458246,-0.1661000760068034,0.06813020761650723,-0.0032086033128507635,1.4850819855221016,33.616745,4.799768303105495,36.698121738279184,-15.822652144372322,47.79185408671959,21.777209587133584,0.2714680000000001,29.910000000000004,1
0.9003152731539165,0.025086527261936362,-0.15777858830411584,-0.0840443330424461,-0.0025005131392477615,1.4838564999934372,33.613907,1.8606256573678976,37.16962610908869,-16.905295201968507,47.94687564083401,48.353191737272645,0.26890900000000006,29.910000000000004,1
0.90100756525107,0.026819805609328347,-0.15398953459911546,0.06979519378582442,-0.0022544298581087985,1.4827373958954175,33.612774,-0.6735063356646783,36.47497679806644,-16.086811989866092,47.90888254284059,11.282906461450185,0.27146799999999993,29.910000000000004,1
0.9030177870598987,0.02839715391751136,-0.15855962653265473,0.04052378309490263,-0.001907622377330169,1.4824807735244367,33.61435,-2.4923590402422424,37.24367724160212,-17.02655788404513,48.217025994287035,8.679380441764245,0.26763,29.910000000000004,1
0.8996539847257449,0.024173987494280343,-0.1592869257659195,-0.10157215687484396,-0.0025449183856597626,1.4837412655172515,33.615562,-3.582059407956582,36.76752282249509,-15.82579179939127,47.68894683545606,24.46956719379945,0.27146800000000054,29.93000000000002,1
0.9012330566913934,0.021657932823163695,-0.1636260998648634,0.06943768894661148,-0.002179887392011834,1.4838217713286372,33.618076,-4.001271842934779,37.11827090975424,-16.38033240682616,48.2079536673368,-7.66804771769374,0.2701879999999995,29.93000000000001,1
0.8984595398560682,0.019525449916404335,-0.16820067598225616,0.021404101157811672,-0.003136944296480082,1.4849035698726025,33.617313,-4.036058874662983,36.01423611455795,-15.593614964547388,47.808332997047316,8.900897881633494,0.2689089999999998,29.93000000000001,1
0.8982149201627259,0.01981313500250779,-0.1789468060690831,-0.09650257854395808,-0.0020551519263453753,1.4857269104804702,33.623566,-3.347636336601266,36.47823708285554,-16.533169261025108,48.34789120083455,15.478332603670784,0.2689090000000003,29.93000000000001,1
0.896450141095161,0.017052938808337116,-0.18238569957076906,0.07544924683000125,-0.0030898029766190456,1.484384460657302,33.615517,-1.761030467430019,35.38966762810511,-16.054900978029053,48.36294936904285,-9.032072882153487,0.2689090000000001,29.889999999999993,1
0.8975775568916183,0.01466667733006671,-0.1829687055900829,-0.008167205304655853,-0.002282844377246064,1.485935277905399,33.61902,0.29960176086642876,36.18175503312016,-17.394375665008408,48.500646865491596,4.485705967142683,0.27274700000000024,29.889999999999993,1
0.8984248349223235,0.01919582243518004,-0.17478684782940973,-0.08733575319812997,-0.0029245898758184343,1.485192553236087,33.61757,2.462878137430127,35.725918138094386,-16.565647439318937,47.83476498904757,15.533709793852527,0.26890900000000006,29.889999999999993,1
0.896790672213695,0.02057339228486138,-0.17100939991598513,0.07487652604414745,-0.002721558243092753,1.4860553823453155,33.618973,4.1246563007395105,36.24775078953376,-17.46247594809532,48.31415372621814,-17.57216987908672,0.2689090000000001,29.889999999999993,1
0.8978569949290376,0.02566593491187855,-0.17342464462291676,0.012671220070931596,-0.0020851030368921842,1.4850948704199016,33.619404,4.9074774269001615,35.69639150467251,-16.657556763234464,47.71729990603273,9.136113081718348,0.26635100000000006,29.890000000000008,1
0.898801755915994,0.02399834376406605,-0.17783287406690831,-0.10060277876078871,-0.0021756305180760513,1.485187136959068,33.621117,4.458300258728331,36.46694310347813,-17.47191242941298,48.295997567365546,12.706107610322753,0.2689090000000001,29.889999999999993,1
0.8964725076907832,0.02262893512653926,-0.18150473097170106,0.10522706114565432,-0.0025726945443335127,1.4857420079592967,33.621952,2.641558199337007,35.74985821768984,-16.500312349120456,47.913819209555356,-6.1092648151416125,0.26890900000000023,29.889999999999993,1
0.897275899115803,0.023883873091860235,-0.17971058388022104,-0.08185580605603242,-0.002629962504515187,1.4868406906599525,33.6205,0.0525284076808099,37.36275418730737,-17.30195414731961,48.166235772588735,-5.057992946647928,0.26763000000000026,29.889999999999993,1
0.8994618034025023,0.019133664116888924,-0.1730747622688215,-0.027701358556581315,-0.0024973554323869276,1.4853008828497487,33.621582,-2.6687731155269283,36.338142255318154,-16.39240144131655,47.76409802787165,3.1732429072109505,0.2676300000000003,29.910000000000004,1
0.8999929605148547,0.01872880843761499,-0.16938661493958299,0.14312946879475913,-0.002648570244723128,1.4847786255756683,33.6237,-4.510585648083051,37.470198564152945,-17.64841259756511,48.26585896385855,-14.11712623267268,0.26890900000000023,29.909999999999997,1
0.898441154818076,0.017971992357966402,-0.16766792461309615,-0.11099256384560338,-0.0023577159398714166,1.485285419721991,33.624584,-5.164755491885344,36.458842538371016,-16.29231481860314,47.68246910360571,14.36916037618687,0.26635100000000006,29.909999999999997,1
0.900342776730816,0.017395816572557676,-0.17169110945916952,0.01951153521091791,-0.0015737532216492513,1.4852959751119215,33.618946,-4.94814063521264,37.60620863286235,-17.78526164682823,48.17285391800462,-4.764079532652084,0.2676300000000002,29.909999999999997,1
0.898467695037616,0.018436267101203167,-0.16914277510344783,0.08522082915926936,-0.002033325800496809,1.4867881124589606,33.626663,-4.4801000591175875,36.31028814973153,-16.112213691951972,47.755369047565516,-1.6028560890576744,0.2689090000000002,29.930000000000003,1
0.8987278537982656,0.0221398196511905,-0.17459637643977363,-0.09001976259158374,-0.0030273003350859058,1.4862537719271414,33.619305,-3.7818124372568285,37.79628407077189,-18.026926104996,48.10893540335153,10.083107689054877,0.2676300000000004,29.929999999999993,1
0.8987459239451491,0.025866651351824074,-0.17122004666890644,-0.001620143404186629,-0.0030560059875154545,1.4867449894116866,33.62461,-2.4591391409326824,35.8538165171572,-16.10369046768697,47.19304314293773,-2.500869220993344,0.2676300000000001,29.93,1
0.898090344370288,0.027667372090142764,-0.17306939231235088,0.09499734235074639,-0.002399838533817594,1.4879845087382821,33.623837,-0.5477488039882938,38.41497417505214,-19.103126697892836,48.333070619426906,-8.601528194693659,0.26635100000000017,29.929999999999993,1
0.8986479724073438,0.02663794771743515,-0.16926682329775544,-0.10076257148140179,-0.0024340829634614683,1.4880150850690723,33.624805,1.5804010728580622,34.71621339415352,-14.847404187998013,47.282947101733654,19.167576572661662,0.268909,29.889999999999993,1
0.8975066000620515,0.02334190959571613,-0.17143907112941706,0.07063046511197979,-0.0022077078900687172,1.4872215988067803,33.624878,3.389850548114926,41.36631543570717,-23.975906425319486,47.115450512113824,-12.81532850135739,0.26763000000000026,29.889999999999993,1
0.8981088761146534,0.019243919732849786,-0.16588760430935026,0.08506329009814674,-0.003029336427581226,1.4894589549235475,33.6268,4.141533912140177,50.94024504346978,-17.761205001944234,25.366643281950658,0.4482585432816704,0.2676300000000001,29.889999999999993,1
0.900922464658974,0.040739301969868996,-0.14548686379168171,-0.21246794225491028,-0.001974634928051457,1.4887594731434728,33.623863,3.2067080241259394,58.128680067463314,-0.999829274998443,37.128125219216656,10.73488068574758,0.26379200000000014,29.889999999999993,1
0.9031854393632794,0.03383580387181318,-0.1498806869841539,0.0022888153389533828,-0.0026702748681047585,1.4853176975026716,33.627117,0.49137620402322346,53.01424958270631,-0.9562933343940618,39.11631814791474,14.370436540679506,0.25100000000000006,29.93,1
0.9015059843743388,0.025953546219022402,-0.14440731841509707,0.059637318763503394,-0.0022238525222731125,1.4864465119301455,33.617306,-2.1528702425197346,27.78674046777426,-15.833603806439168,45.121774575067896,79.97607163052041,0.2535580000000003,29.929999999999986,1
0.9071642156607127,0.030775109769424894,-0.13909367519179194,-0.05315058485284273,-0.0028855022789092085,1.4854061915648766,33.624268,-3.5169095299768705,30.710803007194702,-17.828007019242765,56.246306482287075,235.1127743063479,0.2586749999999999,29.929999999999993,1
0.9056123143655923,0.023381816905552393,-0.1284919829056862,0.10979743004423587,-0.0024253351220676856,1.4850420719981323,33.62575,-3.785928770241974,30.518849903378456,-13.939863857549076,53.18603979641333,-148.27390783374432,0.2612340000000004,29.929999999999986,1
0.909063348863661,-0.011634104832561462,-0.10812096881407549,0.04407060248400695,-0.003118353048160633,1.484878334990828,33.62689,-3.6780900477051985,31.208061665720532,-18.068947540050573,52.54051873315336,-182.28396053354052,0.26379200000000014,29.89,1
0.9135696808860697,-0.01431259800228128,-0.13387953834912114,-0.0686520835104452,-0.0027933138857657836,1.4837228212803053,33.627964,-3.098312465660793,29.611962260333886,-17.917117745347763,50.95718731572145,69.50685626434839,0.2637920000000003,29.89,1
0.8996264874086728,-0.010361115801028744,-0.13887972275062738,0.09093528532199466,-0.002532821706488835,1.4839393881088323,33.625008,-2.2363429432705697,29.13142574672607,-21.52185305731254,52.444567422244916,-106.1078765731348,0.263792,29.89,1
0.9111806931192566,0.05496125958656671,-0.06691799472221521,-0.06167009215162032,-0.002526360673180129,1.4897998326107302,33.62667,-0.6461118730892668,24.912929262030914,-25.71773605289815,50.53622701126087,-60.29979774928569,0.2637920000000003,29.89,1
0.876861039752622,0.1285868796175071,-0.0881741384566258,-0.07283021587868538,-0.002243267044955396,1.4884113949679862,33.62886,1.836275751530231,19.930401517570015,-33.367124003739875,48.87823316153445,164.7154160658927,0.26251299999999994,29.910000000000014,1
0.8765985353341414,0.23036298406026226,-0.05963586267647493,0.0819667913464516,-0.0020095432681476308,1.488639886563374,33.62644,4.993199546027257,16.80818025863687,-34.078963226552446,48.83101072271284,-308.94019932301717,0.265071,29.910000000000004,1
0.8689639638911526,0.2380255123922076,-0.0642526340885734,-0.07396178590272531,-0.0024553410854706217,1.4880912567810323,33.62868,7.377476101352169,16.599209889326414,-34.56336271056859,49.375319124171845,2.980165674993032,0.25995399999999996,29.910000000000004,1
0.8715367078388361,0.2590027982130411,-0.08394848474753361,0.045143204757454876,-0.0021788935062293045,1.485734238409195,33.628284,7.550671622557866,22.26021411321417,-29.40083064417477,49.758741457179376,84.01819417016179,0.265071,29.910000000000004,1
0.8758948991785865,0.09589408585011457,-0.13699998302375685,0.0725732920793512,-0.0022025317904435715,1.4842708398122315,33.628864,5.5561139597546445,28.117746954746973,-23.789559642872092,50.162717077350926,18.860135897972857,0.262513,29.910000000000004,1
0.8963119238176965,-0.042786579593664796,-0.10900021743411015,-0.08812284989384393,-0.0023125411318788854,1.4834718536885154,33.629898,3.0106539869345617,34.6324849966692,-18.267449145018304,49.20142795472433,26.15833316341325,0.26379200000000014,29.910000000000004,1
0.9493363189753774,-0.12287575254230194,-0.10863445537997543,0.13241277122358494,-0.0021814228230494608,1.478480021727294,33.626297,0.49488692569484694,34.98151598686422,-18.052795122422662,48.88086150027096,2.8033105267044287,0.2650710000000004,29.910000000000004,1
0.9039788307171638,-0.12476382750393765,-0.10338979722252982,-0.06670719452713524,-0.0029443630300976264,1.4819104914574937,33.629818,-1.3221441539217416,30.593169487386167,-16.353645839585095,53.68032715475041,7.137256979557443,0.2625130000000001,29.910000000000004,1
0.8910347031528825,0.031124299460169383,-0.15265200140516091,-0.04974906435909567,-0.002314472660857676,1.482535102361472,33.623283,-2.747524951202239,24.36656196654055,-18.989680451551457,53.377512229472295,48.021527148861644,0.2625129999999996,29.89000000000001,1
0.906918975207778,0.05120104017777873,-0.12794936379340122,0.07395952523808237,-0.0024052430615723983,1.4849879878082857,33.625954,-4.552925271224912,19.947687862694167,-20.66581338738984,54.2424791698075,-23.19513324671974,0.2625130000000002,29.89,1
0.8978979152498551,0.07257898272225657,-0.1508585342864437,-0.13010102534722337,-0.0031663273068387454,1.4857635688633033,33.625507,-4.893971307096879,25.744275803031314,-21.454188748708585,54.21803668770438,44.39033207426217,0.2637919999999999,29.89,1
0.8937136388198725,0.053337796713700814,-0.14947122249137657,0.06337812918085393,-0.0026794368690114014,1.4866063153706246,33.622917,-4.2404695846620415,25.896381188494395,-20.759714319409433,52.313260169208526,47.24184150457084,0.2637920000000001,29.89,1
0.9041294561402836,0.03786261864118836,-0.1505568825122756,0.03419939143224953,-0.0024897250872978455,1.4879888853408982,33.62116,-3.1422841737685263,28.155044176295466,-22.080301095756404,51.82379254896683,131.41062120639762,0.2637919999999999,29.890000000000008,1
0.9001385263854786,0.03896925684254774,-0.1397467710519795,-0.0923743069115424,-0.0029129618790375536,1.488401777471172,33.627056,-0.8990837940471527,27.505673185255272,-21.57362504024417,51.23262882851673,116.92992486969656,0.2650710000000004,29.890000000000008,1
0.9045744142874597,0.030308561442489886,-0.14613646709449168,0.08352216482335266,-0.0022994101805203504,1.4881617416560529,33.62261,1.9713453018685907,28.14384133080344,-22.4930426291,51.02904133024541,-384.4936676711735,0.2637920000000001,29.890000000000008,1
0.8997945076121612,0.030092642849730136,-0.14061517596913922,0.008390853607490137,-0.0023380444823200945,1.4900648993841032,33.61958,4.190485275773423,27.38687161899025,-21.605582413779175,51.068383840486455,-150.72490382082978,0.2637920000000001,29.890000000000008,1
0.9032072151688663,0.032239390894556796,-0.15130034517465593,-0.05823507799520635,-0.003054999547012381,1.4893592294784892,33.624046,6.051969166280346,28.494068097453948,-22.374835450600234,51.088583737738894,363.9651166561934,0.26379200000000025,29.910000000000025,1
0.8979436156716991,0.03187514433134722,-0.15109011582196508,0.0913496512941502,-0.002187017004506845,1.4904375021239453,33.619602,7.2691929768620005,27.42479216471754,-21.538809534368117,50.91874519642937,245.54412462410212,0.2650710000000001,29.910000000000007,1
0.8974082529991528,0.027644460459915,-0.16696703097572724,-0.02058574436342607,-0.0028296006116443617,1.4902920886646245,33.617878,7.832807358384541,31.75860182253154,-21.69287305115475,49.62456501119773,-253.56542142021786,0.26507100000000017,29.910000000000007,1
0.8988749512497053,0.03141862325111053,-0.16800358629016462,-0.036575212379006475,-0.0028840641860765157,1.489887844783617,33.61983,7.318285489972023,32.98781044042489,-21.615682948202178,48.25714248128767,-239.14726027014328,0.2637919999999999,29.910000000000007,1
0.9007618581040284,0.03287265278835319,-0.15970870250979474,0.09329542474188453,-0.0022697142247361554,1.4896097261055379,33.620636,5.43301913157043,33.05189992740216,-22.19928382077638,48.27376750850967,-134.9607063072804,0.2612340000000004,29.89000000000002,1
0.8990159266765244,0.032061381683163206,-0.15957580905648783,-0.06012604629984122,-0.002416783873864093,1.489471035645731,33.61845,3.2352146722665607,32.96772161745887,-21.454026269415774,47.896369428158444,90.56380506737615,0.26251299999999994,29.89000000000002,1
0.9035438231037338,0.03131223197244847,-0.1609893425793691,-0.04317121019898095,-0.0017442454526325714,1.488282921131167,33.61934,1.5968790951223082,32.62765845163198,-22.16152968148959,48.429920525391225,27.18234908820608,0.26123400000000013,29.89000000000002,1
0.8953740366899903,0.03195263468408078,-0.1457124833949004,0.08291244132541568,-0.0027020601973651924,1.4886571594135756,33.62226,0.16656000222672313,31.70468582942636,-21.978251458499763,48.78915813687898,18.54169902409215,0.2637920000000001,29.89000000000002,1
0.9010359620405476,0.03544759935354108,-0.1597334917541467,-0.033520310776619856,-0.002846289603732299,1.4898145515557255,33.616787,-0.6748307070991302,31.953641171275876,-21.813761157837337,49.05829251828074,91.20552002783081,0.2637920000000002,29.890000000000022,1
0.8985894609317995,0.022329495161404332,-0.1760846386952392,-0.06129051132689691,-0.002444273597528311,1.4904108162244016,33.620205,-1.4179580555240399,31.847822137977733,-20.81114587968969,48.950340916195145,142.2580488982564,0.26251300000000044,29.89000000000001,1
0.8973688577427804,0.013760537910353773,-0.1749128484027378,0.09356751846137548,-0.002466700425224369,1.4895313390382274,33.616756,-2.807481873363641,32.35166423902394,-21.37874413627878,49.04644755477098,282.3675794299606,0.262513,29.89000000000001,1
0.8996252853167745,0.018942163474187625,-0.17142355830525802,0.0034722248072470993,-0.0026004174169001106,1.4916247654085286,33.621265,-4.052275803704758,32.07369644552118,-21.24325102278696,48.955588013495046,26.565867205452008,0.26379200000000014,29.89000000000001,1
0.9001382162398799,0.023655189421347506,-0.17151203777558463,-0.05808044490213059,-0.0019011756964904664,1.4909056013439181,33.613224,-4.654120739303871,32.51837895306163,-21.386489556714054,49.04292600367568,-332.87819564717984,0.2637919999999999,29.87000000000001,1
0.9028306838124396,0.0245624099683685,-0.14302360618145052,0.08778173774103015,-0.002581387861966639,1.4897513372143736,33.620296,-4.8460836817377455,31.90212861115323,-21.16103214824217,48.95811452928137,-60.55192073023384,0.26251300000000016,29.87000000000001,1
0.90213982497289,0.02741321294313997,-0.14459189582895116,-0.05897315058744181,-0.0021500317169268982,1.4910507128247075,33.61786,-3.3646873368724326,32.32265698751816,-21.62590803772004,49.04133982814591,-13.619872992198713,0.2625130000000003,29.87000000000001,1
0.901873152126651,0.02904520694288118,-0.14214025449611337,-0.07346285506969383,-0.0023933381691118682,1.4907522074480637,33.62087,-1.3900408732025613,31.982805240373402,-21.107984657055596,48.95853583485032,-237.2827825626623,0.2599540000000004,29.87000000000001,1
0.9032390383722286,0.030341930453898765,-0.13837605100545136,0.06994871851026141,-0.002455749114214593,1.4900577398363668,33.6157,-0.8325974612954146,32.22544169109689,-21.966211966984737,49.04267291891004,-97.41307943998939,0.2612340000000001,29.890000000000022,1
0.9021014745558373,0.03258378381259255,-0.13389022478957088,0.01045543818584949,-0.0018527766962482836,1.4926007698037864,33.61738,-0.9514137131075275,32.00530319567552,-21.84710498444235,48.95393315659506,212.4097555228375,0.2612339999999999,29.89000000000001,1
0.9030612211046235,0.03666925782088281,-0.1370532147906341,-0.09556205708091793,-0.002637114069900681,1.4906863969624793,33.62007,-1.0091370554429298,32.11195960632545,-22.166521472776246,49.05569343750456,51.080634587826914,0.26251299999999983,29.89000000000001,1
0.9035098712477543,0.035632847328326715,-0.1262639616454762,0.07244205947262883,-0.002077971370409114,1.4914957002738616,33.620605,-0.9795781045600178,32.019171251878305,-21.824811225106988,48.89205510794279,-48.413954349214684,0.2612340000000001,29.89000000000001,1
0.9063297537018867,0.03782882427522397,-0.11019890870199057,0.01912166220222149,-0.0023611592483084526,1.49246143483935,33.625565,-1.0086816301799633,32.09466559675027,-22.20074327221648,48.94819926409534,29.842916721862107,0.26251299999999983,29.890000000000008,1
0.9040970605186898,0.03734157547290331,-0.12251226259791252,-0.08384282490917803,-0.0023472670445875026,1.4918223562536825,33.617393,-0.348430370134855,31.889563776217802,-21.493776758131382,48.999084844108786,31.619114557300012,0.262513,29.890000000000008,1
0.9022250586462934,0.03358690715437779,-0.13219240306299612,0.04267542983302943,-0.002364292001643932,1.4915985872612658,33.622322,0.14648917562541922,32.22550368884768,-21.34166659410782,49.0115251734553,-8.653937924140038,0.262513,29.890000000000008,1
0.9026227321470888,0.030840629881212937,-0.13803425456313226,0.07721363689755653,-0.0036355609196893853,1.4911671218692686,33.617805,-0.19697475666083616,32.028335298997085,-21.10752180288145,48.98344041847175,34.53015500183033,0.26507100000000017,29.890000000000008,1
0.9020023017738754,0.03151472587200204,-0.14528957027940967,-0.08157030769049953,-0.0022367029599851067,1.4926454819027604,33.618584,-1.011795013151905,32.14113363186021,-21.35153503467647,49.020382057395146,26.380350125059632,0.26251299999999994,29.89000000000002,1
0.9019034895093291,0.03212535544059048,-0.14378502389921846,0.010717340015451274,-0.0025049990701829124,1.4919826545652197,33.620266,-1.849594721472816,32.08774085965186,-20.990133341381416,48.975083666008345,-11.731412354540002,0.26379200000000025,29.890000000000008,1
0.9029283226859532,0.03062955947532307,-0.1384415957799681,0.08894792987989658,-0.002793700670967204,1.4931805228025903,33.61715,-2.2709370654106285,32.67983373607184,-21.61912970239071,49.0335002745917,12.398605372095467,0.25995400000000013,29.890000000000008,1
