chest_ACC_1,chest_ACC_2,chest_ACC_3,chest_ECG_1,chest_EMG_1,chest_EDA_1,chest_TEMP_1,chest_RESP_1,wrist_ACC_1,wrist_ACC_2,wrist_ACC_3,wrist_BVP_1,wrist_EDA_1,wrist_TEMP_1,label
0.9134311106844788,0.06096373049447693,-0.03849601711814332,0.11363106650018812,-0.001965317655682308,0.9770060636072421,33.37008,6.264884038997821,54.786522824783205,-6.308733165049948,29.58608600912516,-28.4559482736561,0.29298399999999925,29.410000000000007,1
0.9089096026133996,0.059732953162034794,-0.09339141587215766,-0.03741696923996619,-0.0034213536960607817,0.9726586899996895,33.36525,4.463240073581288,44.29090547126325,29.84391368457894,33.88754938587803,73.22731063621926,0.29298400000000113,29.410000000000046,1
0.9042419198363554,-0.008738137108230447,-0.14690951388922857,-0.05688932283474974,-0.002435765777799325,0.9723998830779321,33.36785,1.5081881788802116,60.37629294033969,22.542099563381914,21.194719585749908,-19.791234908050274,0.29042500000000004,29.39000000000001,1
0.8968523686888247,-0.05739052971677115,-0.1935601769826976,0.10205328060272457,-0.002792613012883047,0.9699292411406392,33.36799,-0.40870350163973745,60.29346350803814,16.095299187891985,0.599316881694828,10.176584694595098,0.29298399999999997,29.39,1
0.878781402334038,-0.06418593815234683,-0.2666000390766129,-0.09355665864754625,-0.003378229537100904,0.9691057067496465,33.368885,-0.7452447489316208,62.749611856366045,13.012751956210058,-2.834321022039171,85.45338307796756,0.29298400000000047,29.39,1
0.8773631793943251,-0.03901502520380467,-0.2771330133720326,-0.015532979604232035,-0.0028847358576506283,0.9735158284148866,33.369274,-0.8342757576740046,60.70627679753287,10.265019259539782,-16.189988318710007,29.90775583396913,0.2917040000000006,29.390000000000025,1
0.8893650857748696,0.007268640265725652,-0.2333125543151317,0.08610990548048027,-0.0028100103023556175,0.9817025955584454,33.366734,-1.3875539937052974,62.35042497813028,7.4045978055230615,-15.214372694096058,-139.29643782078526,0.29170400000000013,29.370000000000015,1
0.8890070704695875,0.06712275260845031,-0.22155105793699703,-0.12181756546759404,-0.0020173624452212166,0.9786910930163151,33.36851,-1.8460182018977356,60.207961527005196,6.267991479513166,-1.706932589585109,9.551647281447874,0.2929840000000001,29.37,1
0.8907654762788356,0.044753118577103936,-0.2040211871891618,0.05670339189954009,-0.0035029456411764625,0.9759269081319345,33.370518,-2.0271596456350403,63.064769200581445,7.207376557764395,-11.265706019408004,6.971010961556674,0.28658700000000026,29.370000000000015,1
0.8918265388037521,0.02256819217283765,-0.2077517314097562,0.04325238859734423,-0.002054757728489208,0.9750562993129188,33.36903,-1.9260310698917806,61.13799721395323,7.270735373561226,-10.248869547292943,-132.95594636167408,0.29042500000000054,29.370000000000022,1
0.8935506573310235,0.02444651391442425,-0.21718662776675907,-0.11156030911589104,-0.002682712081228835,0.9763870652016221,33.371944,-1.5937554147617048,63.07324527324559,7.939695754169431,-9.713898906789355,68.1225047861732,0.2891460000000003,29.369999999999983,1
0.8830630241294245,0.038479156727662035,-0.23745636330601355,0.060751803212696485,-0.002470797166741003,0.974009279417745,33.369488,-0.9369779917420106,61.40921560454897,7.718804835499324,-7.196993737688182,118.35713279448677,0.29042499999999993,29.370000000000005,1
0.881763478800263,0.0374764561235026,-0.24982253980095676,0.0745895282502713,-0.0025244318384525905,0.9759339222572194,33.37306,0.33279956333027677,63.14915434345083,8.407622785747865,-6.962488796728885,-21.50824707452231,0.2904250000000004,29.370000000000047,1
0.8825804859530193,0.028505454613034307,-0.2502245247848374,-0.11167266413388982,-0.0021726417886890393,0.9764964553869871,33.37286,2.0512654639594956,61.452702585939996,8.241353288288284,-5.1903342654853715,-19.26556092299348,0.2904250000000007,29.370000000000015,1
0.8837484362719144,0.023248284678747243,-0.24043739507411543,0.052111221896090874,-0.0034477544396975266,0.9792015087468353,33.37603,3.7513683683868573,62.35499371648808,9.045152876478088,-6.020681702006127,-19.494667069822402,0.29042499999999916,29.39,1
0.8843882075806772,0.034383068083890175,-0.2417723534282005,0.0805492354462251,-0.0032019966617092828,0.9775773374541566,33.375923,4.95466327854601,61.7643593848821,8.120228574871998,-7.472380653949932,11.131159638411635,0.29298399999999974,29.39,1
0.8880481525248188,0.02922376119573011,-0.22933766788824325,-0.08011342117144063,-0.002173158531956182,0.9777946194884745,33.374584,4.644784166678196,62.67252783398871,8.858038606603237,-9.804131953748188,23.542016194221745,0.2929840000000001,29.39000000000002,1
0.8897229477031147,0.02930803064072513,-0.22101704978409328,-0.04393215243021493,-0.002442771684272048,0.9769283210559284,33.374615,2.5444219405281943,61.290325466681374,8.081894702902007,-8.090137354924407,-2.4611917216415793,0.2917040000000007,29.39000000000003,1
0.8889678097482593,0.029916848689687175,-0.22072505834352626,0.11558824834224937,-0.002616834065089937,0.9772036396055556,33.376614,0.1544997782595342,62.9889820902742,8.74897228629403,-8.50766941477471,9.096791858304393,0.29042499999999993,29.37000000000001,1
0.8888760959956425,0.032552403220110375,-0.21985664727811724,0.006170751583574914,-0.0015959714078886465,0.97556122042541,33.37554,-1.4345637138914367,61.456004693480594,8.04844842974786,-6.504820796427703,6.74950863078941,0.2891460000000011,29.37000000000001,1
0.8905099618228199,0.030601317942246235,-0.215993079302434,-0.10793894548119524,-0.0031479492740313112,0.9762896766796998,33.378822,-2.088380835469404,62.89766171400961,8.561410018609482,-7.197098929877272,-8.42728070875843,0.29042500000000054,29.37000000000003,1
0.8912432488258263,0.0321598815827021,-0.21275057858628726,0.01145395272641909,-0.0025393190092509997,0.975505989663514,33.37845,-2.28495198602279,61.66293394745376,7.97728118576907,-5.786790307633454,-43.788995662698525,0.2891460000000003,29.369999999999983,1
0.8897570799907416,0.028620755135881817,-0.2144219910838577,0.11608008330654178,-0.0021537898800332014,0.9766562419993006,33.381153,-2.3633383617077643,62.56202218809943,9.01115172828756,-6.410588805997635,-31.756104807798945,0.2904250000000004,29.350000000000016,1
0.8928789469442121,0.032530741301518416,-0.21839563721282146,-0.05337247870913315,-0.0023449858116573476,0.9757419457838059,33.37884,-2.2696537306394746,61.72139941620621,8.279857771900687,-5.649612041447587,35.178459566944625,0.29042500000000004,29.350000000000016,1
0.8886220696064672,0.022606395706023366,-0.2220615117922273,-0.09873151603690139,-0.0019889425904039463,0.9758615538719718,33.37862,-1.9508091233990035,62.28659202307868,9.146999305233969,-5.813868553652227,-12.999742324312514,0.289146,29.350000000000016,1
0.888488564572286,0.021791047482793164,-0.22237658091802157,0.05539617145416635,-0.002596948049637062,0.9723766894035063,33.379917,-1.4476950129038535,62.9101507968651,7.044377428580095,-5.107399789616045,1.7209944793920706,0.2891459999999997,29.35,1
0.8884070428921934,0.04307371888608576,-0.22597235507076058,0.10325103508542782,-0.002524626993234898,0.9724444913257988,33.383904,-0.8598630949158315,62.31828879197544,7.417963570323154,-4.8620221161952,22.909319307091224,0.2891459999999999,29.36999999999999,1
0.8744510067830726,0.04932151608457908,-0.26875902069439983,-0.09619325614319964,-0.0023265203550091053,0.9681495037051743,33.381557,-0.1932159970044925,62.80296499124388,6.194805091692126,-2.7209065596910254,8.261376272381458,0.29170400000000013,29.37,1
0.8702914265347814,0.02081198677382499,-0.28418008449268944,-0.04709739889170391,-0.0031635942164436616,0.9702469715581067,33.38455,0.21949333128175916,62.20234424622896,8.558345968787751,-3.448294226604026,-19.80839290557624,0.2904249999999999,29.370000000000015,1
0.8773315638373279,0.010873225684826807,-0.2739289904924481,0.12087505112640912,-0.0030354138023956185,0.9754621425528639,33.382812,0.9194226228158223,66.0357662214733,7.962922499381844,-0.02231746925434778,21.52710905054663,0.289146,29.370000000000058,1
0.8785336213138313,0.005878684490576826,-0.2739603902280825,-0.01367708372735357,-0.002899621656603459,0.9782631275451823,33.384533,2.1651778251793568,54.82778738955807,16.83575455416421,26.23655749137166,22.48484820081317,0.28914600000000057,29.350000000000005,1
0.8799958761938607,0.021989850808805292,-0.2568110782075726,-0.09042352758312155,-0.002945476625715434,0.9781013764989004,33.38694,2.9911970395841982,49.047537743752905,11.704227784395531,28.83254726849696,-1.8238565024978592,0.290425000000001,29.350000000000026,1
0.8881894410279749,0.04285159036486837,-0.22737238667267035,0.09951005925680978,-0.0027430897872848647,0.9793635861235787,33.3869,2.645892702146703,64.43260467797462,5.97101117042118,16.975685126894415,8.453914070604153,0.2891459999999999,29.350000000000016,1
0.8924751682872464,0.038788146895715685,-0.20064093983339418,0.029101904857981097,-0.0025735029048099558,0.9788133147780926,33.384968,1.2224738355959253,57.41548893715308,6.360662172804256,16.81649634194838,65.84081761162939,0.28786600000000045,29.349999999999984,1
0.8940731178423641,0.04146508141790735,-0.2032493198142596,-0.12213185219643546,-0.0024480524768236136,0.9775241261199761,33.38931,-0.9080184753906906,66.26086470239412,5.544900810486441,8.206247965236853,17.56980334880227,0.2865870000000003,29.370000000000015,1
0.8953481759577772,0.04456042261270115,-0.19473181413189336,0.026418444903079704,-0.002795660699174084,0.9745184812090444,33.38749,-2.7965777747621394,54.27209870166553,18.532857101108302,-15.184836377503839,-79.96195398378927,0.28530700000000025,29.369999999999983,1
0.8848434008855355,0.006804066146705508,-0.25263601656297013,0.1078583654715917,-0.0025848378960061304,0.9683598681025737,33.38883,-3.8341256746236834,73.97226621905364,13.852148261790575,-13.201829976707645,-75.6762651037983,0.2827479999999998,29.370000000000015,1
0.8811372556322794,-0.04824080329799152,-0.272459528078898,-0.08707478295916116,-0.0024535491589239094,0.9717947952701015,33.389805,-4.373962972657394,25.55317221075922,19.115812265783095,46.605931825593274,22.144648005442008,0.2865869999999998,29.369999999999994,1
0.8827675604378717,-0.019672929881853502,-0.2631894761857239,-0.04854804851959721,-0.002564467384288095,0.9734247728829029,33.390564,-4.7317883803729055,24.520162914885486,7.476594549513076,63.653604535494296,89.7123057438347,0.2904250000000004,29.369999999999994,1
0.8823107713018011,-0.027614684277748932,-0.25609712836568,0.09584378881584289,-0.0021721651318083856,0.9756618943115474,33.39216,-4.374129729287263,27.892362025590742,14.320089938076318,52.92170181028795,14.74091329537254,0.294263,29.369999999999973,1
0.8866565445906996,-0.04030692284043694,-0.2605603174735453,0.008332100152699674,-0.0025794514274431,0.9754559793257634,33.39308,-2.5618549875102166,37.257227890171876,12.76301818365376,47.32867405771314,-29.420835593381245,0.29426299999999966,29.369999999999983,1
0.8839101985741946,-0.03829006908406694,-0.2565566039753486,-0.12805300788840737,-0.002910350331393893,0.9767373822102355,33.391605,0.28401205979391997,66.11130404774998,9.289596154420916,16.53497624668613,21.39557212488041,0.2853069999999998,29.36999999999998,1
0.8894054722341452,-0.041487462990517504,-0.23872552502384617,0.0755978207025328,-0.0033695740358737803,0.9745625403208595,33.390648,3.150507738405896,58.5415130596044,13.850913028121127,8.341799236378515,-25.926720319200875,0.2840280000000005,29.37,1
0.8899527215644889,-0.035342662987206834,-0.23233826350380965,0.0701781579007006,-0.0019007904525424036,0.9785927998148225,33.393185,5.426112197826312,62.544390234320154,26.7717826364634,20.689483275867754,-7.977935188442001,0.28274799999999956,29.36999999999998,1
0.8939337832237482,-0.05403542206037159,-0.2261495579411551,-0.07832689187453494,-0.0031453670451935733,0.9774302972571549,33.39478,5.9962770727337205,25.567030485159368,23.676031147252093,47.43720192876703,-23.552365956855304,0.2853069999999998,29.36999999999999,1
0.8931562031726032,-0.03440384728885714,-0.22520762586119628,-0.06346704609792501,-0.0023475703160576035,0.9769746125312508,33.394745,4.314282305447531,19.390071626256937,14.497641780811502,60.131774072521125,-14.208185115589517,0.2929840000000005,29.370000000000037,1
0.8982598568956452,-0.03504419915761538,-0.19911489291523976,0.13533201610619536,-0.0020353769346754735,0.9779890411152454,33.396038,1.4612971605457579,36.874504105731134,23.456407545544366,46.54140858003538,-30.512971700342952,0.29426300000000094,29.370000000000047,1
0.8985174138029107,-0.03852636745350227,-0.1918912259858617,0.01600906530879792,-0.002125023420036047,0.976516337590912,33.39762,-1.1733402066346565,23.592073774749135,16.686608330178792,56.67339793566618,29.83503121550966,0.2955430000000003,29.369999999999983,1
0.8994932104708737,-0.02193864451985212,-0.17682375276001264,-0.09693465189758439,-0.002144999132389051,0.9789719553956349,33.395405,-2.627948742670558,30.982663664375714,9.525124847376137,55.282296434354734,19.885105258253375,0.2929840000000009,29.370000000000037,1
0.9119223823830754,-0.010613427758921518,-0.11873096348811611,-0.014489438985055862,-0.0017063489127607232,0.9759824085008586,33.39946,-3.3992804629868156,40.37708541658174,14.464175301336676,47.01981568202153,11.099569995352931,0.2929840000000008,29.370000000000026,1
0.9145781698613881,0.007439603685750175,-0.09306712957367094,0.12504069682247432,-0.0022028998475319013,0.9768155529462219,33.401577,-3.150500226576107,49.89865328695574,10.966940661928279,39.169861956797256,1.3438324208763108,0.28658700000000004,29.330000000000005,1
0.9087917239913021,0.015487484074949516,-0.12271594092937395,-0.026905233219502986,-0.0024418784731089073,0.9755540707209416,33.39809,-2.1318296523420988,44.04638012569606,11.11026241271427,43.46965714788912,9.744505793688745,0.2814689999999995,29.329999999999988,1
0.9025889419670633,0.012455995883860406,-0.1725355201141474,-0.1110537170572667,-0.001918592039855541,0.9733013961116405,33.39996,-0.8032475359400104,33.660232963353664,9.771469917029606,51.6100490522709,-71.32998280316447,0.2827479999999996,29.330000000000013,1
0.8928223387935543,0.015643730400564833,-0.2041729679084041,0.005727601803714216,-0.0023871045670999145,0.9713407221591905,33.400124,0.44069907543052755,36.88580132502682,10.60028973491669,50.62865904373916,-57.59309727045221,0.2891460000000003,29.32999999999999,1
0.8884836692658611,-0.009405590995315653,-0.21904941971907899,0.12911167905431475,-0.0023467721680578125,0.9707736583789657,33.403046,2.0057784632965032,33.40199633040489,9.066761424653576,52.308301354332755,59.600531794405455,0.287866,29.370000000000022,1
0.8906428838566692,-0.021325915547547248,-0.2350762822077144,-0.060781513702296355,-0.002602120975363497,0.9728807003735088,33.404133,4.220847114769039,31.788846267082004,9.974790572481092,52.9981533248483,30.373626750123076,0.28786599999999923,29.36999999999999,1
0.8843077284688676,-0.03862274011820985,-0.2550489413839737,-0.08470871057737703,-0.0033422849282980626,0.9729347185217027,33.40367,6.414728975744026,40.645416186439284,10.691235226221078,48.43388535997985,-34.919716678702585,0.2878660000000001,29.369999999999965,1
0.8804324967965071,-0.03056088681823644,-0.24951159168370846,0.12573908303710682,-0.0029209824424943826,0.9769328496250879,33.406223,8.139473551808669,34.40918056633942,9.965008564184954,50.652918718726994,-23.739788448345553,0.28658700000000004,29.37000000000003,1
0.8924099259800155,-0.029412696568324678,-0.23674146912117452,-0.004366808648245505,-0.0027067103775308913,0.9787040809618432,33.40392,8.98551182024431,32.73084393130054,10.192434625403259,52.34262087622464,27.279182410287586,0.289146,29.37,1
0.8921840160898054,-0.030995155241573886,-0.2333059897856761,-0.11697544580539705,-0.0026249237864841304,0.9764938549942661,33.407948,7.140727132596824,44.77684495088568,10.832510879417292,42.38560460336226,26.5167694199233,0.286587,29.37,1
0.8904737562918131,-0.04674317040757186,-0.23149932751075755,0.08994473151345544,-0.0035279980079444113,0.9779935453158976,33.40937,2.747803467834307,51.7858330092428,12.533751132572123,35.207304100600645,-47.67602165699459,0.28018999999999955,29.37,1
0.891162128238102,-0.047110546912670775,-0.23442078010693934,0.060194641450765696,-0.002320054291010633,0.978553489123901,33.409653,-1.5258736804847808,48.782241540734326,12.659232092649106,38.55141215966498,0.03275067112308981,0.2750720000000008,29.37,1
0.8944366710924264,-0.044384618741151995,-0.22650605859557874,-0.12031284546521182,-0.0025802066222070474,0.9769859419467634,33.410027,-4.607283623661682,47.24473773335314,12.387841200970646,39.69089404248598,53.47906211092629,0.27507200000000026,29.390000000000036,1
0.8950837283434414,-0.03621514602694203,-0.21833710516704505,-0.018510762434649445,-0.002606089727486233,0.9756912021863232,33.41086,-6.583470572622095,47.51995057452279,12.478308636993074,39.593341867831874,-58.77533205683238,0.27635100000000024,29.390000000000015,1
0.8974169304137656,-0.035151537665680806,-0.20614959992986948,0.1218741273864658,-0.0028633096826614526,0.9753510979566551,33.410835,-7.429124855656662,49.55857816789968,12.88731870319706,36.58487998578916,-66.54104729070238,0.27507200000000076,29.390000000000036,1
0.897190004300153,-0.029298835637065417,-0.20382048600915836,-0.02721222901317426,-0.0020835695611906946,0.9755328103283786,33.412518,-7.097293390837164,52.700584373085505,12.73735508785632,31.071831509788783,112.564974949722,0.27379300000000034,29.39,1
0.8991353194995259,-0.033261911696838085,-0.19551843117810572,-0.10223947925149134,-0.0029427894260641014,0.9742386479366304,33.41522,-6.458350571229459,62.735436148593976,14.10943803361148,6.2621607101625445,21.378992926183695,0.27763099999999963,29.369999999999994,1
0.8977015620842956,-0.02948216163311284,-0.19702419206753452,0.04344334682180519,-0.00273714476334022,0.9742488544418189,33.416496,-5.770966871353589,60.82731539886421,13.797855313875626,-1.7287408248509581,-37.43982305393812,0.2763510000000002,29.37000000000003,1
0.9002057893914881,-0.0247429077547008,-0.19307091542424965,0.1071311223252543,-0.0028084901460624445,0.9747382821077034,33.417507,-4.977955860625769,62.541240758839265,14.249890228955664,0.41532090334430066,38.60072795832518,0.2750720000000004,29.37000000000001,1
0.8954671810398478,-0.01957795974633431,-0.21038671556095725,-0.07552313193184862,-0.002688478811106353,0.9733672925747653,33.417057,-3.9240979676639727,60.26893111696204,13.34791917472608,2.860479811060699,29.893667709575755,0.27635100000000096,29.37000000000001,1
0.8923703754862263,-0.021319873160267726,-0.22282435336220874,-0.08968409976693516,-0.0031146897695033824,0.9719363154757666,33.418827,-2.654749274568519,63.384455507784516,13.631490436339924,1.8688531984672498,-10.056185647766377,0.27763100000000007,29.37,1
0.890054481355373,-0.01798716822129867,-0.23420296086840625,0.07631640500997271,-0.0019755397254671396,0.9723083401652626,33.4201,-1.2842190083461709,59.31080743394847,12.53810373439579,4.395819804099649,-5.965897839311976,0.27891000000000027,29.369999999999983,1
0.8892085417037344,-0.02408256609218403,-0.2372246216512978,0.08028861747632599,-0.002068020671059186,0.9742078619822272,33.419815,0.3898720270147352,67.1464407281373,14.556574209254467,1.8273869812673702,3.2230696791320743,0.2789100000000006,29.370000000000037,1
0.8852755815349546,-0.021032328828148098,-0.2505393701655968,-0.10386720741519431,-0.0033901578083065744,0.9748988345057895,33.41994,2.134926247364982,37.9630013367733,10.523908095026611,41.002307661259174,-11.93983096052288,0.27763099999999946,29.370000000000026,1
0.8861318883684933,-0.01866459331437874,-0.24845518096841643,-0.019105762984614735,-0.002017558417438422,0.9752678222088413,33.422462,3.4601160595987746,31.353679830083582,10.400018234140424,51.876390694094155,-23.086264251906844,0.28274799999999994,29.369999999999994,1
0.8852905745206129,-0.015417471997672962,-0.24776777363916605,0.12163724910913791,-0.0026136093896517477,0.9758683904487074,33.423,4.014708987284808,58.25695968240014,12.935044699044948,27.15818238113117,22.606123486455733,0.2827480000000004,29.369999999999994,1
0.8884115788156772,-0.01643360607709706,-0.24277034971167374,-0.005539560972212922,-0.0024099494371473437,0.9759880426894348,33.425503,3.679617895107701,54.83726838186218,12.685636702992646,26.67623656519093,26.656069957113303,0.28146899999999986,29.370000000000037,1
0.8888353586732366,-0.01439568843459335,-0.2428186950604501,-0.120144233303773,-0.002729416869983259,0.9770864840641165,33.424297,2.3987230552992846,57.491988984103045,12.935872411868397,25.271072337087375,23.596205544822052,0.28018999999999966,29.369999999999994,1
0.8887285475508143,-0.018045342295659583,-0.23984991333707573,0.06277378953429973,-0.0027758497755282696,0.9761952011436923,33.423973,0.5784821693486288,56.18553551703766,12.943258055557227,24.61481364408311,28.199912670778836,0.28019000000000016,29.370000000000037,1
0.888428472084478,-0.01599505117058254,-0.242283277657083,0.0826085948557417,-0.0032039915528897767,0.9762458300495939,33.42617,-0.35022450563167745,56.36150670889931,12.56829483171028,25.67847368402659,-36.128095535390024,0.28274799999999983,29.36999999999999,1
0.8872693246890685,-0.020197808969221413,-0.2483080718281235,-0.10762699923588341,-0.002067675046388791,0.976173050603246,33.42701,-0.35223968745425527,62.158146312838845,11.255267105769569,16.545046728971755,-44.619904221021415,0.28274799999999967,29.370000000000026,1
0.8873207659835596,-0.024485579321633578,-0.2442344875003656,-0.005903558106156957,-0.0017338848031457894,0.9755221392477481,33.427906,-0.26511325386488044,58.755974594388675,14.504162223426567,-5.567830495195749,-19.12208451735106,0.2789099999999993,29.370000000000005,1
0.8929273853377772,-0.05853490770165639,-0.22959893060097195,0.105498865962813,-0.0026508330463356545,0.9757870619434784,33.429382,-0.521795804328141,57.48539890223216,24.18001160553736,-10.286063987835693,-3.905063821702954,0.2865870000000001,29.369999999999994,1
0.8893166047535784,-0.07883940925568551,-0.2347264785134749,-0.09916101916074878,-0.003266596470480069,0.9724608502926786,33.43153,-0.9433499149027835,59.578187447141204,14.167100311684264,-11.108828532251394,26.632057018559802,0.289146,29.37,1
0.8948719538078332,-0.08324428831296576,-0.21303579731950842,-0.011713503575000003,-0.002117087154026916,0.9726050375092561,33.43118,-1.4062110078836498,74.29086505284901,18.373533912298043,-6.429810695013667,-63.66862711271441,0.289146,29.370000000000005,1
0.8969380641686283,-0.09039739544673339,-0.21436427446565537,0.10024014034655196,-0.0013279906107685458,0.9733479373586444,33.431664,-1.7106756338012152,35.87143964828114,12.64762325878557,42.14114607850705,-43.80096657007743,0.2955430000000001,29.370000000000022,1
0.894390618916841,-0.03575727930194598,-0.20475257041432512,-0.09681384065803735,-0.0028574123875052563,0.9765321068902527,33.434532,-1.4793769885578396,31.762289745399237,12.406646392419766,55.10912839664928,95.99531964367006,0.2981010000000003,29.350000000000016,1
0.8953366089065858,0.0010734931377547503,-0.2074493802843806,-0.02477642395221366,-0.0014181003321400063,0.9754769252150205,33.43419,-0.6716795362091534,26.53602264024872,14.3930144367462,50.80440167413983,84.04321023474479,0.30194000000000004,29.350000000000005,1
0.8986759001632926,0.05422305519021754,-0.1765314158347134,0.11617017037481588,-0.0027191777713980974,0.9763841416334255,33.432343,0.9166576969250361,31.428897475383874,4.3018329094652925,55.181333286355844,-32.642238321987165,0.3032190000000001,29.34999999999999,1
0.8960071998564952,0.04429633477547559,-0.17897060666831713,-0.09253307773846538,-0.002715992439558721,0.9744735284645403,33.433872,3.688012245245029,53.18825426352476,13.291485195709882,36.12894538781331,108.91352358015759,0.2981010000000004,29.349999999999994,1
0.9016431988675575,-0.01486393152051329,-0.182645237145847,-0.017656805250507095,-0.002861198207111016,0.9750465166372042,33.433666,6.350627824503907,54.95209252703245,11.032635841855829,27.407049844139152,9.382752249779484,0.2942629999999993,29.36999999999998,1
0.8958619522247253,-0.03156066952335667,-0.1871766509611826,0.10622995035346604,-0.0031856048275981223,0.9738440036915049,33.43552,7.604456074964876,56.38111202711338,13.41800173990375,26.494219209712117,-124.9461795072868,0.2929839999999996,29.36999999999998,1
0.8998555466446913,-0.04532879636490164,-0.19693134254704242,-0.047902748069473144,-0.002794059991242081,0.976276882547147,33.435337,7.653107172686398,53.87710777452095,13.100351568566564,29.94297849609729,-26.0195153039675,0.2955430000000006,29.370000000000022,1
0.9010727020932738,-0.027993060028493062,-0.1838568625619537,-0.06366103307138675,-0.0035542675334849175,0.9756028397764827,33.43447,6.0060629416293265,54.8440118208303,13.768747381020756,28.4583293797164,-50.33411309858899,0.2955429999999995,29.369999999999994,1
0.899479772330225,-0.0033917887439592832,-0.18828256426179965,0.11972299968987918,-0.0017136058696978823,0.975177970829687,33.436775,3.0052564776889397,53.13211634959919,11.993296020787595,31.226661849348087,49.878720746589295,0.2942629999999997,29.39,1
0.8992879132297777,-0.012869004325313363,-0.18664552392354283,-0.027924160498974778,-0.003063092224750227,0.9736924897049771,33.438526,0.03341662794560415,53.580616593655556,13.100069525461453,31.34783341473833,-11.498561371127474,0.2942630000000002,29.390000000000015,1
0.900938072466996,-0.007058856883885039,-0.17990803663516444,-0.08673639837380752,-0.002949619133616689,0.9734836584913517,33.44061,-2.0690378482795198,51.49302173458195,11.907748417245498,33.28248678617704,-42.242589682193746,0.29042499999999977,29.390000000000025,1
0.9008342218382942,-0.0031387417350948483,-0.17620959908084058,-0.005343660793116865,-0.002662026150160091,0.9758080446715173,33.439392,-3.3525388016047777,54.9910887099375,12.886724318379544,28.670934156572322,-38.11221216606876,0.2904250000000007,29.38999999999999,1
0.901167857033905,-0.0050297018077200195,-0.1740320150063683,0.13069076560715442,-0.003367421140552235,0.9755764022698773,33.439873,-3.9976006737773337,57.17756297480341,11.762753105054593,24.38750015415595,14.767177813639439,0.29042499999999966,29.390000000000004,1
0.9006703084000508,-0.003914340993977722,-0.18046090587519806,-0.04499673613917469,-0.0022795237703138885,0.9745290205975689,33.44152,-3.9245742839053355,57.162941295268496,12.510749533254232,24.34680122605123,-7.666109756060221,0.29042499999999966,29.39000000000002,1
0.8989396439831803,0.0010595210468639534,-0.17913247940136534,-0.07764087276741741,-0.002724649422026828,0.974868095669191,33.440723,-3.7079333643852213,56.746639184949935,11.284417019272455,24.265297674447055,-33.039912857138674,0.28402799999999967,29.39000000000001,1
0.8974071858205681,-0.0013766090115716848,-0.1937047404204549,-0.004193435565848206,-0.002294769953258925,0.9743520608302632,33.44187,-3.52286394392767,57.28552952271836,11.71578394390591,24.2317223120025,1.0668834247442047,0.29170400000000113,29.39000000000002,1
0.8979965972470418,-0.00422205831680775,-0.2062229579824891,0.13135181864848444,-0.00316401237356961,0.9756107952214493,33.4431,-2.8904636364826035,56.69679413997315,11.202850540652582,24.26097706280135,94.12907523347559,0.29426300000000055,29.350000000000023,1
0.8977381676715194,-0.019198379793453235,-0.21122939919491834,-0.0497069909566717,-0.0027630650598373394,0.973514802355818,33.443592,-1.8386804008752846,57.51315383718595,12.210048975124757,24.09337073900379,-35.092134996843036,0.2942629999999997,29.34999999999999,1
0.8946602543227092,-0.04338185159845016,-0.20783898787212784,-0.0921943565821223,-0.0020128523843498613,0.9734753180103846,33.444813,-0.3603746420055958,57.2552486880541,12.058739207994192,23.745428255999723,-6.336049066260603,0.295543,29.349999999999994,1
0.8946191284114916,-0.05066213275691101,-0.20744981903290344,0.015328475421533561,-0.002118933297883937,0.9720845103580277,33.445057,1.3304445060619776,58.22763517430627,12.708025934587235,22.73416770806816,56.12765303029977,0.29682200000000003,29.349999999999994,1
0.8949530284139051,-0.059033826473396125,-0.21504092823639948,0.14674700164588422,-0.002705162954757784,0.9754477012072241,33.446484,3.4032873023077315,56.08002691677851,11.674209168824374,25.253610504194715,33.055229775010616,0.2917039999999991,29.390000000000004,1
0.8900352817222607,-0.0635447159270393,-0.22063796939102473,-0.032509887551704836,-0.002579734340594827,0.9738174143405139,33.44759,4.523378971317633,56.672136190297124,11.988733349840432,26.432707313409985,-13.398330548978908,0.2955429999999995,29.390000000000004,1
0.8935041781833228,-0.059964348471308465,-0.23178574577591532,-0.08924700712147919,-0.0025740910546722556,0.9740818161099369,33.449608,3.4875272796624155,55.11642780922075,11.499396445262095,28.24965798350716,-34.39688266417104,0.29810099999999995,29.390000000000036,1
0.8925507394730057,-0.0598276539278399,-0.22701476422988898,0.006447338487835806,-0.0029142098099283276,0.975090044125603,33.449856,1.1412101837063047,55.200120100255305,11.988364798823698,28.691294016987403,10.861884820671909,0.2968219999999995,29.389999999999993,1
0.8951068400412816,-0.06022610286624879,-0.22175664615159263,0.13100998794298507,-0.0025464630190687658,0.9770977834242979,33.45009,-1.3953172431904557,54.481701722044534,11.764898411050735,29.002487412414222,20.818357740690256,0.29810100000000067,29.390000000000025,1
0.8933362128995553,-0.05569125007138534,-0.21954624613390114,-0.06762389331554267,-0.0023396560403061645,0.9766130654654556,33.451633,-2.942329876619947,55.552503632096844,11.748974455866682,27.360314276888527,42.90804435276735,0.2981010000000006,29.390000000000025,1
0.897215762578846,-0.05224812273543639,-0.21288853406087369,-0.0791207725148782,-0.0022799393669565046,0.9760838046009599,33.45066,-3.4485346523206455,55.6943877951339,11.5031074808824,26.990836914308023,-9.488854669397364,0.29810100000000084,29.390000000000015,1
0.8967292770398746,-0.04899252677443282,-0.20701727846062368,0.0007157871309672265,-0.002431982453522276,0.9752179046169461,33.452003,-3.474413138331082,55.80378601315319,11.804312682959443,27.189769548366655,-55.64755230701557,0.2981010000000002,29.39,1
0.8980939561717363,-0.047949679516510975,-0.19952340771252364,0.1453333069026684,-0.002222084335428643,0.9752228353563498,33.454514,-3.0522865492212876,54.54907777571022,11.629908250177005,28.724059121973514,-14.281855320649543,0.2981010000000002,29.39000000000004,1
0.8989257255128414,-0.05205752150847518,-0.19367669359194814,-0.04211522827246379,-0.0027460475326713347,0.9747928822742221,33.454346,-2.5420230737582723,55.475396984451706,12.235294536656939,28.316810047373515,24.511270146581968,0.30193999999999965,29.389999999999993,1
0.9026967786384579,-0.054227717549242146,-0.18293289672718413,-0.09306908577426819,-0.0019886652241483645,0.973430710641488,33.455215,-2.022842618415895,51.86508321458955,12.526659511017014,32.4653774304391,-20.50041498849138,0.3006599999999994,29.38999999999999,1
0.9030453698589289,-0.05853960875749489,-0.17449386072334883,-0.00656451973172055,-0.0024422599601237067,0.9749566915851325,33.456528,-1.6288222505470527,54.593371486943354,13.475266279558044,30.853809766633407,-19.662593340245827,0.30065999999999976,29.39000000000001,1
0.9044270676280574,-0.06205880178310406,-0.17521260996158924,0.1379647462643946,-0.002597657956332062,0.9756419301808796,33.458282,-1.188307442077064,47.48658024669479,12.562601580249517,38.890708386620034,8.935659740864597,0.29810099999999995,29.410000000000025,1
0.9011822177820756,-0.054901931135583754,-0.18727176031759174,-0.03372024557470665,-0.002306433082712177,0.9743216610338061,33.458656,-0.6157020070562066,33.379463491195814,11.108024873505494,51.761867416196885,-28.776602856479176,0.29938100000000006,29.410000000000014,1
0.8988198320533556,-0.05018441774301552,-0.2010399075825825,-0.0993497283420527,-0.0025976220962885656,0.974387883627969,33.46084,0.13711303980101136,35.56961625990595,11.210332659772183,50.49876397903869,-39.66127161194444,0.3032189999999999,29.410000000000036,1
0.8961805323129103,-0.04531799056451142,-0.2082940369281915,0.016273470713325328,-0.0025540185083029235,0.9735509978502233,33.45843,1.1669047599519573,37.548042644828634,11.102503350707366,49.41471616258219,-14.560363265434104,0.30194000000000004,29.410000000000004,1
0.8946060631396406,-0.04501619581134031,-0.2170025597340134,0.13575378728943843,-0.002498700303792255,0.9766773233913651,33.462322,2.554484992089647,40.15672979663022,11.206706730550154,47.28372711526383,57.42528167230471,0.3006600000000003,29.389999999999983,1
0.8922499184356957,-0.045205747528801285,-0.21867237123437358,-0.05389957201328252,-0.002401964936115234,0.9762361017047255,33.46115,3.7152937725674433,41.00578260621753,11.427395115674267,46.80031175477215,77.85818281542149,0.30194000000000065,29.389999999999993,1
0.8963744287545063,-0.04798844849439682,-0.21437072206546337,-0.077127566221101,-0.0007005286337820213,0.9759520250237985,33.4611,4.157127354494795,40.92463283253533,11.506514037445275,46.72822493368435,-47.337970708919165,0.30193999999999954,29.39,1
0.8965859451171844,-0.04284053200362466,-0.20661901687464881,0.02206310928522866,-0.001700848749113324,0.9767289956992108,33.461174,3.2672357371697576,40.78050775037157,11.570953170895615,46.788705108977524,-37.284194294849485,0.30194000000000065,29.390000000000004,1
0.9001510287899301,-0.03889113149065976,-0.19612913736885684,0.1264628778515764,-0.00233912075128694,0.9768536287693365,33.463856,1.4494361702972614,40.64841436999302,11.081698073882741,46.84984047284888,8.615015282578868,0.30066000000000087,29.390000000000004,1
0.8985325282530169,-0.03661915428297727,-0.19348578810579234,-0.09272623078578054,-0.0022598604146477417,0.9753825808438652,33.463745,-0.3769983667529338,41.29111525215572,11.43295309635196,46.44018432422455,-0.37463732476868394,0.3006600000000008,29.39000000000003,1
0.9012075052812988,-0.037646598262146135,-0.18851763806761926,-0.06338896299299045,-0.0028705166885732714,0.9746644931908707,33.46633,-1.4969688198752746,40.86817986928485,11.212183719829817,46.430528458994736,-12.148030664282269,0.30066,29.39000000000005,1
0.9007315277036269,-0.03833904595260655,-0.18502563780437786,-0.016414714300560893,-0.001999066885344229,0.9740834374557684,33.466587,-2.0724022356646796,41.175440025952575,11.212433860461994,46.44097085079567,19.08172541828774,0.2993810000000008,29.390000000000015,1
0.9022667199782957,-0.03753965646390188,-0.18284207766729577,0.15056794849150845,-0.0027573315259410607,0.9752821465156868,33.46613,-1.9801370912074157,40.801010943106284,11.096252451110232,46.671628012116514,23.664158088391886,0.30194000000000004,29.349999999999966,1
0.9010666489823973,-0.03584850877516851,-0.1833282650081301,-0.061856241159044936,-0.0021279543346166426,0.9727833740677689,33.465782,-1.6911358564598897,41.21875889146423,11.101576755655817,46.586224922668656,-1.2783119784959822,0.3019399999999999,29.349999999999994,1
0.9017415186861838,-0.03778799690975166,-0.18204069248533267,-0.072476149395874,-0.002235948874315436,0.9731470630528315,33.468285,-1.4151609520715245,40.76263172063761,10.987790344778752,46.605184503054126,-26.543741871834463,0.3019400000000004,29.350000000000016,1
0.9013564558101991,-0.036785586827235504,-0.17938615237350897,-0.04123200735722035,-0.002307498613454569,0.972760264854726,33.468502,-1.2287473045060433,41.255725265688824,11.057945994013199,46.407792114566796,14.101147103241974,0.30194000000000054,29.350000000000037,1
0.9032150917716719,-0.03618291534521428,-0.1760847417788274,0.13734327449481418,-0.0022928710968710083,0.9750569762101354,33.467976,-0.9585417523815507,40.72568869877653,11.108367934814787,46.84198233536272,20.83245499025321,0.3019400000000007,29.370000000000015,1
0.9003081121347493,-0.030867290314360456,-0.1868639869518491,0.02093301452101132,-0.0021728774463425637,0.9732078157752027,33.469925,-0.5785159474176199,41.29345147925889,10.936102217448594,46.723622826429875,5.432532079212979,0.3019400000000001,29.370000000000005,1
0.8995916250067697,-0.03473566231736511,-0.19721766192727552,-0.08927735316797024,-0.0027768844595480935,0.9726771882621355,33.471027,-0.011697666174230705,40.686637984587115,11.0638359702871,47.116728689861596,-26.889812422141286,0.3019400000000004,29.370000000000022,1
0.8943577218443368,-0.03722466108515051,-0.21200026356323032,-0.060558202227370725,-0.0021481687487817096,0.9717744494544982,33.471912,0.7227977444850154,41.33399750708888,10.926766960819558,46.756487468851645,2.391534133443149,0.30321900000000046,29.370000000000005,1
0.8923402723478117,-0.04132002396429943,-0.22574720754055583,0.11741729229018036,-0.0027346564999365256,0.9732335007112699,33.473934,1.9786788290280524,40.64616847516915,11.094334066434058,47.12325608214235,23.53082791395077,0.3032189999999993,29.389999999999983,1
0.889944036646963,-0.03460822049742447,-0.22730251440590665,0.037833571076719245,-0.0015618790613607086,0.9746783330321765,33.47503,3.6224308373236895,41.351253708376696,10.79806080630594,46.842329300397346,9.608311674157617,0.3032190000000002,29.39000000000001,1
0.8900249832904505,-0.023848190730761835,-0.234915122000482,-0.09620639628334254,-0.00223063920600653,0.9736216064544468,33.476086,5.291158088907038,40.055385188236684,10.135124670977342,47.22532282334087,-18.3618133507821,0.29810099999999934,29.390000000000004,1
0.8902991123038185,-0.013161923264318082,-0.23175335437924205,-0.04370423078254823,-0.002082196166669584,0.9737961303437019,33.474648,5.533937536103823,40.43770037787264,9.90057494319367,47.29092005245223,-13.36191847607602,0.3032189999999999,29.390000000000004,1
0.892608040717307,-0.008694462211523368,-0.22628661059952768,0.13808033464830505,-0.0024307306569442836,0.9742955180382583,33.474773,3.846620202327238,39.53155469956021,10.065482786964392,47.70452222832553,24.492368991533326,0.29682200000000014,29.39,1
0.8915733394020492,-0.004775582803431164,-0.22241953326184893,0.0007004467871035924,-0.0024198182314660766,0.9745190690937641,33.47799,1.4706962058793085,40.50392411291248,9.745824082345257,47.07003911893001,12.194545836474097,0.3019399999999991,29.389999999999993,1
0.8940063681790101,-0.008167899575082233,-0.21647302796112786,-0.09230027538250397,-0.002524574413752118,0.9733198151066983,33.477722,-0.6906613927786804,39.50608079945693,10.24365784566124,47.96032510355664,-14.30460386020845,0.2981010000000002,29.390000000000015,1
0.8957826841510856,-0.0107279820855377,-0.20210095415448612,-0.03704183834753251,-0.002861555074636393,0.9750403563680501,33.4791,-2.2402795852899002,40.90367007864742,9.697135853356858,46.4322603044246,-16.11996045311644,0.30194000000000026,29.390000000000004,1
0.8981201480699387,-0.014939474279710827,-0.19503602252711014,0.1245211540606132,-0.001792798107308959,0.974744687149394,33.47865,-2.8560139632289716,39.20693450204214,10.496039734229743,49.43427638710175,18.956225898539724,0.30193999999999954,29.410000000000004,1
0.896550819591891,-0.0027554271463081257,-0.1944985923883723,0.04129126610230245,-0.0022903437820398515,0.9745839764176968,33.47885,-2.795164599218507,37.11108650590386,8.992940564683211,49.93610841642916,5.204431185743042,0.30193999999999976,29.410000000000007,1
0.9014297538930692,-0.0006943717012078049,-0.17348142443591832,-0.09662243532524033,-0.0027962925556884173,0.9754240505641442,33.479435,-2.7233300951884734,33.67308683274504,11.51121361320814,56.444902859213045,-17.276122506267022,0.2993809999999998,29.409999999999968,1
0.9016328058441992,0.012990218380220495,-0.15894703120289494,-0.03359380319258772,-0.002755428631496242,0.9745028506762584,33.48174,-2.8189828910267183,33.56201038398136,16.631642981916222,51.16280406478319,-10.511880639339276,0.29938100000000023,29.40999999999997,1
0.9013256187071907,0.018227049477134327,-0.15754260510348378,0.09114241678756761,-0.0013634745788628653,0.9752281919807898,33.480385,-2.827035205915014,38.96736641836771,13.156077042343188,43.06653774947473,25.912129998851388,0.2981009999999992,29.410000000000007,1
0.9026817646929237,0.020390738345275106,-0.13661831511958505,0.08292304411292688,-0.002373504945209532,0.9763183967223212,33.482323,-2.686845524865962,43.07602424589601,2.7009738256517624,47.41561716227423,-7.803228394417335,0.2993810000000003,29.410000000000014,1
0.9090238891506116,0.023442449839457907,-0.09100707981975285,-0.10699671410086682,-0.0019868917025915008,0.9780141443566769,33.48353,-2.1141374406363727,41.512909798462545,-5.29932345887275,44.401088428360396,-10.618019079759188,0.30066,29.410000000000046,1
0.9108088328064378,0.030165022645839226,-0.02431105197415329,0.027674747123416877,-0.002807141528068532,0.9766556478008218,33.48269,-0.7957466208030743,41.44376163246526,-9.80205162817016,47.34681764773541,3.2117359221276494,0.30065999999999954,29.410000000000018,1
0.9187373739072571,-0.01614822796730634,0.04268084045847657,0.1660116365949567,-0.0016546268607128588,0.9787302014042911,33.486645,1.8018618569674378,35.3149171356191,-14.538009596171765,49.54639438115,43.9579937770545,0.30321900000000035,29.390000000000025,1
0.9172969110954625,-0.013715119492771884,0.03217862820010913,0.07755818244889526,-0.00250630459692293,0.9777429490325151,33.48712,4.637047875468406,37.504758864792464,-13.370573114179127,53.65144566337271,33.668922722434,0.3044980000000006,29.390000000000036,1
0.9134987411182791,-0.01033465613740282,0.004406228098188933,-0.08730323200694928,-0.0038982906021094647,0.976708549032062,33.487926,6.039499931152017,28.108633745055055,-7.4718742044605495,50.1112669651924,-19.964900821387165,0.3044980000000003,29.390000000000025,1
0.9151830390323207,-0.013527049182859746,0.003929502951698602,0.05173879183717931,-0.00221110091025998,0.9753351747937787,33.485348,5.589678102151694,28.215550901953034,-9.124718769418912,57.920484893783126,-30.734309698509946,0.3044980000000002,29.389999999999983,1
0.9181199175485304,-0.02203442678782705,0.021925524821352106,0.06174376008996504,-0.00322926627164824,0.9772719002454677,33.48491,3.8419853850009433,25.128624589964346,-9.906821281823493,52.56288030779422,-5.343026708646787,0.3044980000000004,29.410000000000004,1
0.9141522869358653,-0.009600936414125936,-0.005869867455427532,-0.10880492755074857,-0.0026130128036860856,0.9751438113237036,33.485447,1.8628836920921796,44.03616616682506,-17.75873381638697,59.5236872223268,50.085950016731964,0.307057,29.409999999999997,1
0.9191841009721538,-0.011407907266450894,0.0011385188547215395,-0.12382280073190642,-0.002807304906089676,0.970912818667401,33.484127,-0.5443901842766321,44.799316308610564,5.614573771745592,27.837251355317836,48.6929060110682,0.29810099999999995,29.409999999999993,1
0.9145828156548922,-0.01582862913095754,-0.059553292722793603,0.06265064406358764,-0.00231319994434997,0.9693162231642831,33.486763,-3.3908238380597595,23.735026773675624,33.05923484694306,32.884147914462154,-48.09688921436768,0.3006599999999998,29.40999999999999,1
0.9072973026619734,-0.02537624180231119,-0.1410840029961704,-0.0557513044415211,-0.0024767952881071227,0.968438414515127,33.486477,-4.986461728894085,40.9280823595099,25.251411754332796,58.23687989902441,-62.64330467064223,0.2955429999999997,29.429999999999982,1
0.8963015727226722,-0.031924770532992135,-0.1892591132906991,-0.17446094278071972,-0.002319514399967442,0.9666786055704846,33.486904,-5.787712887006123,26.864458308915424,13.006059672819926,53.590525132538446,-39.44167090897812,0.3006599999999997,29.429999999999982,1
0.8945401818859716,-0.038116462751891844,-0.205989655334652,-0.017651872998093662,-0.002906086348139649,0.967934059295377,33.489162,-5.870672280126517,36.340151439188126,10.503790612697248,53.71010668078749,-2.741302173271358,0.30321899999999974,29.430000000000003,1
0.8989608734523153,-0.05629342652018645,-0.18995612865058928,0.09104830313771055,-0.0021298775654637688,0.9694646069879723,33.48911,-4.0798732037929275,31.710980431104797,10.845640221694595,51.42915047052243,11.56754994289312,0.3006599999999998,29.430000000000017,1
0.9049877628082357,-0.06505100169306169,-0.16727595056830746,-0.08344566492017932,-0.0025435295205668007,0.9717253253725208,33.4887,-0.6048191547888904,40.90392562027754,11.44717438218837,48.88271965284363,31.094712625264975,0.2993809999999996,29.38999999999999,1
0.9031567337835161,-0.09669088990462403,-0.16335783436315562,-0.08304818415994596,-0.0021865844891046557,0.9702727425505043,33.488785,3.1515690005377266,37.210130860889464,12.616299122346224,47.599641430518176,-23.520930118764195,0.29810100000000006,29.389999999999983,1
0.9078348431051066,-0.10091675448671635,-0.14937996772373907,0.1132447011315787,-0.002398985720190092,0.9717393753628693,33.489136,5.543068417571228,40.28563222524293,12.83412042933596,48.37145889042571,-3.568481695033005,0.2981010000000003,29.390000000000025,1
0.9104519268454554,-0.10499080572669679,-0.1281755005254735,0.016887974563839312,-0.0018166883267060686,0.9729032836199524,33.4891,5.995515262023976,37.814285002453445,13.83496424514647,47.133265323038806,22.046000963695644,0.3006599999999994,29.38999999999998,1
0.9083450597586739,-0.1039987720689099,-0.1379298579208495,-0.09939525951441025,-0.00255415006413724,0.9708692536564253,33.49162,4.615451788730216,40.07464227690309,12.9834303596437,48.00771396775885,-24.676875759298373,0.30193999999999965,29.409999999999993,1
0.9087588625506883,-0.09630984706729204,-0.1348406632583559,-0.024487197142521618,-0.0024383364342241806,0.96984794844181,33.491737,2.063145999078777,38.02144195377534,13.609583819323312,47.66336672014018,-17.702590425192987,0.30066,29.40999999999999,1
0.9094209806747824,-0.08443653293091223,-0.13888670421181526,0.1309389127240102,-0.0020910303844781175,0.970980085980638,33.489876,-0.09374325695461898,39.8942549737663,12.552433427789026,47.87917830036325,-8.77087379336819,0.30065999999999987,29.409999999999997,1
0.9089819055112839,-0.083692151253923,-0.13913119259563764,0.021484028617512693,-0.002541910919855016,0.9716684214669568,33.494633,-1.123866830811123,38.200746995929535,12.473230059997451,47.91780013558807,10.14527141258627,0.29810100000000045,29.410000000000004,1
0.907544429817684,-0.05878547821003883,-0.15910161264862108,-0.10322360813868692,-0.002643694201087591,0.9699416750860973,33.494686,-1.6224177720822583,39.92647333284804,10.849848695315567,48.214731741826945,-6.67998289166361,0.30194000000000015,29.429999999999993,1
0.8949233327227392,-0.029592849533296668,-0.1995644661285726,-0.04037556563668414,-0.002966194767663584,0.969642039878554,33.492138,-1.7150688436108086,37.74981191594064,9.734169955934327,48.47763610147024,-1.8556616581092127,0.3006599999999997,29.430000000000007,1
0.8911049288620806,0.00025995492437510653,-0.22479233681304087,0.09685211671205254,-0.0023835470375753263,0.9698318592018254,33.495075,-0.8833899957774817,38.15956039972625,8.231967076777282,49.74759888237729,30.221627620546588,0.3006600000000003,29.430000000000017,1
0.886260119690501,0.025872682858304245,-0.23129710695715142,0.026262606614397437,-0.0024763826435174885,0.9700301283534706,33.494404,0.7181931598333999,36.45974755029923,7.236008827064899,49.95583680770983,12.099166588778997,0.30194,29.430000000000007,1
0.8840318262582237,0.04969175296992199,-0.23931909564609474,-0.11832429763168428,-0.0029889403096849724,0.9710640148442563,33.49459,2.5455548427910353,37.346613529965865,5.817322556453977,50.464557181189534,-22.695172943416452,0.2942629999999998,29.409999999999993,1
0.8839654017185999,0.042510762159782924,-0.2333344685955225,0.06607693064942807,-0.0021219249453743425,0.9703367721222431,33.496773,4.413815822196108,36.01111893897594,6.295532532365888,50.726467375449836,-13.462777090274358,0.2981010000000001,29.410000000000014,1
0.8826313658948365,0.023473382327112415,-0.23828146031206246,0.11328928725005508,-0.0032578279865187985,0.9718822997993906,33.496044,6.172182208291526,37.38618562190002,6.420240712825287,50.3856280288218,33.838045300753826,0.29810100000000067,29.410000000000025,1
0.8897463120159578,0.022294434738313617,-0.2303428275058327,-0.0575134527345822,-0.0024160031913451735,0.9726201225755627,33.498062,6.609931844216615,35.89257657291532,7.321856800178658,50.40559947210671,8.762424029908955,0.2981009999999998,29.410000000000007,1
0.8910458184679183,0.019454010024086386,-0.21775554348228918,-0.07024981522455957,-0.0018645317673085787,0.973480452769727,33.496937,4.629736303785088,37.44605323459136,6.721958141037477,50.25316574338114,-8.774541440403379,0.2981010000000002,29.410000000000004,1
0.8912736971867051,0.019132128786476018,-0.21913103126650793,0.12400333609416152,-0.0032519310151329236,0.9717514454472369,33.496983,1.3763452193500443,36.41121391198511,7.775050484410398,50.18240855346527,-3.7182406845515286,0.2968220000000008,29.410000000000025,1
0.8886130911908764,0.0200355252022289,-0.22570571823948882,0.033076247980604885,-0.004115585599332824,0.9720305622409858,33.49754,-1.777720942264898,37.433564940661086,7.445184706009593,49.94527161144693,25.50573293054306,0.2917040000000001,29.409999999999997,1
0.8915238231300071,0.019211672718054077,-0.22206700616650185,-0.09782294847542776,-0.00285414241741206,0.9717320092129449,33.49872,-4.347766911644889,35.77444563124904,7.954971742497985,50.499759797670514,-4.790928296219552,0.29298400000000074,29.41000000000003,1
0.8908982328679922,0.019051976773845975,-0.2177375231949257,-0.031200438501046982,-0.002364588318074156,0.972188199027928,33.498352,-6.130784396270905,34.89490916505659,7.595733325565762,52.34174327352707,-10.346892951679337,0.2904249999999996,29.429999999999957,1
0.8907949870250442,0.018663138868785203,-0.21792178718791302,0.12210019285166486,-0.0023351671965859133,0.9718941112060788,33.497616,-6.739656896918393,32.355314140801774,8.133949232150064,53.05292842754047,-2.8773281221082563,0.29170400000000013,29.429999999999996,1
0.8924398365922166,0.01628588006023326,-0.21233829203780294,-0.00777962713843311,-0.0022731120112580525,0.9724465470400667,33.500603,-6.273468615039357,32.97842503790299,7.7485292309633405,53.19323122139306,20.094451139606978,0.2917039999999998,29.429999999999996,1
0.8924945326201381,0.018001665830405418,-0.21103283846625212,-0.09767672796343256,-0.0031474781882778716,0.9717780474126884,33.503696,-5.305989401959466,27.596289465793006,7.197874758920715,55.49371556973781,-6.111990019131359,0.29170400000000024,29.430000000000007,1
0.8929069832689948,0.01960780812490535,-0.20861004942479877,0.010956799452902068,-0.0029198365496737122,0.9711173516652762,33.501217,-4.508764790968162,24.095894509195425,6.306164893523505,57.76044491484617,-6.472089360028932,0.2917039999999991,29.430000000000007,1
0.8935400357614631,0.01802125957695385,-0.20679524525036388,0.1260484892851547,-0.002631501417132109,0.9732590656380525,33.500435,-3.7401039097295437,23.913301013626572,7.026827794828042,57.67380148071593,24.1127677998905,0.29170400000000063,29.429999999999957,1
0.891800950352532,0.017368041026306465,-0.21309875501184916,-0.04850689828373301,-0.0019251380959684039,0.9731859792569422,33.501587,-2.6053258753174715,24.32234793863024,6.789646274609235,57.50507867992832,12.667479676313267,0.29298399999999997,29.430000000000025,1
0.8904438289035511,0.021174396327328874,-0.21723599646157712,-0.09123990528996333,-0.0022932206648998603,0.9722121415536499,33.50162,-1.7712912497119484,24.448075088427373,6.504016582466245,57.1478164200651,-9.349303025284087,0.29298400000000024,29.430000000000017,1
0.891592418053651,0.02036387809103479,-0.21406499877395674,0.09381606708743015,-0.002507729757390683,0.9731463297735177,33.502953,-1.3699771163350345,24.82624132990113,6.084412478305647,57.05562207546156,11.754976370887254,0.29170399999999924,29.40999999999999,1
0.8917690467703197,0.020121969995318345,-0.21205330704982334,-0.008257461029144174,-0.003254323280890145,0.9720252048699987,33.502945,-0.7945132246452321,24.575415772642163,6.446034921800254,57.11460505156441,1.987426082035232,0.29042500000000004,29.40999999999997,1
0.8947509303670841,0.01827603201490539,-0.20358328731741032,-0.11048279542470361,-0.0025613646651418526,0.9714122401261398,33.50186,-0.11842090168700109,24.618539482645872,6.5919166537306335,57.03278288812077,-10.637623219924507,0.2917040000000006,29.410000000000036,1
0.8968324815520339,0.021813042295525793,-0.19705491726542698,0.09134288358115848,-0.002613552030325629,0.9728838337678027,33.50351,0.2020461062878153,24.389158941259357,5.8990416191877255,57.13552793438202,-14.02419223618842,0.29170399999999963,29.410000000000007,1
0.898990763100683,0.02004548467031654,-0.18333121284330073,0.015372949215561805,-0.0008158599952671764,0.9724439746739714,33.50188,0.2160527721587641,24.91193784984562,6.561651187773357,57.2744740046008,-1.3479531439083572,0.29170399999999985,29.41000000000003,1
0.8964750469404668,0.001406662443404738,-0.20085674445925625,-0.1031596017198024,-0.0026944856411279133,0.9678796894070064,33.50523,0.022150503029707044,24.511038997848313,6.89684896622962,57.14210612215498,4.642247577638386,0.29042500000000043,29.410000000000053,1
0.8924152789672096,-0.020316577865255193,-0.22425526917853092,0.07431384486602094,-0.002348303834984573,0.9676280635479608,33.504642,-0.6298498235909475,25.131224279466508,7.506008407018453,57.07635618268332,-16.3236293362519,0.2917040000000004,29.410000000000036,1
0.8853345989686205,-0.03060995661543277,-0.2539064914355081,0.037550383499146925,-0.0016835271806260176,0.9674398697234206,33.506523,-1.0828601103136757,24.72050886311772,7.550968689977883,57.15151200576714,-6.657877176482217,0.2904249999999994,29.410000000000004,1
0.8850444373223607,-0.02556409669057377,-0.25691512145002676,-0.11021694071404521,-0.0025600427780869384,0.9692058062798816,33.506405,-1.0287238756473007,24.722106509157577,7.5756690187352715,56.90425445692897,10.177300305104135,0.2891459999999992,29.410000000000036,1
0.8876432750048034,-0.017054763470711633,-0.249766026077352,0.005619263136417411,-0.0032911544250306558,0.9715860877467635,33.509563,-0.5899170630802892,25.005510376154383,7.348529441593917,57.09527793037117,-10.943576564826087,0.29170400000000035,29.409999999999993,1
0.8868245238250664,-0.02237728035299643,-0.2557900487375357,0.11317145846940538,-0.002195105812079519,0.9681548141806214,33.507645,0.7278489446327229,25.862661514321708,6.901121193701338,56.89929463474103,-2.87030321963418,0.28402799999999995,29.410000000000018,1
0.880491350555219,-0.030139797267189506,-0.2618796526175162,-0.0660421385928335,-0.002005845820095049,0.9711641083971129,33.508564,2.719394730274289,25.909898500598093,7.114612753066146,57.10863037611295,4.452498840859722,0.2891459999999991,29.40999999999997,1
0.8808872418115953,-0.02556929162978663,-0.26863167046004605,-0.03665446205460952,-0.0013960649157580584,0.9694935419397486,33.508915,4.671180150651517,26.033360400952315,7.0747723295436655,56.88102075692724,-6.639980807643673,0.28658700000000037,29.390000000000015,1
0.8815364801128336,-0.020605128170055848,-0.26273883956774363,0.11325330999089601,-0.001898903509785492,0.9708315389758084,33.5098,5.82961394662896,25.990565580400748,6.933415202210189,57.134576906233995,-11.691730820111564,0.28786600000000095,29.390000000000004,1
0.8847212003131194,-0.021288178938938924,-0.2611967680114187,-0.03069460515712915,-0.002105636154507951,0.9721016151520073,33.51065,5.287162287328882,26.02977498913414,7.361627360927208,56.817002632351624,10.949526984822237,0.2878660000000006,29.39000000000001,1
0.8869555598181208,-0.020599934747319366,-0.25151421795694756,-0.08449524682447365,-0.0020190716666715733,0.9713297332830728,33.512585,3.52114738457308,26.55021799621611,7.722210899009309,56.75629693661732,-3.019765367653613,0.28914599999999885,29.38999999999999,1
0.8864010774359886,-0.021114098784575593,-0.24808443208839714,0.08407504291394541,-0.0013008112943486852,0.9722664312486132,33.510475,1.1619871222612943,26.673962899927457,8.067733190839686,56.37039532043138,-17.244883997570323,0.28786600000000045,29.390000000000004,1
0.8875115804488527,-0.012600232489660936,-0.237261650285327,0.04819233202246722,-0.002174059887583165,0.9718199489395194,33.513466,-0.6133671395505216,27.144347246142015,7.768224080675731,56.471377719688135,5.753338964754473,0.28914600000000024,29.390000000000004,1
0.8901867099361238,0.009157035204068934,-0.22491438125368016,-0.10583072526476639,-0.0016356012099065602,0.972320221149437,33.51245,-1.2640365116159433,26.776558251220166,7.01501861999394,56.08534599845835,12.935654162383624,0.28786599999999934,29.39000000000002,1
0.8969528012937626,0.03247498031894664,-0.19247185640361453,-0.00852954205567221,-0.0031877100388377918,0.9740738217084293,33.514885,-1.0759801274302552,27.615618797074617,6.9464407538597275,56.42274646657957,-13.590636818670408,0.2878660000000003,29.39000000000001,1
0.9009633889144693,0.02059198145501953,-0.16826452407885012,0.11236349214297933,-0.0035913764467827214,0.9728669550649849,33.51681,-0.3817225341634126,27.896278553284226,7.1558525227645315,55.531542118592796,6.090829714401236,0.29042499999999993,29.39,1
0.8986787733894083,0.023615671001191406,-0.1763956571720695,-0.0368760396336576,-0.0021890589923299814,0.9708491461493244,33.513577,0.15686708453453957,28.38874964961768,7.787766518534302,56.15067019715888,13.428735798952172,0.28658700000000054,29.390000000000015,1
0.8976800530899738,0.024936584038069105,-0.17768500596772197,-0.0967266258281554,-0.0020020640199745103,0.969324636805044,33.513832,0.07666097767763372,27.5351775709322,7.925557272601106,55.75058944332866,-15.204437615662531,0.2878659999999995,29.390000000000004,1
0.8974747472914336,0.02569358041933754,-0.1745322567936147,0.06235254690921722,-0.0020588772367861707,0.9706584188386809,33.515385,-0.36298088274406104,28.62180821806142,7.349315328206335,56.2755211495254,-20.925751928689877,0.28146900000000036,29.390000000000004,1
0.898397563815908,0.021845557567633463,-0.17361715273560874,0.08920914034619855,-0.002816219347481072,0.9720978799333961,33.517216,-0.655464294450842,27.134751941680754,8.00941960823352,55.73377063514115,31.47923794969427,0.2878660000000008,29.389999999999993,1
0.8980576634608769,0.023363311169667257,-0.18494929627342052,-0.09623097194309034,-0.0021110134529939207,0.9709274134623898,33.516647,-0.4566827905441803,29.3232904911844,7.597952116261021,56.098388298429555,17.38454420052917,0.2878659999999994,29.390000000000015,1
0.8952333291350406,0.017958246455950018,-0.1949317091458255,-0.05732268317585596,-0.0018119883845005682,0.9680732438795437,33.517582,0.036157252872376935,26.033290788318848,8.079408547630866,56.08090601527449,-25.276603832316336,0.2878659999999995,29.390000000000015,1
0.8963737370168043,0.024608906873754027,-0.19805418001735411,0.08277086086675883,-0.002326240946425685,0.969472287938214,33.518333,0.9381718612177693,51.936470847856825,3.3536039898129366,37.19006488432614,-6.3538824014702815,0.28914599999999996,29.390000000000025,1
0.8910838074059154,0.03226826047897577,-0.2105047762438179,0.06711753073528012,-0.0021282410834214836,0.9704837744193547,33.518803,2.583327297330409,58.87298117045313,10.244337949863265,-14.77991928436373,23.848797891618034,0.28402800000000106,29.40999999999999,1
0.8819790082384064,0.020643487534287727,-0.23877035478856504,-0.11607415561493246,-0.0027093463562592453,0.967718006061974,33.519066,4.383295997380435,68.36100089347991,17.766870044912075,-5.967358793262843,-4.770702679808502,0.2789099999999996,29.410000000000004,1
0.8825094006296255,0.025938314564701588,-0.23554962394349196,0.03828246238340449,-0.0018311204662665708,0.9709795224821403,33.51971,5.386432932019379,54.488797306053485,10.922675819548214,26.656574559301742,-29.960558809257112,0.2725130000000003,29.410000000000014,1
0.8932355692582656,0.028611935757465047,-0.20151816037434014,0.08687445727377673,-0.0025229003897704297,0.9726882411379633,33.519802,5.375077786564716,32.42667331635903,3.130794107451325,48.12720747574519,-29.7003959050622,0.2853070000000002,29.409999999999982,1
0.90259960754421,0.02297368898731393,-0.16146116766535135,-0.051942894914749016,-0.0028042435808358856,0.9712969697892992,33.52025,4.134206441766222,37.66451188059203,7.607344257589954,53.89455814219945,-13.384301842073336,0.2917040000000004,29.40999999999997,1
0.9111518930375886,-0.020060514662846193,-0.14060798661950982,-0.09979281880786053,-0.0028072142936716887,0.9694846328191506,33.519905,1.281892409163786,37.62689418505536,12.92270970227166,47.21988425400116,26.283551770942022,0.2917039999999999,29.410000000000018,1
0.9099538744722441,-0.04370793105924342,-0.11134510754076465,0.10372531153049364,-0.0026030606570664984,0.9699892547618856,33.518913,-1.9032728185837606,49.044763358286794,13.325537303565346,40.0986419424371,83.6481822713805,0.287866,29.410000000000004,1
0.9097183550952044,-0.06281651236529762,-0.1131015779360056,0.04854922995157314,-0.0026261407396888166,0.9698596564065413,33.52056,-3.6161600057765755,52.695076518420315,15.626591564326706,29.26118654797643,106.07811935930656,0.28658700000000054,29.409999999999993,1
0.9144236690316119,-0.07580792928392627,-0.08004987561129849,-0.08863396340429257,-0.0020985295349850216,0.9690384989495002,33.52203,-4.033011410246294,54.166440131949486,15.757095904449946,31.044771862263968,-25.70920264725576,0.28658700000000065,29.390000000000015,1
0.917243516924458,-0.08377932733247531,-0.05576747085880944,-0.056265934070081104,-0.0014064318306179341,0.9683138918162496,33.519783,-4.0407341522708515,50.94326422078841,17.077058962107095,31.42241999001896,-46.796487408237226,0.28786599999999896,29.390000000000015,1
0.9162513834228606,-0.08517958213811677,-0.047150458846129534,0.08010652101348391,-0.0023297329349489097,0.9682322633076148,33.51896,-3.8276828684427566,51.02470325731217,16.559445872187005,34.71250521200177,24.594022587122538,0.2878660000000009,29.390000000000057,1
0.9186393272971746,-0.07486979783252967,-0.042829076178130136,0.0899583305020249,-0.0028155880558444705,0.968294239374537,33.51994,-3.429085540170545,49.311141304205286,17.435486073944908,33.62132581345523,-13.292400487016259,0.2865870000000007,29.389999999999993,1
0.9164173462463467,-0.07780649395267122,-0.05979843656477394,-0.0980732220640618,-0.0038011100987552587,0.9672232885647591,33.520584,-2.9781243062517126,50.66894621893915,16.141148412052434,35.57427385426758,-60.18440933181217,0.28658699999999937,29.410000000000007,1
0.9160451111689497,-0.07173692595982387,-0.0823057657564788,-0.061467432958496174,-0.0020528275684121152,0.9659351067408863,33.522182,-2.814124321305976,48.592917523143235,15.594342073525748,35.439147722425574,-72.3723584588097,0.2865870000000004,29.409999999999993,1
0.9113126690866472,-0.07509218711585632,-0.10971187327875935,0.025812261318986205,-0.0028634270720543924,0.9646414843893649,33.52149,-3.1733149127065703,49.52090563595066,14.047303204877117,37.735118517919744,-22.31117189572604,0.28658700000000015,29.409999999999997,1
0.9043022782049657,-0.08707924307392283,-0.14214534809699636,0.134801437349202,-0.0022019223456921375,0.9653951631975631,33.522778,-3.001472695715271,47.86891910822838,14.317728473869355,37.45549363779538,7.0132981468186415,0.2853069999999997,29.40999999999998,1
0.9069767527442563,-0.08920326827897081,-0.14803890282433815,-0.05243079035750877,-0.0025228109707685913,0.9661249800629684,33.524883,-1.4848934181560243,49.4746682354613,13.729218492057985,38.39981580348825,8.082866246655339,0.28402799999999934,29.40999999999998,1
0.9060747517882526,-0.0913603407049281,-0.15675491407652808,-0.09365162103426901,-0.002345950651575638,0.9664254724156036,33.525368,0.4071876578897572,48.36788901392237,14.028957907627458,37.394398147532776,-19.1066808920728,0.28402799999999984,29.409999999999982,1
0.9055144390841268,-0.08560229721646351,-0.15651667891323912,0.04240100158073022,-0.00228665998318344,0.9657186455568902,33.521748,1.9337362594498824,49.49969494699652,13.213418505147443,38.389588592834386,29.586570288092673,0.28530700000000087,29.410000000000014,1
0.9029381101077804,-0.09027309554813447,-0.16071862087554536,0.10898342801077632,-0.002723082051320884,0.9663823172719437,33.521626,3.3858180042324895,47.89407274411851,13.699992551361278,37.62175080579231,25.79391872124513,0.28530700000000053,29.410000000000036,1
0.9074141933610268,-0.086367914107124,-0.15404519280426396,-0.08222464270442512,-0.0018169222585391667,0.967484312383192,33.525166,4.103021089642836,49.04425970614852,13.213924408153535,38.35681149344269,14.904976898941433,0.28530699999999926,29.40999999999999,1
0.904736144369387,-0.08338306967218406,-0.15236152534452244,-0.0836774475767582,-0.002323975846004399,0.9684088504389667,33.52068,3.1766938168307597,47.91239715983295,13.410613288022581,37.694603067404884,-24.08168123152792,0.28530700000000025,29.410000000000053,1
0.9085158323533449,-0.07592857294535356,-0.1409310082147034,0.09938163477479536,-0.002347855549320175,0.9655536886795953,33.522533,0.6654744191814511,48.525809823761534,13.064372366492462,38.9419856879173,9.617238390192925,0.28530699999999914,29.40999999999998,1
0.9054114123335623,-0.06468479066327039,-0.13906352183816262,0.049298822963920595,-0.003097983491647917,0.9661498623817139,33.52189,-1.6303702863997946,47.356582918294144,13.17368827872059,38.49387536854909,23.957969799770314,0.28402800000000006,29.410000000000018,1
0.9137359053918029,-0.06323210480738009,-0.11584083573139005,-0.10151219583121499,-0.002907898727466802,0.9672991868021215,33.521957,-2.8453097222916837,48.45882572741668,14.393135196644584,38.52579927041659,1.8241583729560773,0.2853069999999998,29.39000000000002,1
0.914782538432652,-0.10357136008553443,-0.07290316041274028,-0.04388885457439728,-0.002491114674393555,0.9662276804649351,33.52325,-3.1981720353371696,48.25694547691613,16.415904331007496,36.540470359782866,-17.16234033225787,0.2865870000000001,29.389999999999993,1
0.914445784641981,-0.10954848027407266,-0.0545317189632482,0.10787749740082081,-0.0029570984476121817,0.9676197150053684,33.52419,-2.2464906913951657,48.73675985740835,16.777200886460523,37.45998971326318,12.133506117451196,0.2827479999999998,29.390000000000015,1
0.9165807496024104,-0.12288755157665873,-0.02961615688131028,0.043412911622728693,-0.0016756907116314088,0.9677708366185636,33.525505,-0.9803479055045989,46.78553843806901,17.990838394894407,37.54278681079821,13.909080256241491,0.285307,29.390000000000004,1
0.9173965557136126,-0.10902710282910058,-0.0371144423211557,-0.10706485009506336,-0.0021033747396507064,0.9664010564357022,33.521976,-0.14751130048252176,47.570354780871206,17.77863061402857,38.12665899228334,-4.956636579882463,0.2814690000000004,29.410000000000018,1
0.915774628769786,-0.11563885703670443,-0.05664228712507019,-0.033881429484235684,-0.002343464788651467,0.9652614619593047,33.52292,0.34996150641587664,46.40037581335143,18.198684926117423,38.065903274420656,-17.889597799172776,0.2840280000000004,29.409999999999968,1
0.9133341931967403,-0.117085584203914,-0.07458385403729913,0.08295342153962923,-0.0027993292957528403,0.9661207745447796,33.52538,1.1014718288732082,47.33514810904618,17.799225120612395,38.79623165125778,18.60098056043898,0.28274799999999956,29.409999999999997,1
0.9125390913229553,-0.11661066394721137,-0.09650629264182127,0.07619301771282953,-0.0023653363113717504,0.9652799087623642,33.52324,2.561603320058626,45.72065154874314,18.21819326555586,38.90253372778736,15.059600945043643,0.28274799999999933,29.410000000000007,1
0.9081600513240502,-0.11445048497293145,-0.1173690134725967,-0.12196698849895177,-0.0029622818041443386,0.9657592587655859,33.52495,4.384488117394282,46.70886493919737,17.260841809285616,39.27403167535849,-10.835984193067045,0.2827480000000001,29.390000000000047,1
0.9075629317964194,-0.11553272891337997,-0.1242811634161829,-0.011938700648139783,-0.0021386815791193327,0.9638556415614549,33.524857,5.6327253590304265,45.51245859805202,17.12800997027282,38.798290035453086,-12.647134881248535,0.2840280000000006,29.390000000000025,1
0.9084496103550553,-0.10830528768232056,-0.1278132731390352,0.10409815746353429,-0.0030256303076604896,0.9654329465330835,33.5263,5.8143908465650975,46.78582795690196,16.862948718228566,39.247231751454315,25.01352806445429,0.28274799999999967,29.390000000000036,1
0.909952540717909,-0.10491170757585329,-0.12260626408231115,-0.0002746410303609422,-0.002590651042393273,0.9658724824923568,33.526653,4.562559387831996,45.67495520858987,17.124538212332403,38.91373319719371,8.78711677613287,0.28274800000000105,29.390000000000036,1
0.9119193995316751,-0.09898784807086124,-0.11543186683318485,-0.13178220377706013,-0.002312247560256114,0.9666400477237802,33.524475,1.9726176305805072,46.754516005339866,16.400622326048623,39.15596663311306,-10.714998237085167,0.28402799999999934,29.409999999999982,1
0.9114335496639613,-0.09648056326573332,-0.11215465650247312,0.01818966480250208,-0.0026728259960114363,0.9658836900056914,33.52445,-0.8701447957826438,45.79413827531546,16.658684310423716,39.31700933022125,-21.835165177961287,0.28402800000000006,29.40999999999997,1
0.9100994039110135,-0.08791023922591702,-0.11394427406067073,0.11874887491480042,-0.0028931517143742477,0.9663585855549784,33.52524,-2.591716773452665,46.64894951544199,16.02620312337735,39.93804231739503,16.198449155622964,0.2827479999999998,29.409999999999982,1
0.9125890193895755,-0.07663681064394495,-0.1174389474223516,-0.016869620131520456,-0.0017703663658807914,0.9643482221732981,33.5256,-3.109816502820793,45.31933019896066,15.552003993783956,40.78750140560496,5.459352432475006,0.2801899999999996,29.409999999999997,1
0.9103521525291677,-0.0545692117921347,-0.11756826746153935,-0.10882155141115604,-0.0023288194119571956,0.9640631075135477,33.524906,-3.2769007035572355,45.31995883351733,13.925333937020406,42.264163816923556,-14.178927279838113,0.28274800000000067,29.410000000000036,1
0.9078709807875835,-0.023682294343398667,-0.13824467270787413,0.015969633459648795,-0.0019354063603573713,0.9638172412939543,33.52502,-3.3662540841312603,42.93798448914617,12.858624097652093,43.47923614822563,-3.036177371833909,0.2776309999999999,29.410000000000025,1
0.9083550420283971,0.007123443824630202,-0.13046891757071916,0.1150521109497836,-0.002213238372131524,0.965564262921157,33.525208,-3.145260243622794,42.471088721348636,11.330392739188394,45.717685643974505,20.200236295692132,0.28146899999999864,29.40999999999998,1
0.9005022399435427,0.01915185798199902,-0.14923459619173202,-0.03075521228640838,-0.0029959878845165905,0.9656350818767274,33.525963,-2.672898786391151,40.75790070413222,10.26665798889511,46.31068103944869,-2.7444305859782605,0.2827480000000004,29.410000000000007,1
0.8978584865278711,0.015928058982881164,-0.1860060121187094,-0.11432633365527739,-0.002664669047735574,0.9637723446793599,33.528275,-2.168400860637454,40.1970712111709,10.076940120758481,47.95932211208983,-19.97709569248275,0.2814690000000002,29.410000000000007,1
0.8936871115160738,0.02633583103649093,-0.20025582689907578,0.03297639036810382,-0.0021230958373894045,0.9638763734584016,33.52561,-1.549618780975311,38.33237423663517,9.366072840105147,48.37524862975045,-5.8353478727796695,0.2827480000000004,29.410000000000007,1
0.8879600306612716,0.058796727677204084,-0.21090249681513465,0.12077963324762098,-0.0030269707340803468,0.9663163709215837,33.526196,0.22762078351844808,37.858157471356165,8.274466752518155,49.90325110790193,28.812371273999293,0.28402800000000006,29.410000000000025,1
0.8840204303735048,0.0536930664909106,-0.22314462980692362,-0.010040885902472794,-0.001939113600326795,0.964690742150488,33.526466,3.040264936861363,35.88157079553878,8.158724089275202,50.52919043237652,-4.066797866387314,0.285307,29.410000000000014,1
0.8853672937218993,0.04776319801231818,-0.23043869124679567,-0.11723877310572105,-0.003106104084232155,0.9664252570215441,33.53023,5.718613362080509,36.535074094696455,8.3448814349728,50.37357173703692,-19.179764337980046,0.28530700000000003,29.429999999999982,1
0.8865754679583704,0.03990140882216208,-0.2191882984683235,0.09297072945582727,-0.0031753345589648845,0.9646922747397149,33.527763,6.860003580402789,36.56409161585083,9.23074679975558,49.851921391909244,-6.4392417626957,0.28530699999999964,29.42999999999998,1
0.8922539446717114,0.02709612472586689,-0.21295598059371265,0.0398394542867616,-0.0022237125838420993,0.9658126180274662,33.528442,5.808811534624222,36.58502692720985,9.843587839918438,50.527951561027756,18.67918265003249,0.28146900000000097,29.430000000000007,1
0.8947259603857887,0.03171069722841177,-0.19494427499695385,-0.08785913631630153,-0.0026674007843664922,0.9650317595434807,33.526287,3.2331826746255703,36.40942208981761,10.146437673752146,49.792988001737484,4.183259361930682,0.2840279999999998,29.429999999999986,1
0.8968005002383864,0.03585369015685062,-0.18358006496058596,-0.069132262913501,-0.002481671075516006,0.9654455974231673,33.527065,0.07571702345947329,37.28005608776812,9.82251961409418,50.16541354433491,-0.8926367754170362,0.2840280000000002,29.410000000000004,1
0.8955845522975174,0.03945673316896036,-0.17697872587743782,0.1437846127340566,-0.002310999209055176,0.9667044833588243,33.528942,-2.4308475532527507,36.897857701583405,10.505422403998466,49.37321952188604,-5.934669372435679,0.28530699999999964,29.410000000000018,1
0.8981446188678478,0.037638526637740026,-0.17176214965328673,-0.001843091011752924,-0.002175314313416073,0.9652041618642798,33.527103,-3.6751568387113056,37.92237048168825,10.405262385948044,49.7043603730398,1.617181932621471,0.2840279999999998,29.410000000000004,1
0.8983198324804008,0.03812148028359922,-0.16627994242450858,-0.07686232821942458,-0.0022173808531208246,0.9653543684619592,33.52766,-3.8768559163561065,36.91250318364906,10.636006493970484,49.42378564505248,-21.62501595441706,0.2853069999999995,29.410000000000007,1
0.8991112839763958,0.0419729452529913,-0.1617370941363642,-0.05005676970188759,-0.0027570532436101158,0.965358351020813,33.528477,-3.7020241949203285,37.508874577461334,10.18727087656226,49.71759108776423,4.761531219121906,0.2840279999999998,29.430000000000003,1
0.8991955862478491,0.03978516282227929,-0.15731826941739008,0.11181002625429688,-0.0019166274484942313,0.9651684845825887,33.530525,-3.365929492253492,36.66070536214156,10.142174140579952,49.444137605649125,17.11269552946524,0.28530700000000025,29.430000000000003,1
0.8998522110046776,0.042129100945864716,-0.15433784862506078,0.05764263679336147,-0.0017615393330826855,0.9650838305493109,33.53138,-2.7987956061381616,37.63232485274929,10.338447781263332,49.725685721746295,4.939181045823119,0.2865869999999998,29.429999999999993,1
0.8997492074424039,0.04088735952906327,-0.15721175714341343,-0.09359389998274185,-0.0025490499898021576,0.9645067110263429,33.529793,-2.1361594308602325,36.729751956957706,10.56788658614831,49.42033041589659,-25.57884657847739,0.2840279999999997,29.430000000000003,1
0.8989083719874308,0.04061892570981005,-0.1679211686016049,-0.06768823367053232,-0.0025379714790671436,0.9644895927859357,33.52797,-1.6109372455070035,37.39900929871378,10.559514854879522,50.05664240366942,-3.7728669822373457,0.28402799999999984,29.430000000000035,1
0.8957576428342955,0.037703441907707455,-0.18304116698876352,0.07158087081896562,-0.0025266251272828737,0.9640600018779306,33.53105,-0.9858717121758551,36.56630284284718,10.062041038894689,49.40104669311362,11.339482693813926,0.2814690000000005,29.430000000000003,1
0.8932902790788129,0.038103394358436564,-0.19880932145142127,0.09538849493415771,-0.0021595667195677824,0.9657822559716089,33.532104,0.22428547991305053,37.51586552893376,10.092888038330459,50.0471299965305,9.870995738330794,0.284028,29.43000000000004,1
0.888893679742041,0.0345605945799574,-0.21762824681809528,-0.08551878463405202,-0.002504604389477039,0.9636941175855976,33.530952,2.1253572495283737,36.790688731690445,9.96417464934512,49.75412653947491,-15.841850385895189,0.2840279999999996,29.430000000000007,1
0.8874684085551361,0.03529898891694297,-0.22139078802900533,-0.06505511974370719,-0.0033787544983466164,0.963196536140175,33.532455,3.7253497410299756,37.34751333643103,10.026244428218755,50.22245895626505,-14.01892584493058,0.2827479999999999,29.410000000000014,1
0.8898651274750685,0.030674238033940177,-0.20956112757024756,0.10827164270027373,-0.003272805559167132,0.9651055649093642,33.531864,4.4102009116399765,36.805565153775184,9.968998396020014,49.74222570530162,13.255516768614237,0.2853070000000006,29.410000000000004,1
0.8916240119066658,0.03006627091792783,-0.20972666942959084,0.0429631258357868,-0.001963888841852633,0.9661151116059258,33.532097,4.278118346829282,37.487562159058115,10.073353180312902,50.003103180879464,14.468123160519308,0.2776310000000004,29.409999999999997,1
0.8923354412258022,0.036210799256003165,-0.20154547074911208,-0.11499656712270473,-0.00244736206904752,0.9644002142702347,33.533253,3.1338024208691206,36.66099621488097,10.224868152158697,49.802624072060716,-8.703621623016517,0.2827479999999995,29.410000000000004,1
0.894716806992024,0.03217784682010588,-0.19703987094513073,-0.04001886896839484,-0.0024295982381775105,0.9651189967780492,33.53548,0.8419322964283973,37.60979035682636,10.212284235594646,50.07341546007471,-15.678765104316437,0.2840280000000007,29.430000000000035,1
0.8943271669321238,0.03584612130710747,-0.18804026924240483,0.12124283433258864,-0.0021381370672474563,0.9658238428765406,33.534397,-1.3576143557871467,36.66228881727389,10.457314796245049,49.42047355939865,8.301275884837139,0.2840279999999988,29.42999999999997,1
0.8975184197706971,0.03713214177033655,-0.17490537378230847,-0.005302902055631099,-0.002572640423013046,0.9659305550552824,33.53453,-2.5927700459788317,37.441730825426916,10.329502786188796,50.17144753816829,16.466003199532764,0.28402799999999967,29.429999999999996,1
0.8980250387013596,0.03746680885389515,-0.16870151179521276,-0.09410386458313309,-0.0023388122326445902,0.9646852927952599,33.534943,-3.032398717143389,36.65774046177448,10.286894578933289,49.62344503205118,-16.34774806096439,0.282748,29.430000000000025,1
0.897651995927536,0.038704925245321174,-0.16860244759436485,-0.01815703896314449,-0.0028593975158070464,0.9644327203664252,33.53413,-3.1017759281012305,37.476711383530926,10.283137435369456,49.97934759194454,-3.1489482784802494,0.2801900000000004,29.410000000000014,1
0.8990165714950451,0.03922801688550671,-0.16669502646020457,0.11418310481855092,-0.00235207170215267,0.9659905320882645,33.536846,-2.798800320354138,36.821671402387935,10.772512436521463,49.281095373472944,10.994971755631298,0.28274800000000083,29.410000000000014,1
0.8980407627168745,0.03539106191382102,-0.1742704500613857,0.008222343368725753,-0.0019444494960171182,0.9654972303290696,33.538563,-2.1136291007171017,38.256947417105614,10.901468195254449,49.3753350323767,9.476868407868904,0.28146900000000075,29.410000000000025,1
0.8938730729388733,0.036618769837243305,-0.19059704545922415,-0.11708207523593199,-0.002626100185279626,0.9636058706761178,33.537273,-0.8573891435340383,37.38644418665882,11.08154009362465,48.95554822005934,-26.21013548137061,0.2827479999999988,29.410000000000007,1
0.8909930512241689,0.036655097716431766,-0.19976273100309686,0.02675856328048097,-0.002981442543541263,0.9629333244235774,33.542225,0.9337678875340136,38.15924847273145,10.867793677073603,49.33757141793012,-3.5527460384971197,0.28274800000000055,29.390000000000015,1
0.8922256051804864,0.032913616387786664,-0.19790304988321517,0.11998790847188871,-0.003060838062475789,0.9652793895349193,33.539726,3.0652283695514537,37.28079550617401,10.700835937687648,48.83421632109494,13.103989021616544,0.28402800000000056,29.390000000000015,1
0.8942441953378049,0.03619290265772264,-0.19412466965588973,-0.018539238026223065,-0.002280352925350672,0.9646620868417619,33.53956,4.328497525416444,38.97333058476675,11.019706539235356,49.00754338016479,13.458181620193724,0.2827479999999994,29.390000000000015,1
0.896024762795288,0.036217378832568196,-0.1860971900754247,-0.11263299716691019,-0.0026263563661717564,0.9647320945853,33.542442,3.502230867553446,37.389748070867775,10.990589072470563,48.62720045806486,6.086815294894051,0.2814690000000004,29.390000000000004,1
0.8973226909257682,0.03741342669191515,-0.17748923913924408,0.06365448140726462,-0.002465681517372718,0.9649971015501962,33.541977,1.188895740410766,38.92402676879576,11.009646314829741,49.013662611715404,0.6848031431498471,0.28274800000000083,29.410000000000007,1
0.8982099062551642,0.03913390497635265,-0.16846900717023766,0.08579650642396965,-0.002200189453146643,0.9647635519792985,33.54343,-1.0144265842292621,37.57261636142682,10.986031041857672,48.487263744706475,-7.283569079557334,0.2827480000000008,29.41000000000005,1
0.8985002681455349,0.0386399107754975,-0.16432051164319356,-0.0796542244273063,-0.0026666415232119794,0.9635576838424603,33.54055,-2.1802062346231077,38.75684977777192,11.021440289295969,49.163472423342746,-1.0295879388029412,0.2789099999999992,29.409999999999997,1
0.8997843036104388,0.03902984507256614,-0.15795465678152007,-0.07247735155313614,-0.0025371580933261154,0.9655341450432192,33.5429,-2.500212221044878,37.52300394255525,10.966936529505878,48.459216343313436,-17.277233527277993,0.28019000000000105,29.410000000000025,1
0.8998717935195212,0.04028610781242456,-0.15477053514625497,0.04368046135291176,-0.002045603490988701,0.9630642425110625,33.543663,-2.5261144464250482,38.623176441696074,11.053580680523504,49.19607849219756,1.7536594736271163,0.28146900000000075,29.429999999999996,1
0.9002754855450312,0.040218193902265116,-0.1507711642453076,0.11474019679040731,-0.0021986276769745306,0.9629944950185038,33.54369,-2.346994462384393,37.537202679706105,10.878185996288451,48.45389893065586,20.766550483150784,0.2827480000000002,29.430000000000014,1
0.9010048986264815,0.04003973778885017,-0.14989180016271517,-0.07972496144451052,-0.0023110464006645555,0.9622440579648431,33.54352,-1.9632680223225394,39.28646012398186,11.007638457484132,48.64978860671757,-1.8551399092113212,0.28146900000000036,29.429999999999996,1
0.9010973041818672,0.04119441302664938,-0.15082215350203457,-0.07036438217747416,-0.0025561660525336345,0.9636036782996819,33.54784,-1.5228850067821131,37.86743980562884,11.16934835964326,48.42631728893935,-27.369387436966953,0.2814690000000008,29.430000000000035,1
0.8993557193987527,0.03944097892885185,-0.16015835941482012,0.000834093292645907,-0.002531395679057558,0.9627682715912924,33.54584,-1.181421955660617,38.03213058074737,11.26860110928018,50.09966292522359,13.566069995726622,0.2827480000000006,29.430000000000017,1
0.8968782098517574,0.037982848388301946,-0.17297108274075276,0.13310742238378928,-0.0025852781948349133,0.9615486646088431,33.546825,-0.6055120649461134,33.172127844037966,10.634575651406958,50.958762136489796,12.031780920674619,0.2840279999999998,29.430000000000003,1
0.8951190032799873,0.039017993622595726,-0.18466412041196334,-0.04721764000300806,-0.0024701864735113786,0.9622450122469087,33.549313,0.49275777290331185,34.21653551568018,10.444825815011685,52.460480415882635,-4.501385353696041,0.2891460000000012,29.430000000000028,1
0.8936273308694742,0.03660371616917125,-0.19427814516996164,-0.09387514068662713,-0.002268957126113017,0.961131725544876,33.546486,2.045804475377937,33.278826935112875,11.056807568280421,51.65400051462647,-5.033547370468156,0.290425,29.430000000000014,1
0.8915993506535157,0.03454518724281897,-0.200444311180481,0.01910650185895705,-0.0026747279402258126,0.9641903470226272,33.547794,3.4242242514253367,35.25895551040842,11.07113422439747,51.968258171990264,129.20599454192018,0.28786599999999957,29.429999999999993,1
0.8927413970514091,0.03547063279195379,-0.19628427640758433,0.13356914355356755,-0.002998227466120033,0.9618070090428653,33.54764,4.357246714786427,33.96141359601571,10.613242379224747,50.59231257366562,-8.410509583637364,0.2878659999999999,29.430000000000007,1
0.8951381590230992,0.035759109336606344,-0.18964056480647812,-0.04589454590380574,-0.0022507073928796227,0.9644555815229828,33.548874,4.214472209570667,35.448089051701444,10.914022877780146,52.631666674327384,-47.63109399621692,0.2853069999999996,29.42999999999998,1
0.8958720912302219,0.03168647360838484,-0.18046701890994266,-0.09327582135774766,-0.0021101598667058576,0.9621309673371959,33.552032,2.577665331398623,26.809333253352765,9.833557400040629,53.76642403068618,-82.10361088530223,0.2878660000000005,29.430000000000003,1
0.8994530138226974,0.037509701638901674,-0.16526411849832062,0.042137579686102856,-0.0031218647116320235,0.9636066632747459,33.55347,0.03511619799913681,21.803275518067494,7.824429200513403,59.03781948268942,-33.241920032870006,0.2853070000000005,29.449999999999985,1
0.9010487327705614,0.04009026893224109,-0.15096167346546832,0.10548084568890857,-0.0029650033213915704,0.9631136384050941,33.55115,-1.6944422058389637,25.16732763874797,7.103105681898618,57.25484066523269,5.351162318855432,0.2878659999999996,29.450000000000003,1
0.9008804695752849,0.034906158516014384,-0.15106983915728972,-0.08541519333723205,-0.00264594601608587,0.962906392762856,33.551388,-2.3612097754767722,32.05854610101559,8.024487959339876,54.4353633269457,86.01819271170315,0.28530700000000037,29.450000000000017,1
0.9017954408670604,0.038397044519704035,-0.14450799549940188,-0.06928436501360614,-0.0028162863297876775,0.9631923601518017,33.551807,-2.5754622686134527,27.872921610699347,7.785874244265474,54.96747884934334,-18.647620097149648,0.2827479999999995,29.44999999999998,1
0.9019890878419926,0.042086811921813266,-0.1414873991067782,0.06185725304167004,-0.0026257695919691916,0.9627316637926691,33.552757,-2.7285828361998794,33.0152553244079,7.712343938751337,54.86765396230603,-78.74178630492023,0.2827480000000004,29.47000000000002,1
0.9020755570677519,0.03713620909352882,-0.1390196855817614,0.10030728547801587,-0.0022515958615079565,0.961778652662292,33.551056,-2.5447394714017326,25.232097224517585,7.1602106168476904,55.545043198653474,23.069873229776025,0.28146899999999914,29.46999999999998,1
0.9015502483940522,0.041691433566056424,-0.14958241924021223,-0.11336643789245804,-0.0025528625579449796,0.9618398215558964,33.55359,-2.0449095334134246,44.88404507886678,7.926771171467082,53.60869840478248,-11.038603128563402,0.2827480000000002,29.46999999999998,1
0.9002988851123186,0.04307228613320836,-0.1595648913611386,-0.05873022372343031,-0.002211397763884251,0.9595680526784901,33.554264,-1.2689541715212451,55.763601310096774,25.176477096547647,23.302871997674174,-19.483289067339634,0.2814690000000006,29.47000000000002,1
0.8955770548745697,0.04083102343216335,-0.1725334568098244,0.08954387189331285,-0.003092383114475317,0.9591151854035103,33.555283,-0.24606710147578525,34.55420952927764,38.94821073618789,14.162906270131701,10.553900633488585,0.27635100000000007,29.429999999999986,1
0.8948445596812121,0.041188019893495374,-0.18481731838507023,0.0815356476675063,-0.002514140525774223,0.9605066224778528,33.554466,1.4441701032151188,47.38708441598859,42.739946802143194,15.911337911820105,18.198658347496753,0.27251300000000017,29.430000000000025,1
0.8919203640360129,0.03860471993849327,-0.19359584758246212,-0.1400118507772864,-0.002075400033986623,0.9608363958513108,33.554935,3.234364090591975,44.14116593013401,41.33555590491028,15.225702704712695,-57.88237451417559,0.2776309999999998,29.430000000000014,1
0.8943363416239283,0.04041810294478095,-0.1913813181474271,0.03021297830202822,-0.002392298940877995,0.9606920348654835,33.55737,4.190443329659972,45.38960264051466,42.342308406522044,13.885809819434247,-92.11800828271625,0.27635100000000024,29.430000000000014,1
0.8931265400915944,0.03885184543132414,-0.18911271823050024,0.08256922924934551,-0.0019901000286262583,0.9617125140075198,33.557384,4.068318338430724,44.661105359908966,41.78342864198702,18.05576242614435,28.96113603758558,0.27763099999999963,29.430000000000003,1
0.8986023371878571,0.04233536125071496,-0.18457646743771375,-0.05290589468863957,-0.0028193168892190826,0.9592001382071085,33.556053,3.0392079998049004,40.509522104985535,38.09803287180351,21.469522432989958,72.22251739461393,0.2725130000000009,29.430000000000042,1
0.8906415678605707,0.04157388403788874,-0.19368970503957947,-0.12824515249859958,-0.002693008158223832,0.9589703638265151,33.557632,1.310290015760896,40.26310829149923,25.86574499751421,40.409678195545105,55.459305253323315,0.2776310000000005,29.430000000000007,1
0.8946657512279533,0.04629496475215756,-0.17066733002447648,0.14347336302314506,-0.002850092215148781,0.9622305208566327,33.55893,0.5774380063939207,41.705480951586814,12.438294551833707,54.54057120030507,-5.533905617720552,0.28402799999999984,29.430000000000014,1
0.9015669937045537,0.045657500057298434,-0.15755349733417284,0.03886768403826306,-0.0023980200900893924,0.9630155469909473,33.560562,1.7154002035570208,37.815852543478066,12.155056898857632,47.869759257185024,37.69955983233113,0.28402800000000034,29.450000000000017,1
0.8967757401666812,0.03950090626248677,-0.16788783489979534,-0.07222259076605875,-0.0023491101634337407,0.9598756933815487,33.559147,1.3045967029657817,40.01079931762334,10.913982992934281,49.56689301031885,49.80336970877477,0.2853069999999998,29.450000000000014,1
0.8982906209296766,0.047519407111441724,-0.1650457850611084,-0.07842591679051818,-0.0030535622280217774,0.9612202785623991,33.560177,-1.2639403650155467,37.30012944425629,10.9777775422599,48.16306832231506,72.113674204106,0.2763510000000007,29.449999999999996,1
0.8995499723505632,0.04407680138160297,-0.1525957299421516,0.12190579199261287,-0.002488347317339375,0.9609439217192731,33.559406,-3.211171572960048,38.731246530377504,10.271459253276024,49.366717771753656,-5.781472520537174,0.2814690000000005,29.449999999999992,1
0.8997923469418276,0.04602710961392941,-0.15425678455477831,0.043496747972150564,-0.0025786350924314632,0.9607501455124384,33.563854,-3.700713478581346,37.191937162743976,9.871589273378827,48.96567470291235,-107.20067422305594,0.2814690000000002,29.450000000000014,1
0.8989571019892113,0.04724087948328318,-0.15489147300545877,-0.08671860699924491,-0.0030026652306070377,0.9595378184037856,33.559887,-3.5573406642193093,38.023277254187065,10.112478331239668,49.897725441714606,-43.4703605185511,0.2827480000000001,29.450000000000017,1
0.9005201405478633,0.04841064553033679,-0.15041783389282964,-0.05754197815854776,-0.0023343098618329363,0.9607725301035659,33.563408,-3.2853459144659563,36.66637609387711,9.86708813140893,49.18958367235431,-6.664838335625082,0.2840280000000005,29.449999999999996,1
0.8986893258449103,0.04910480655523927,-0.15046789632424232,0.06161802998417374,-0.00279967738893213,0.9600558422691138,33.564365,-2.8085191322721483,37.44206194286862,9.930877714144737,50.01567282461064,29.313465069235495,0.28274799999999956,29.450000000000014,1
0.8989401274692222,0.04874698480895978,-0.15905972897955659,0.11824232946983393,-0.0020315177621445953,0.9615913430967865,33.564777,-2.2411104286712242,35.80074337232729,9.612285338344858,50.213928084042784,15.80768537002355,0.28402800000000095,29.430000000000053,1
0.8962729837685481,0.04673996485389873,-0.1714741838556852,-0.0676039083858679,-0.0025604010259230358,0.9613452469955566,33.566525,-1.5559559048356837,36.522542564320155,9.42459316731816,50.63391879356039,-8.324068906707568,0.28402800000000067,29.429999999999996,1
0.8967897551600664,0.04565974374496109,-0.1778022128967115,-0.08959596141027332,-0.0026980693970153316,0.9607513047899894,33.565475,-0.6310627877100167,34.75119221089652,8.843101332059765,51.32767321132766,-23.70274184684097,0.2840279999999994,29.430000000000035,1
0.8933605420822293,0.042482857267239875,-0.19101165330065348,0.03097195667305037,-0.0021673839619314903,0.9620071552262248,33.56775,0.543225500922236,34.61357567050794,9.050361654263835,52.49543243462622,25.974824819750012,0.2853070000000006,29.429999999999993,1
0.890636818166934,0.04212813079713579,-0.20087892412582803,0.12226125614144157,-0.002240613056993266,0.9630939615082005,33.567394,2.2335629298302577,30.66981187211935,8.11226197490603,53.90587007844251,8.984315909562156,0.2878659999999997,29.430000000000014,1
0.8912518883572549,0.03720091864316429,-0.20046322605386396,-0.0426448984071852,-0.002372631823414663,0.9625016281688258,33.567577,3.7964389093167665,28.729030986865908,8.155536389934184,55.47752922381756,0.7444190492359511,0.2891459999999997,29.429999999999996,1
0.8919985873706444,0.04102109257397665,-0.2016652598087708,-0.09817912511511033,-0.002290666925959977,0.9628338584710346,33.567837,4.587384319440525,27.97999814872107,7.897397246036949,55.51022778969801,-29.140925387045588,0.29042499999999905,29.429999999999968,1
0.8941536178190649,0.039553918504631774,-0.19220506881981883,0.05963201875590304,-0.0026942817821996954,0.9636206999716667,33.569603,4.0013145913652926,28.507394481658277,7.821549006805401,55.67947088481397,21.39347238277866,0.28786599999999984,29.430000000000017,1
0.8950046988718722,0.04449358742016236,-0.18141069774566015,0.08239972916024153,-0.002422724242582436,0.96426887917171,33.56928,2.093900416302844,28.35214068435466,8.036038459265734,55.2766554857231,58.526598630159725,0.29170399999999985,29.40999999999999,1
0.8963982949634921,0.042122586436532626,-0.17744038213732788,-0.09400335836674852,-0.0026080736821793094,0.9635724773654236,33.571762,-0.1924355906804634,28.64214265644379,8.12513837229669,55.97132960931997,-8.946598251493652,0.2929840000000001,29.41000000000004,1
0.897181912378919,0.04743729679935505,-0.1707682677457935,-0.06289655461748174,-0.002692299870341247,0.964126453756574,33.568417,-1.7839820247033624,29.08083797454281,7.872678117236157,54.80408744435462,-10.928321152765285,0.2904250000000002,29.410000000000046,1
0.8975777850117616,0.03838629448579246,-0.16374523822672404,0.10373050676253777,-0.0026258554392676846,0.9632515187038813,33.573517,-2.663208949916803,30.127576583088594,8.505115804307938,54.9697011307052,-24.18959946211536,0.2917039999999999,29.410000000000036,1
0.9021803216231068,0.030112285582419806,-0.15134032868484726,0.027645285797619146,-0.0027992743504374825,0.962861967767316,33.57224,-2.9389402620350653,29.861596926597514,8.600233311076682,54.56371574883078,-5.649365739997643,0.28530699999999987,29.410000000000004,1
0.9014518107489768,0.04325635573340895,-0.14177493378475728,-0.11439239161293213,-0.002247248427415707,0.9625935253450367,33.571587,-2.8053684874833884,30.127713999668565,8.71774326171639,55.09658993964586,5.547050331182056,0.2904250000000004,29.41000000000004,1
0.9029705023041822,0.03736689550429436,-0.1403118034917312,0.0038226771874133713,-0.0021457377164688326,0.9627847261982094,33.57255,-2.537058908070174,29.878568216383837,8.925596837165706,54.623569342365926,-3.676984479050313,0.2904250000000005,29.410000000000007,1
0.9018191200890239,0.039615181465360326,-0.1434690769009817,0.1107601638357899,-0.0020818147204375264,0.9631396835931813,33.572163,-2.1032155454523918,30.161570752528714,8.822335505499145,54.634902886431306,3.3122241035489184,0.29042500000000054,29.410000000000018,1
0.9009964909077698,0.031063386895910015,-0.1597183598614374,-0.05079002139894681,-0.0024924721912128927,0.9615250000230549,33.574608,-1.3778279664087179,30.51150842869069,9.004235805495103,54.34697509859057,-0.7378103375389155,0.29042500000000004,29.410000000000014,1
0.8975230894011681,0.03611834487839575,-0.17544733107191388,-0.08832008600260632,-0.0034913175993746787,0.9608921258498148,33.575333,-0.4040175034151639,31.13146035160801,9.101178912231425,54.1001187772623,-13.741937751650562,0.29042499999999943,29.410000000000007,1
0.8959896334457145,0.03472679016270911,-0.18850354543156264,0.08659034494610432,-0.002526669446062228,0.960698625644224,33.576862,1.1324078523692174,30.89413287523023,8.918597140655509,53.901023697746275,-6.694438568263587,0.28786600000000023,29.410000000000014,1
0.8901553229475104,0.033877518857455415,-0.2066221367438786,0.05407311289638102,-0.0023425296443665925,0.9606841191513005,33.575882,3.212725361501324,31.088485790827214,9.07326017763412,54.09712377214559,3.5177013566314077,0.290425,29.40999999999997,1
0.8874459375655589,0.02880330133908318,-0.21764175017618442,-0.10940008916731324,-0.0027978433898546385,0.9613112004563293,33.577557,5.180374757116737,31.00257622269794,8.931218886418895,53.90444217640744,-3.181588755540431,0.28914599999999985,29.430000000000007,1
0.8894322033931286,0.03261405059491155,-0.21509007059754456,0.046590311286554026,-0.002047257458309073,0.96276223830712,33.577797,6.174901395264127,31.153065673686434,9.066325151364387,54.09458364559738,-18.70303441200014,0.28914600000000035,29.430000000000014,1
0.8929132376614668,0.03002809570120313,-0.20376437031352948,0.07551490880441478,-0.002891678909976794,0.964514512956943,33.5766,5.663973961700212,30.85393008836993,8.934320497361046,53.905664827160116,0.7198270934993043,0.289146,29.430000000000028,1
0.8942110211086342,0.0315586963581268,-0.19780995568942042,-0.09574799177752258,-0.0025807570661990293,0.9636392414675228,33.579334,3.7603499709390014,31.682819835250616,9.06770752927592,54.094925208433644,10.99102551012514,0.2891460000000002,29.429999999999986,1
0.8944177571005277,0.030389568410943018,-0.1958456211522616,-0.026248711170074605,-0.002235266598237855,0.9635276655204681,33.576603,1.1053667073979143,31.385584012616377,8.923655027581493,53.90353807546934,-12.21467804447381,0.28914600000000007,29.409999999999997,1
0.8938844847473614,0.0338680490273951,-0.19357314973655163,0.11449949710240645,-0.0026038087528702956,0.9632131927553569,33.578285,-1.2812396936571382,31.337514623599947,9.127356087815128,54.09889767258939,-11.532512150598333,0.2827479999999998,29.410000000000025,1
0.8954076772482307,0.031546006679345796,-0.19027932288385857,-0.0377773941099524,-0.0024272287308176937,0.961870672007725,33.582172,-2.7756500072141614,31.248218714402576,9.046602340038008,53.89923825743708,21.96788063238222,0.2878660000000004,29.409999999999993,1
0.8953281718846745,0.033647087930817186,-0.18734500232189158,-0.08669291075650887,-0.0023076801954720443,0.9615687439744272,33.58054,-3.46695558702507,31.750774693369767,9.388624259132614,54.079481500681,-4.492027046119868,0.2891459999999996,29.40999999999996,1
0.8960365039761894,0.03248660046745121,-0.18484005590959826,0.03339873929412199,-0.002623988621970529,0.9612687224676573,33.58338,-3.591048587063083,31.963611339581682,9.255761312886152,53.43734957669212,-13.635459440730598,0.28786599999999923,29.410000000000014,1
0.8959252407284323,0.033992830428367635,-0.18271992299045509,0.11272506091577615,-0.0023728856825703305,0.9614535547451399,33.582283,-3.279573279908944,32.17607627547926,9.269955277320767,53.28604360403256,9.246559693430996,0.2878660000000005,29.410000000000018,1
0.8965590830252588,0.03387340945273101,-0.18016209424603963,-0.08046886310434295,-0.0026333957807729963,0.9609033716816701,33.58135,-2.6662820310871895,33.62708628080489,9.328667214140332,52.422734875578726,9.144525537999677,0.28274799999999994,29.410000000000018,1
0.8973366144229727,0.03464895133772194,-0.17582882074430975,-0.05523786377175674,-0.002524674564821387,0.9610484540558515,33.582752,-2.1514948210940905,33.94973896305053,8.973814850773586,52.435162028980095,-17.3610962239492,0.28914599999999946,29.410000000000036,1
0.8978039154007198,0.0345510345880739,-0.17325396610020108,0.017030159859347443,-0.003206816060333718,0.9606749227129988,33.582054,-1.79219932768546,34.03207759981236,9.123963574656717,52.39461608723022,2.3821637203379558,0.2891460000000003,29.430000000000017,1
0.8976927238232676,0.034720874818484335,-0.17273847352812866,0.1417053479285579,-0.002530478745083272,0.9636002735803886,33.58356,-1.440320968565532,33.97068446823321,9.16810411070205,52.09455353631848,12.845434647665007,0.28786600000000023,29.430000000000042,1
0.8983464685862333,0.03363534960288876,-0.17494344481788643,-0.07600565094303792,-0.0031129149937976055,0.9621127471643613,33.585125,-1.0844552152242288,33.87902808600743,8.981258492075003,52.69391473081621,-13.369199489759389,0.28914600000000046,29.430000000000007,1
0.8970325502780256,0.03418358707456897,-0.17980841800576514,-0.060998311329803274,-0.0030088826707212416,0.9613550549257117,33.58396,-0.5981067258059638,33.22665207530344,8.996264912398267,52.88336675441684,-27.247445988542747,0.28914600000000035,29.430000000000028,1
0.895971130424169,0.03246642298020609,-0.1841022934655524,-0.025989197823197755,-0.002342719189009528,0.9608947586387246,33.585163,-0.07116664331680929,32.95722625837901,9.02316143296426,53.00763780576368,18.81650746454054,0.28786599999999973,29.409999999999997,1
0.8948160557628813,0.03408002610726122,-0.19085923392714255,0.1448475602358343,-0.002482668348571839,0.9629695908212784,33.585567,0.733034104677284,33.022438416787466,8.931513731780772,53.01395152368821,23.493741892373382,0.2917040000000004,29.409999999999997,1
0.8925496978265595,0.03234726514946251,-0.20345528554079192,-0.015367454687007136,-0.0027908787358570646,0.960183303843455,33.586086,1.9626124381508072,32.81467857038838,8.920776450577456,52.97337076301874,1.8746387488028362,0.2929839999999995,29.409999999999997,1
0.889504936156369,0.03214429533232538,-0.21224613401350756,-0.08974040956535737,-0.0031426980615086183,0.9607170917860401,33.58507,3.172384258214516,32.94396948819882,8.998013558785185,53.03569608476815,-19.35955577241767,0.29298400000000013,29.410000000000018,1
0.8906921439447338,0.032025243940892734,-0.20646731709216024,-0.02336054253301559,-0.0025645534024276396,0.9606277055320064,33.586666,3.841657544696886,32.88558583059216,9.024416585636843,52.95834176235024,25.297880072236765,0.28914599999999957,29.409999999999982,1
0.8930836553059656,0.0322730702960835,-0.20173388075977775,0.1408679675083519,-0.0022632877524324515,0.9619991682433805,33.586586,3.7747688035032025,32.729985237191485,8.958653134776352,53.04143428358076,21.277731090803634,0.2904250000000014,29.410000000000014,1
0.8943793488057468,0.03326002702054486,-0.19526498495509645,-0.04912296405217554,-0.002095093198399838,0.9608001388915092,33.58801,2.5475995062714927,32.51109101887587,9.053208706674164,52.98064877447255,7.960987003564733,0.28658700000000015,29.409999999999982,1
0.8947817980244209,0.03404077472624505,-0.19013771106634403,-0.08182708880020552,-0.0025673136286925094,0.9608680457377669,33.587997,0.7093957782909273,33.854383012001875,9.101277288065363,52.37921091557239,-21.570655360644015,0.28914600000000024,29.410000000000025,1
0.8956925478502521,0.03256559938429263,-0.18452784970655375,-0.015466630701019559,-0.0030723331207110557,0.9608156254262948,33.589092,-0.9362422552194557,34.21698936974456,9.332731139243672,51.509537958202735,-12.469142528667499,0.28786600000000057,29.390000000000015,1
0.8962340133339187,0.03462135966062309,-0.1823326264004722,0.1467092507656699,-0.0024873235954867515,0.9607860379985129,33.589973,-1.9185305263017367,34.09447673458495,9.199013080084653,52.47454087956476,19.17688581044068,0.2891460000000008,29.390000000000015,1
0.8960176892477663,0.032548781980230174,-0.17945108175312816,-0.04686363016572892,-0.0024926139571752703,0.9599263236427417,33.59064,-1.9623785163248302,33.56440053629316,9.760138824359828,51.94911899472491,-4.142061560281622,0.287866,29.390000000000004,1
0.8980459095723349,0.028607247071966994,-0.17583629609932128,-0.07472744418094725,-0.002631383289617644,0.9592695442081384,33.589638,-1.6764222556559418,35.10667077362368,6.899458215359514,54.375202351673096,-33.76209401456221,0.2865870000000007,29.390000000000004,1
0.9021759553869028,0.04216624870113302,-0.15265708809972375,-0.04250000918128787,-0.0021903823775968707,0.9604258451006854,33.59074,-1.5790842891093713,49.95097309681981,5.573215019190936,36.423756911987525,4.4211320262238045,0.2878660000000002,29.410000000000007,1
0.8994785536627602,0.039288948478722226,-0.15849222832088958,0.1486877711625037,-0.0020832759825211563,0.9613827137432039,33.591217,-1.5527831837462405,59.81879002526918,11.771358682418967,-0.3410591384239528,36.04280700150384,0.2814690000000009,29.410000000000025,1
0.8985319156179479,0.015700188535446278,-0.1771318629574399,-0.0010939748985602058,-0.0031720063184144396,0.9607383351581054,33.59011,-1.6145773498241536,69.69155926704504,10.413479840227845,-7.09519789644854,-7.749097974283539,0.27123399999999964,29.410000000000018,1
0.8977727352061725,0.010441706349037757,-0.18828455898041788,-0.09381934975484439,-0.0027022525794313185,0.9602528789965954,33.592606,-1.7379128296115203,55.10283816154358,10.224323638001993,28.1698915335818,-6.940562346512236,0.266116,29.40999999999998,1
0.9000147043841873,0.00036555352916300857,-0.17209500029786592,-0.01813994089508823,-0.0026619600099435387,0.9616783636612434,33.59527,-1.5615832923085593,34.27728053415485,12.377829145909889,46.83278249054089,42.823435408091875,0.27379300000000106,29.410000000000018,1
0.9065663030418887,-0.02773021187588154,-0.150424046364555,0.1342032638255005,-0.002751830301089542,0.961345311792586,33.591568,-0.0045344127485857965,34.1435405859943,12.052683543062244,50.56953424669607,-4.4616548257978,0.27763100000000007,29.410000000000007,1
0.9100134915651578,-0.0505087829682596,-0.1427096597901444,-0.05705251583678313,-0.002711337005838637,0.9604664455702463,33.59312,2.64055736690707,37.588561586511105,13.583595908325382,50.40517391411123,-103.67345633962788,0.28530700000000025,29.409999999999982,1
0.9020006930325133,-0.08087519665616481,-0.15134697588228221,-0.07352107852995506,-0.0024983590087747282,0.9605453979706949,33.59495,5.10625258612253,40.65978931284728,15.497916857366652,47.67863531511148,46.10903045435294,0.28530700000000087,29.410000000000018,1
0.9034599251044801,-0.0961535566060546,-0.15626045963377122,0.08968998480655543,-0.002257582121422889,0.9614031277048398,33.59775,6.49726001181854,35.98552177361654,14.912903082045542,48.6112369542337,113.9116752714268,0.2853070000000005,29.390000000000015,1
0.9066296662761479,-0.10130751743245264,-0.13155710484235786,0.052571369395250464,-0.0025249980851320174,0.9619657289819105,33.596924,6.388262580908265,47.498261801453204,17.05299242230269,38.382570521585805,26.036860280558546,0.2878659999999998,29.390000000000025,1
0.91310261099065,-0.10445484335467849,-0.10009580115238736,-0.13769043252956875,-0.0024635084274513253,0.9611798636857334,33.598618,4.220823966582178,51.232676553487906,16.258174207749594,32.61677158254699,-68.81879248371906,0.2827479999999997,29.390000000000015,1
0.9157231416852658,-0.1028156242563717,-0.08227948797144416,0.015913731946358565,-0.0022056935565926243,0.9606320735655502,33.5977,1.0542259313224613,49.8028997426888,18.797024320596304,34.772797793464555,-39.601736859563715,0.2827479999999996,29.38999999999999,1
0.914329230678045,-0.10804294005222637,-0.06546483759771507,0.0900796399383838,-0.0023821191389477693,0.9611737995498988,33.59823,-1.6432381318280656,48.24051252177771,18.112386591203766,35.39697112577664,31.09665778862619,0.28402800000000084,29.390000000000004,1
0.9148347806050614,-0.11029695052629665,-0.05526478546821388,-0.05671367021250841,-0.0028088997626290074,0.9584584568597292,33.596004,-3.0529092341343342,48.32087948806036,19.754876749507023,35.719237724102065,10.97701424116532,0.2827479999999998,29.389999999999993,1
0.9155118776469828,-0.12456077939069085,-0.04221177019573087,-0.08872057091725288,-0.002630721744631099,0.9601691660006931,33.601162,-3.710471795430962,47.34949595578852,19.591362370624175,37.053289788260116,-5.613199870604248,0.2814690000000005,29.390000000000004,1
0.9140283256023105,-0.12661791428317357,-0.03324633232614321,0.06671526000854955,-0.0025976019483464523,0.9591082840178377,33.601357,-3.753637376643035,46.17612856522037,20.73280241256109,38.46318337896266,-58.54855695715818,0.2827479999999998,29.390000000000004,1
0.9155261930036979,-0.13728873284764667,-0.02547845642149546,0.08641205622436998,-0.0022391131377644626,0.9584915353106006,33.600307,-3.4420350526144388,44.893974207548034,20.32068655516845,39.37132027806986,-60.786402918634,0.28274799999999994,29.370000000000005,1
0.9132006893189563,-0.15357143023357145,-0.031242036319764504,-0.06954578028985815,-0.002725406814816497,0.9568969626805334,33.601227,-3.0187028592271075,44.77244386677281,21.280892589448342,39.47585944387303,-18.36921643988106,0.28402800000000034,29.370000000000026,1
0.9134581392578485,-0.1430057280908245,-0.034424929583696647,-0.07356420190780433,-0.002648026854182565,0.9582187076404125,33.601444,-3.094321001318579,44.90714943074591,20.727473607646793,39.234935514487496,-22.79343361184487,0.28274800000000005,29.370000000000015,1
0.9120367115921878,-0.14051708667666557,-0.05479879548840964,0.052951813694820535,-0.0022253862623707503,0.9559312713360907,33.60132,-2.9267776258941662,45.14874533892131,21.038183449410834,38.76580520964537,20.73662321750694,0.28402800000000106,29.370000000000022,1
0.912626144492319,-0.14339791581920533,-0.06346416288555184,0.11477582590215055,-0.00277103632280294,0.9573592818545551,33.600914,-1.8456941657970902,45.102718210021834,20.639583377251057,38.84780829869677,38.84437078716531,0.2814689999999997,29.390000000000004,1
0.9118056064062359,-0.14689506256299464,-0.06943271598660611,-0.0662241678573025,-0.002744219142690005,0.956203408094293,33.606056,0.054426050354611975,44.97394163175504,21.00914288275349,38.75817595835274,1.0124924775099948,0.2814690000000002,29.389999999999983,1
0.912330761261899,-0.14589245402875256,-0.0677764358146075,-0.07983277434506629,-0.0027668916558195884,0.9560048594783921,33.604824,2.251525162941583,45.153944135411194,20.72015791776071,38.98180288335162,-32.626764647255115,0.2827479999999991,29.38999999999998,1
0.910486092428101,-0.148559782050459,-0.07660943198044667,0.04779952274075064,-0.0023858147576405328,0.9577773286691205,33.60426,3.933573390326126,44.96042593960464,21.047921735523442,38.818038591110316,17.725399527880633,0.28146900000000086,29.39000000000003,1
0.9108012523998916,-0.14660850354250565,-0.07414434172535257,0.12192825366400703,-0.002478698918318019,0.9582418667757658,33.603912,4.598172339863214,45.02677358988864,20.870528780222365,39.07300479355542,30.357063176686975,0.282748,29.390000000000004,1
0.9110515233406496,-0.15040830880516745,-0.06579229130186787,-0.07853059944868798,-0.0027374063857953735,0.9579180662921529,33.605278,3.943691383407845,44.988551384453984,21.137140793909314,38.818422887997414,9.837765354096286,0.2789100000000006,29.39000000000003,1
0.9126296964364268,-0.15217489460410147,-0.05114928521189508,-0.07273461109695793,-0.0025783276517431265,0.9582284228775154,33.605644,2.106064560026072,44.934123736652076,20.85389611626852,38.83332409780214,-27.165875361682094,0.28146900000000047,29.39000000000003,1
0.9142145305072138,-0.1502053103192211,-0.03136836136294808,0.015557688924489003,-0.0022757448775581352,0.958756144599306,33.60536,-0.026730137165908007,45.01485170264951,21.10896726209659,38.99617811458016,14.163166562328438,0.2814689999999994,29.389999999999983,1
0.9134831692317167,-0.15057148825723726,-0.02834775689045344,0.14176395949688025,-0.002167200663280713,0.9583929364144118,33.606003,-1.600367356570577,45.09669728382572,20.918560776053898,38.900254461648174,29.130758597378016,0.2814690000000005,29.370000000000026,1
0.9122061600107273,-0.1447328727239787,-0.037550541347807324,-0.0650527785098299,-0.0024301513452763316,0.9579936204321807,33.609722,-2.359814726697119,44.79291742796419,21.100359049165185,39.102232736494194,5.5708656044193665,0.2814689999999996,29.370000000000022,1
0.9134757329465206,-0.14083604137210426,-0.037866822674007025,-0.07276637995506959,-0.00248511928192323,0.957810728564996,33.603806,-2.582616925430937,44.627985005105735,20.896250953710155,39.420450590030654,-25.04993829442261,0.28146900000000064,29.370000000000015,1
0.9132190481668764,-0.14659762872335821,-0.03031501039587048,-0.02711894108353032,-0.0022705969742973842,0.957068326075067,33.60681,-2.5372071425286244,44.73092223201464,21.1041206183848,39.56081490610075,18.559295522687414,0.28146900000000064,29.370000000000015,1
0.9142214255821055,-0.14612657133566156,-0.021209191702090416,0.142486656627452,-0.002381117311360048,0.955665785766892,33.60709,-2.196623882423476,44.9715220537824,20.896543510541917,39.196659953210876,24.327746607000034,0.2814690000000003,29.390000000000004,1
0.9142244269981573,-0.14515101686931758,-0.030243212081867213,-0.022161283770321942,-0.0026753285831145404,0.9574481402763028,33.60708,-1.6289622553349428,44.381224246588786,21.10235771474199,39.59181566596557,5.165639017178812,0.28402800000000017,29.390000000000015,1
0.9148628327540601,-0.1441325401350713,-0.02057979468995687,-0.09070214571130078,-0.002713118662317619,0.957055192542987,33.610397,-1.0017338152059405,44.2871531439744,20.8989352277828,39.97972048380556,-32.36529632966872,0.28146900000000025,29.389999999999972,1
0.9114440470993246,-0.1480109551287802,-0.04446526237901078,-0.05528452404635384,-0.0024809965946875766,0.9553158217788612,33.609577,-0.23444395906363963,43.95177576833518,21.099689715979917,39.97457528849227,1.8712612019208448,0.28146900000000014,29.39000000000002,1
0.9117521702398749,-0.15163530179024542,-0.06052410466372861,0.13946784423119046,-0.002862190770832867,0.9563111600261457,33.61089,1.1028536895916268,44.04685206428021,20.901710314837395,40.02848492056297,28.60583931481724,0.27763100000000035,29.390000000000015,1
0.910826174120168,-0.1519418348345776,-0.06449642379216178,0.012635514222037694,-0.0022066816266838574,0.9557521281933982,33.612,2.438821216747125,43.956985772490455,21.096895354984948,39.97041747908589,12.085146612961434,0.28274800000000083,29.38999999999999,1
0.9103933137255126,-0.15212236844966895,-0.07053016334748019,-0.08406242452878711,-0.0020330900949838845,0.95571732382782,33.61015,3.540752920963158,44.03317343302922,20.90447644893607,40.0304091896144,-20.878025824141016,0.28019000000000044,29.38999999999999,1
0.9106175896719968,-0.15260466703093237,-0.06635565088568696,-0.053788348926372666,-0.0025287679801861596,0.9565976420824581,33.612198,4.064152690928139,44.019074055975885,21.094183416206338,39.96883475324164,-11.907616794793457,0.2801900000000004,29.390000000000015,1
0.9127325840605489,-0.15202224771052944,-0.06103420913107552,0.12792610134754875,-0.0024347926835218622,0.9573862159725125,33.61116,3.518732987724254,44.14090676010226,20.907120346766305,40.03188511750083,23.661697446085885,0.2801900000000001,29.350000000000023,1
0.9118175362800707,-0.152804929457893,-0.058834535595683406,0.04734486170790009,-0.0031157764218833375,0.9573872369953508,33.613575,2.0515298847993613,43.911303320076655,21.091614327903073,39.96741953663763,8.561285047687804,0.2814690000000003,29.349999999999984,1
0.9119623691342577,-0.15299606073570485,-0.06030413892776214,-0.09067699908915901,-0.0026488083118735117,0.9558961052164956,33.613678,0.45535835352120996,44.07894019947998,20.909612084605406,40.03326217984588,-14.876677791313913,0.27891000000000016,29.350000000000023,1
0.9124844278523293,-0.15284741445922767,-0.0558688490991766,-0.0683684829645328,-0.002453717748287582,0.9566037215199577,33.613907,-0.9807232700295859,43.924743019560566,21.089199928333947,39.966055120368566,-16.540443562216755,0.27890999999999955,29.349999999999977,1
0.9126283025765269,-0.15243895545950298,-0.05434567242550965,0.06598768122389731,-0.0029090419103725493,0.9569174730263403,33.61293,-1.793226202431158,44.07360387402241,20.91195069658781,40.034649347862086,20.70588731730999,0.28019000000000005,29.39,1
0.911621811374884,-0.15241712022642556,-0.05270727625635994,0.10791253702378568,-0.002656856180991532,0.9579010064457997,33.61423,-2.076452774779065,43.92712182179319,21.0869346438977,39.96459351660922,6.502062994633651,0.2801899999999999,29.39,1
0.9123302844566111,-0.15148760448948045,-0.05325289979524887,-0.08579722184531755,-0.0025147528194728926,0.9567745866687434,33.615055,-2.0189339081327176,44.072656287524865,20.91414562632613,40.036265199155146,-13.363085264880542,0.2789099999999994,29.389999999999983,1
0.9119088460350846,-0.15086370579872277,-0.05117685110421865,-0.07598781164516989,-0.0027252491629894586,0.954403581601802,33.61591,-1.947382690485987,43.92725859106293,21.08480683569881,39.96269071977177,-24.50782183810702,0.2776310000000016,29.390000000000057,1
0.9130261419639877,-0.15144476257960146,-0.048023312007463285,0.007210184004583076,-0.002580682138290137,0.9551780461907806,33.615196,-1.8739610263510056,44.073030554435455,20.91620964510111,40.038696791501444,24.27775521654101,0.27891000000000116,29.390000000000025,1
0.91243982192451,-0.15126983407594538,-0.04775461584040596,0.13999375526634156,-0.001995605604120927,0.9569586052632121,33.614952,-1.6343724023892428,43.926534416417155,21.08280327796797,39.95923413318369,7.107072307760635,0.27890999999999994,29.390000000000015,1
0.9120833525029292,-0.15182968000206903,-0.05275577956336428,-0.03380690334024203,-0.002593860461823594,0.95630015295131,33.614468,-1.1222113749907265,44.074012296164796,20.9181560019954,40.04438489099436,0.06892529384977332,0.2789099999999992,29.390000000000004,1
0.9120714436832192,-0.15181098152559716,-0.05688424997983246,-0.09088768898421548,-0.0026037449845033203,0.955665776851348,33.61459,-0.5528532949846026,43.92534945814671,21.08091096912266,39.94739673918896,-34.79977050367381,0.28019000000000016,29.390000000000057,1
0.9121918988459435,-0.15269529105479082,-0.06038388431014437,-0.03591511004027901,-0.0023824267196820336,0.9548182319051816,33.61213,-0.04995841645892429,44.075369230879986,20.919997285591922,40.0881882314496,16.042090975378194,0.28019,29.370000000000026,1
0.9114607434597086,-0.15326446754351825,-0.06478435220371125,0.136393756851753,-0.0026851476165559106,0.955798621195999,33.616714,0.9127300030480897,43.923836221248,21.079117829462326,40.06956500535914,12.544160323373667,0.2827480000000005,29.370000000000015,1
0.9107944767160376,-0.154007054477033,-0.07309116312821717,0.0052807768751465395,-0.002977798856390831,0.9554479572032422,33.61554,2.197817297217731,44.07703491854199,20.921745016961587,40.00035402589772,9.030281763263448,0.28018999999999994,29.370000000000005,1
0.9103281207046028,-0.15461926885658342,-0.084645804741442,-0.10250449478456797,-0.0030871071475260074,0.9539494398772428,33.61643,3.284723250618477,43.922011570170085,21.077412915785846,39.99054265792842,-31.012282584999653,0.28146900000000075,29.370000000000015,1
0.9087450350437908,-0.15716291584909006,-0.08430227603985796,-0.021157485014431956,-0.0025669105734936193,0.9555654880288201,33.62032,3.862578331961884,44.079035664896956,20.923409562204434,40.010356571585845,-0.20353659890822698,0.28018999999999916,29.390000000000004,1
0.9087962138200842,-0.1574828596603875,-0.0836289165028096,0.13770231931261628,-0.0028201350007862796,0.9556718304140651,33.61831,4.1186667668308345,43.919804984640535,21.07578642541516,39.9954338218315,17.537162291571118,0.28019000000000055,29.390000000000015,1
0.9108416839993546,-0.15666348289945703,-0.07666439728617817,-0.020058362674355415,-0.0027464076013940415,0.9559738685739869,33.61818,3.449274096279485,44.081494814211815,20.925000182346064,40.21262401422886,12.235994134804962,0.27763100000000007,29.39000000000001,1
0.9106598700864565,-0.155000626354406,-0.07523513557966877,-0.09549752999167849,-0.0021393226179737385,0.9552621754373414,33.61834,1.7712638552658082,43.917021128119465,21.074229612394536,40.2354026213992,-22.28066183760765,0.2801900000000005,29.39,1
0.9111236695836419,-0.1567578453626684,-0.0728054877252798,-0.0014213563298378197,-0.0027876012890415704,0.9553499529164784,33.619175,-0.49939039566682586,44.08471763082828,20.92652513744459,40.34228709704603,-8.416533274845612,0.2801899999999995,29.370000000000015,1
0.9107819727029037,-0.15459259808360576,-0.07193934639495655,0.13741951556608292,-0.002541140944339456,0.9549446126658556,33.61755,-2.3018405857821658,43.91316656798908,21.072734672300655,40.025041953533105,14.410779149331905,0.28018999999999983,29.370000000000047,1
0.9115626096825531,-0.15332392054943514,-0.06889537713110404,-0.04869641797841051,-0.002598749363864033,0.955406642086634,33.61924,-3.1878291456748835,44.08956980919293,20.927991806643853,40.35701198873154,7.619638772122795,0.2789100000000003,29.37000000000004,1
