chest_ACC_1,chest_ACC_2,chest_ACC_3,chest_ECG_1,chest_EMG_1,chest_EDA_1,chest_TEMP_1,chest_RESP_1,wrist_ACC_1,wrist_ACC_2,wrist_ACC_3,wrist_BVP_1,wrist_EDA_1,wrist_TEMP_1,label
0.7868910758618368,-0.403345953395914,-0.3722872181342839,0.06558513037923099,-0.002354383273156051,5.549975306364466,32.555862,2.7636941662543064,-57.81701865895093,-27.81347436213835,-12.860608052495058,6.523885392570523,2.082985,33.40999999999999,1
0.7846881281160334,-0.40689082895922624,-0.369796989604105,-0.028395247154814313,-0.0035887728396843516,5.553596503293803,32.55805,3.7664241014887785,-56.760372514468685,-28.177427487896797,-13.417299293932818,23.09769278670945,2.0701910000000003,33.41,1
0.7782790470008354,-0.403130237076862,-0.38054986384347605,-0.0012164873247594939,-0.003243266689657698,5.549469748748818,32.56128,5.915671694020254,-57.72649912191039,-27.686330658912524,-12.894253204347507,-14.653994346671828,2.079147,33.41,1
0.7686246361294341,-0.402594506552461,-0.41117421061947773,0.07395329249628033,-0.004223704010583091,5.546530753784187,32.563248,7.9618017990218775,-56.73000589145366,-28.05540319947979,-13.514579264887615,-42.58292426972614,2.076588,33.41,1
0.7656710664994802,-0.36740259957612287,-0.4398056147820609,-0.03389390428940352,-0.0029607599476192278,5.542272776967282,32.564697,7.824943832753706,-58.12273200673512,-27.642796574450436,-12.240035845807737,0.6474020711352366,2.070191,33.42999999999998,1
0.757367099764505,-0.361398152184596,-0.463719873541079,0.04045290702722807,-0.0030108327136718254,5.537416074310194,32.57056,4.5835227141600905,-57.539431515996085,-28.402254274448584,-11.044680780653175,20.77549517643644,2.0753079999999997,33.429999999999986,1
0.7688239835926416,-0.36913654623039677,-0.43078948466976424,-0.007402041795031086,-0.003691642312684168,5.538154427955466,32.569485,1.5227152884058217,-58.02424595724924,-27.97094861348714,-9.984014664377174,-23.62133387051674,2.070191,33.42999999999998,1
0.795197157254883,-0.3979845409053851,-0.34627774644275233,-0.05675044924818659,-0.0033936782347614904,5.54209472617174,32.574398,-0.4790849389424952,-57.60708964666874,-28.590542182299245,-9.73019810419931,3.470777531641454,2.0791470000000003,33.42999999999999,1
0.8172489950494165,-0.4142906593779264,-0.2729899065491772,0.05107905073017934,-0.004083784552118765,5.54139841263537,32.576633,0.2830719702961874,-57.88453664796273,-28.07535956331609,-8.639632058279927,-15.26519400157292,2.0753080000000006,33.40999999999999,1
0.8227734583059035,-0.4153891274123341,-0.25116549016022904,-0.0012287964941675405,-0.004136580280992216,5.544800703157732,32.579685,1.785997308632276,-57.870384774861236,-28.10766319592024,-10.25149176914294,-24.08092690515805,2.0804260000000006,33.41,1
0.8295938277418151,-0.3989517401097772,-0.2623342221482675,-0.03601841400442213,-0.0029610366938607312,5.541470053159426,32.577995,2.5476754707657174,-58.29864590578198,-27.862411520212238,-8.621215378962289,16.911203868578205,2.0829850000000003,33.41,1
0.8049061366244267,-0.3921519815016159,-0.31948540486383725,0.04764846324338057,-0.0017923339612023947,5.540943012023199,32.582424,2.474258532811071,-58.13962827835725,-28.285460283648,-8.677000400545358,4.508247001275081,2.0829850000000003,33.41,1
0.8127066482787341,-0.39456384393175775,-0.31200500265170866,-0.07056580024040665,-0.002744242829020592,5.5414419538107245,32.582844,2.493826512813859,-57.917963156422175,-28.082633768357738,-7.6500263194010225,-30.858744895562918,2.0842639999999997,33.41,1
0.7988509291456409,-0.3803365149244618,-0.3509101443259206,-0.005385186149530547,-0.003890399562470383,5.5389367402030585,32.586678,4.422447238225741,-58.405284346103876,-28.189061320709556,-8.675373312298468,12.776798702502946,2.0791470000000003,33.410000000000004,1
0.8010628282135807,-0.3699160296840623,-0.3666514151879137,0.09931067038939043,-0.003740285929702642,5.536896232634429,32.58696,7.517598897473139,-57.54589461280737,-27.92964373220121,-6.69320614445351,2.348469862803167,2.0817050000000004,33.410000000000004,1
0.7783286408324722,-0.3573904099811155,-0.42108068538808996,-0.027172547524474077,-0.002958639619291112,5.534587309783902,32.59055,8.610607966243114,-59.45202881817838,-28.05880584762747,-7.992345639657607,-15.213290231610538,2.0663519999999997,33.41,1
0.7705839896275785,-0.33986683254578953,-0.467140525585167,0.05874224177613927,-0.004363334976706417,5.5322437146726875,32.590782,6.349080845154285,-56.60828114973311,-27.60778696805085,0.23079403882263475,26.32316030666164,2.0778669999999995,33.43,1
0.7227589776053867,-0.21297259684477118,-0.5670891953978078,0.023573699191489206,-0.003912621647576414,5.546103788337119,32.596676,2.036076498613599,-65.75546697899125,-26.651042457565914,-8.999384542921565,8.993048275785203,2.0804260000000006,33.42999999999999,1
0.7172370229106239,-0.06067650676585722,-0.5998547655274499,-0.0883622154134803,-0.0038789192587867184,5.558839639266589,32.597805,-1.3241940843561444,-41.62889205143953,-24.76451847171637,29.698127561647322,-20.038608240576394,2.0727490000000004,33.42999999999999,1
0.6438171674009702,0.0670041437955887,-0.7097086884057892,0.030857982459321694,-0.0038988206785038316,5.565597944973133,32.599693,-3.197203826079484,-32.69746958790236,-18.185398782790287,59.02723687326409,62.157607019957034,2.0753080000000006,33.42999999999999,1
0.7250808247475674,0.053658412472725,-0.5712077221709954,0.005844249368378008,-0.0033655804243589533,5.577927832980709,32.60368,-2.7037312777606872,-47.63640342497665,-29.540215273762357,27.71382076664876,-1.9362744183407286,2.1559110000000006,33.40999999999999,1
0.5804207418569318,0.1309002348151568,-0.7263461160853594,-0.1221365742856875,-0.0037077592805470185,5.587881052461899,32.60626,-1.4701137234855837,-52.37628733354013,-35.26691035662601,8.72030731021742,-22.87765617762306,2.1635870000000006,33.41,1
0.5102640162666326,0.06886784334232056,-0.8080409595615564,-0.026685335077384232,-0.0033833617911433766,5.589063405742921,32.607796,-0.8894323431901648,-35.87981730771827,-45.048491037664206,19.490880637262197,51.63736180666287,2.0714700000000015,33.40999999999999,1
0.5003004733702663,0.0002840339477544907,-0.7933398125243667,-0.06639825418944519,-0.003696947281899992,5.58344112194794,32.611736,-0.1259432522868172,-41.00979800589316,-42.060057330040685,24.863824510270046,8.871909981725151,2.0714699999999993,33.410000000000004,1
0.4444767041923206,-0.04035159355246064,-0.8578655859115525,-0.006119573711773509,-0.0038963839209802263,5.574143748375971,32.615643,2.1275666485409475,-46.087049680996834,-42.04401771547141,-1.6564982494698746,37.68864236536813,2.0753080000000006,33.42999999999998,1
0.40751270720253596,-0.036823552456556774,-0.8652184563987533,0.10309948509457627,-0.003380898155376828,5.5763323306813275,32.61665,7.1411839204629475,-50.876607534739215,-40.27295701564533,-5.978433416122767,-95.67480956164226,2.0548379999999993,33.429999999999986,1
0.46859073710502425,0.011533623104212869,-0.8377943076729072,-0.07489256458081407,-0.00329047875182111,5.572059091555745,32.618683,13.724411263298299,-56.373369466008064,-39.06756121625905,-9.106759138232283,-10.677232451848509,2.0650730000000004,33.42999999999998,1
0.47047416569998224,0.02030185484630122,-0.827917655863171,0.08479391467125787,-0.004283515418666683,5.570036309261325,32.622707,19.095278745125825,-47.55134237713564,-41.10329520271172,-3.2168404852434196,23.859646522188548,2.340145,33.429999999999986,1
0.45558345908909686,-0.0029349646634314512,-0.8504756201696887,-0.013990588815263882,-0.003327811559770291,5.569833674586379,32.622803,20.056129998200362,-44.90020294842342,-44.91493944655628,-0.7866735409590779,73.7581936731023,2.146955,33.40999999999999,1
0.47010896674399827,0.008546900729771835,-0.8257522394826354,0.030497058097791963,-0.0028570043064050994,5.564355717708554,32.62481,16.145484307832923,-40.41667812301891,-48.54441189477374,-0.09221308541310061,-298.59330856352057,2.182778,33.40999999999998,1
0.4648122349126579,0.027350690027300464,-0.848942361262375,0.07371103072335398,-0.003907461113851101,5.5665612419047745,32.625313,8.790930262935262,-46.16322426077132,-45.40387075942246,-4.525019939612562,85.64691296699607,2.1418370000000007,33.40999999999998,1
0.4650623662809597,0.016443406953032563,-0.8261698084237283,-0.06346818522905157,-0.0037471123292921963,5.563678833170257,32.627922,0.849514691061446,-45.462345117215065,-45.16317788803293,-3.5463827942987574,100.41997532489187,2.070191,33.41,1
0.4648630235030731,0.03149818912674472,-0.8501323363615263,0.06402874633530478,-0.004131853009850732,5.561888057951349,32.631786,-6.097217129306143,-48.71190205928799,-43.41823797383793,-4.149849822808084,-0.9449399052039534,2.059955,33.39,1
0.4446876159639662,0.011803749493412697,-0.840339759533346,-0.03524495281445385,-0.0033480984176640005,5.560113486443391,32.633526,-11.547125719945582,-42.849403786651905,-45.444648111139,4.162105578218294,24.924991126225734,2.1034549999999994,33.39000000000001,1
0.45582623353314256,-0.008611667738161693,-0.8320220469183964,-0.035779378144977364,-0.003726465423312901,5.561916077950014,32.63293,-14.141977859437338,-40.30846135093597,-40.557626157081316,-18.167164929109507,-37.796118795348015,2.1213670000000002,33.39000000000001,1
0.5131993726995502,0.03751600966671247,-0.8199420835333949,0.14025305162074628,-0.003329768046092539,5.575427352103219,32.637905,-12.536648875752746,-34.003496626345125,-29.560896714692625,-53.60116248163164,49.95710073092024,2.0893819999999996,33.39000000000001,1
0.6324423210162392,0.1400170504230714,-0.6247862782375305,0.05732009231796352,-0.004435513337120562,5.60777383353088,32.63794,-8.983797302856985,-37.303078160223315,-22.993274356306152,-50.79835757049117,-128.97275054042075,2.378527,33.39000000000001,1
0.886320204306642,0.2839836137244682,-0.22378765693030103,0.003574746993726534,-0.0040445243594278615,5.626071651211488,32.6417,-6.643719601095999,-39.939100958298965,7.25154173903972,-50.74155100368659,169.90202259160665,2.204527999999999,33.39000000000002,1
0.7757399632272068,0.2527625200834565,-0.39068429727125004,0.021475593195992536,-0.004540965829775288,5.621133339503786,32.644245,-5.786021775433088,-44.012398720536204,19.281658374717225,-49.3824628348061,27.221843730247482,2.0804259999999997,33.39000000000001,1
0.6799931551333773,0.06065859665787139,-0.6121272542456013,-0.06619684428620735,-0.0038435073425934917,5.611313952410657,32.644024,-5.136337281819303,-47.505379658419045,-4.015368293211987,-45.40139527562988,-61.54355756737425,2.0292500000000007,33.39000000000002,1
0.5743988611476019,0.0026717475232276616,-0.7546649471413717,0.04060299315883121,-0.003921614661674713,5.60190036325925,32.645763,-5.779393588465513,-45.826869776256856,-23.064837745419457,-34.785812544432474,-65.41933533390188,2.0100590000000005,33.40999999999998,1
0.7187665346791181,0.05410837160575925,-0.6023729446753557,0.10410550790528054,-0.003477554697790607,5.616324544164183,32.64737,-7.340277140726018,-52.176186705391686,-21.15099340910948,-30.151557807753047,-71.31863038081961,2.0138969999999996,33.40999999999998,1
0.835428136992791,0.06336286940949394,-0.4125187297233022,-0.013798627256757075,-0.0041844786041780125,5.612049313922121,32.6483,-7.248493483766609,-56.61673464682398,1.8057399400981664,-42.752548198406366,57.13201915009427,1.9959850000000001,33.409999999999975,1
0.7148801511706456,0.022104382557139948,-0.5779577325137071,-0.027311533178105852,-0.0033790690295399557,5.595098609305718,32.649704,-7.830227832356757,-57.36979399444194,-4.623618119707597,-29.52279559262737,105.92180007194854,2.003662,33.40999999999998,1
0.664506546843262,-0.025155043571127057,-0.6913192016267086,0.017041108600420355,-0.004207086452353314,5.593825443089087,32.651024,-9.195933468188688,-55.12029181664616,-15.25781053081906,-20.682650257470332,-64.32154804141709,2.0036620000000003,33.409999999999975,1
0.623646222352981,-0.11897973885964513,-0.7198879670882067,-0.07876423084798294,-0.004593228144895198,5.599171521234125,32.652683,-9.562986219336477,-61.48130643821961,-17.265474194758426,-15.221612274789969,-28.32835608220613,2.0062199999999994,33.40999999999998,1
0.7300501330592125,-0.1760478686528473,-0.6866965127452566,-0.09750708462005866,-0.0041849593896790245,5.606872024149698,32.650826,-10.014367074834269,-67.95216064989147,-11.850583006130933,-7.726018786711068,17.489363012269827,2.0113380000000003,33.40999999999998,1
0.6931734498220014,-0.24828103899755458,-0.4401686646247624,0.009490033549229929,-0.004396901722136202,5.633647485249254,32.653168,-10.098973952038573,-62.745108610969766,-3.4076396878427646,6.664926692537772,-90.29718482225141,2.0190139999999994,33.40999999999998,1
0.7757153488013462,-0.3739125214543859,-0.40424714927479866,-0.0158332331461112,-0.0038454645841139324,5.650175898122156,32.65073,-8.0243395778358,-66.64782588390935,-7.535398766351301,9.0926339527425,127.94078805499201,2.036925999999999,33.41000000000001,1
0.7942787060588504,-0.29251997974666,-0.47430906630098063,-0.11053539325325858,-0.002044779579402266,5.642020139699663,32.651043,-6.7834998537471,-62.24698449222681,-7.438425126562699,12.557612364908314,116.61368675270398,2.061235,33.41000000000001,1
0.7763917935611747,-0.1511790564084292,-0.5288482436942225,0.03977145064086311,-0.003463285199907824,5.623477115267304,32.644054,-10.095954342964353,-66.76390958784317,-11.163249624791941,14.458033169601126,19.48345611122911,2.067632,33.410000000000004,1
0.7173074821796682,-0.08335611703551538,-0.6243903486191199,0.00821119902266348,-0.003973007989553876,5.616101691609661,32.643044,-12.58908917455443,-65.17709154933593,-14.456040862812998,3.250971448662623,-44.644596030521626,2.070191,33.41000000000001,1
0.7107327448941151,-0.03520191822462386,-0.5767620277646411,-0.06491129592202768,-0.004293172947861493,5.60996489682489,32.636948,-11.555686489379326,-55.246081957873,-26.49202981895354,-12.019872535479957,-114.73150994254675,2.056117,33.389999999999986,1
0.5116433632201985,0.003029198841499983,-0.8497253965372743,-0.01893301214060491,-0.0038483580207204636,5.608468438722054,32.63288,-10.31669762187075,-51.629981778853434,-37.27488604470445,-10.47942320485189,23.47211530019476,2.0343669999999996,33.38999999999999,1
0.5715134238600504,-0.052986409167560616,-0.7423676515604302,-0.0896604670024272,-0.0032244510942758694,5.605551112759861,32.627613,-9.289609017626635,-50.41773039556563,-42.981479519615355,-9.753670189154494,-9.166019788267064,2.017735,33.389999999999986,1
0.5740529729529931,-0.02718082391011671,-0.7252978701243309,-0.028212024278354893,-0.0033497304429713467,5.5965563754213505,32.6247,-8.448974556266288,-45.24041615293223,-43.80617176181703,-8.753468177195584,43.63489942722804,2.076588,33.39,1
0.42392144790460756,-0.034385883659799076,-0.8771612009458568,-0.005402886842277436,-0.0038591997473725608,5.595012788622175,32.619125,-7.72986890542888,-38.093353571752466,-48.49996843669286,-5.001237785591114,43.515802197543195,2.0356470000000004,33.36999999999998,1
0.4423496010911968,-0.060581066858440814,-0.8821477949840837,-0.07566349039725899,-0.0031707157264915828,5.592543248174623,32.61413,-5.5480080793844415,-31.679688265362394,-53.58238172927489,-8.216492614816815,-89.92174688514737,2.013897,33.36999999999999,1
0.42035807751565896,-0.05853305919430584,-0.8699320622556874,0.09742326549214084,-0.0028817559580890466,5.580919848707348,32.609474,-0.2577673312611271,-40.772131391878936,-46.23987768053673,-13.364493969270136,-73.9038526987057,2.0075,33.36999999999998,1
0.506446467186531,-0.054739415730981324,-0.809789987672172,-0.01439962964390273,-0.0039467690477367565,5.583825115961916,32.604362,6.2661826454889145,-51.28154972806129,-40.48171823770626,-22.69271535665143,60.94254504056466,1.9959849999999995,33.36999999999999,1
0.5102945276673282,-0.060560298535684606,-0.8061605363527703,0.08895192812603635,-0.0036051058491233714,5.586076977044539,32.601116,11.945312556932915,-45.85090592811036,-39.471375555089985,-22.545805840422858,14.20714405949885,2.020294,33.38999999999999,1
0.531186500590419,-0.07256660090245358,-0.7914468933522354,0.05442490841329618,-0.003787254707608881,5.586352889198483,32.598347,14.426683509260817,-42.5894564207802,-42.44142604770842,-22.02990946670611,36.70720906197369,2.045882,33.389999999999986,1
0.5381456827665074,-0.07067357448276901,-0.7805329816521381,-0.0313020398688545,-0.004137325579638731,5.576571635368414,32.59396,13.557084979014167,-45.14544936142572,-42.05357253024001,-21.505019910723032,-23.894148441729772,2.02925,33.389999999999986,1
0.4660578918526446,-0.056703245082560694,-0.847888782759141,0.06420625604544446,-0.0037190385462175903,5.5789446195990084,32.591232,10.494933272833551,-48.40636792203999,-40.509338294493304,-17.95347348582236,-12.652629555287685,2.02797,33.38999999999999,1
0.40657878412301857,-0.09430053478931226,-0.8686702750375975,-0.09297354973867604,-0.003779112780329052,5.5785837745969316,32.586254,7.743711022571589,-43.42455454187774,-43.26695105724551,-17.11921130269568,65.05500281930124,2.0202939999999994,33.38999999999999,1
0.40253379903809194,-0.05926818690050863,-0.8842386074601425,0.07755449680166171,-0.003758989881974184,5.577638108579923,32.583355,6.272341545094666,-47.658163537839656,-41.71629216762679,-20.029038665718037,-100.43405665656677,1.9985440000000008,33.39000000000001,1
0.4093000167227506,-0.06511656486569511,-0.8744626708948844,-0.023141060891093912,-0.004058889228710243,5.573985975883951,32.579395,6.1581992154531235,-47.472224542790514,-42.563482237588445,-16.59912971574536,-74.1873903804916,1.98447,33.38999999999999,1
0.3976182577590773,-0.05681506079631848,-0.8826555002287536,-0.005209766367373398,-0.0036221977409667976,5.562396586819831,32.57866,6.531543260702311,-45.48202246379219,-42.16851820451534,-18.622403242337242,-26.652214134693615,2.0446030000000004,33.39000000000001,1
0.4128610624716217,-0.04999680929814206,-0.8718262938814806,0.07433985465934935,-0.003475463850478324,5.558581267415346,32.578236,5.928510255841996,-46.84778462011561,-41.927699494917015,-17.061728053164355,130.0818958916536,2.030529,33.41,1
0.40022536077811466,-0.04896384904515504,-0.8797621269897086,-0.056714752849808654,-0.003292889326885954,5.5563876730837904,32.576565,5.369006459642669,-47.61512102125013,-40.46464682945265,-18.93828530848109,85.90798237085235,2.166146,33.410000000000004,1
0.40444045631157766,-0.05496061572774005,-0.8772417171729006,0.011656826358687209,-0.004097204308235299,5.5526060914628905,32.57438,5.099302169411701,-46.63841071535967,-41.13884041849612,-19.801341003025602,-72.59803215606233,2.4066739999999998,33.41,1
0.40307261228146735,-0.05673327788712241,-0.8768475779147383,0.03823566746305117,-0.0036496463890063283,5.548352049394476,32.575962,4.6166408302717015,-43.624364199837245,-42.205325772889275,-21.20388416072869,-35.92827615304352,2.4258650000000004,33.41000000000001,1
0.4034891122409522,-0.04862440105065644,-0.8768735226508976,-0.02981788025545288,-0.003129544610382894,5.541911250591329,32.573296,4.402347810044205,-46.48166322986417,-41.14476909681961,-20.458546242284594,-44.646355089847596,2.3695709999999996,33.39000000000001,1
0.40139575840457187,-0.053325587402346414,-0.8798360998465049,-0.022791714793940102,-0.003939352884875779,5.536571282620695,32.574936,4.265832948859348,-44.87702498643513,-41.29976134171477,-21.261411094565055,36.814963613401495,2.3311890000000006,33.390000000000015,1
0.4046318941802947,-0.05118250129404762,-0.8751396063920328,0.05767399021205101,-0.003795500025592285,5.530818887569353,32.574467,4.009318291527675,-46.10225255420738,-41.068186865140774,-20.459438378075948,-109.45354338584255,2.317116,33.390000000000015,1
0.4027539354003335,-0.054212846130025125,-0.8781933292193308,0.017684756381485776,-0.0032847830815466057,5.534300942429431,32.5753,3.853545191282375,-44.73182197426083,-40.977080396302256,-21.24207140241196,9.742255169247908,2.3017629999999993,33.390000000000015,1
0.40217243772410133,-0.051318818600457984,-0.8780159950879123,-0.0458089616374922,-0.003360355387303263,5.530826952887231,32.574608,3.5773865092196035,-46.081619822101075,-41.01919069577652,-20.746624815638608,85.79026580876572,2.2966450000000003,33.40999999999999,1
0.40316415460987326,-0.053577982185697044,-0.8786385049105419,-0.004537703925972991,-0.0029459052294709596,5.524774355164062,32.57866,2.991827960868092,-44.394312592529566,-40.9680513533894,-21.307324552107353,-16.983058573964247,2.277453999999999,33.41,1
0.4051185195184971,-0.0527057434310465,-0.8741917125470986,0.05880602889895909,-0.004046048926310535,5.521561276751976,32.579845,2.4365303173428723,-46.34920263987639,-41.22828325034162,-20.844239819995398,20.803050498158296,2.2710570000000008,33.41,1
0.4031471642374565,-0.0547202436397913,-0.8778641809679562,-0.02668149931678175,-0.003906749375900049,5.519805862678306,32.580276,2.3016327436818917,-45.532825156546764,-41.06315514320759,-20.84431612477482,70.33666505727103,2.254425,33.41,1
0.40130048082536396,-0.05187670225557237,-0.8791809853280353,-0.06532969212287561,-0.0033803151910946926,5.514438637357818,32.580738,1.910483790074164,-46.22420728809965,-40.96518014412618,-20.444091870819726,-7.366470211078069,2.199411,33.38999999999998,1
0.4019864473278005,-0.05784394983223236,-0.8798308017446764,-0.0006950373043555549,-0.0034268934091379612,5.508894646234395,32.584644,1.6126984998728933,-42.61655111263878,-41.09325790706316,-22.07721128967928,-28.965827891427303,2.168705,33.389999999999986,1
0.4001951922636501,-0.061549448666712414,-0.8771131866645632,0.06171677742852222,-0.00322595227796355,5.505178758954334,32.586388,2.527801511396699,-41.917187432771286,-36.78807877344899,-31.685881087202887,42.68136374232683,2.15719,33.38999999999998,1
0.39489694241419904,-0.06289163256919997,-0.8834485318578684,-0.068750622776955,-0.0035178840999315467,5.505548214099204,32.588608,4.58233437771579,-42.83104273206359,-33.885203335397776,-40.40782732732135,33.870716774936206,2.22244,33.389999999999986,1
0.40008446227949696,-0.06430561898522527,-0.878724273793333,0.006552828844449019,-0.00331369973419727,5.4976294198341,32.591293,6.334699318684491,-39.64560048233238,-35.62830605741181,-34.32542327412563,-19.448519160532125,2.2966449999999994,33.41,1
0.3969849381822921,-0.07427278867236077,-0.8777827560025256,0.07002930282450007,-0.0038701723345171937,5.4971844951532765,32.59664,7.239402150950198,-25.180609718218996,-33.80596615308886,-43.684957187255556,45.05211357526664,2.2940859999999996,33.410000000000004,1
0.39165343988770573,-0.06134720282822383,-0.8820168174539644,-0.031387234381676475,-0.0033142475390104138,5.500577457773114,32.59992,7.9265813505722935,-32.822519023380536,-26.48082543485864,-54.80945436771142,78.6057604954523,2.2313960000000006,33.41,1
0.4013099735735203,-0.06472638340051148,-0.8804656865497701,0.04585911707281951,-0.003750302344616123,5.494044468427522,32.603622,7.1432677400752524,-28.73736500700779,-26.524241488780145,-51.28325171458601,-64.93833402397567,2.1149699999999996,33.41000000000001,1
0.4065271580205471,-0.06447676677681026,-0.8736435240728854,0.03403463862342754,-0.002724156671744563,5.489802863046125,32.605206,4.350483414453857,-22.601891392850703,-28.120731695203304,-53.24500064667204,-55.75315806222551,2.0420440000000006,33.40999999999998,1
0.4043457894179598,-0.06205140726346667,-0.8777769318450117,-0.05207591734098468,-0.003794633452390436,5.486071233714466,32.612434,1.1324735939198411,-23.809478117332276,-29.336355536299084,-51.05080728935262,100.87773704532121,2.040764,33.40999999999999,1
0.4043355617193695,-0.060673288802957005,-0.8763207190644468,0.0651785200038131,-0.0036373549315696003,5.486283105405312,32.61664,-1.9847056025957255,-26.14886739159416,-27.62370172687003,-52.99183641760077,116.58651636010352,2.0177350000000005,33.40999999999998,1
0.3990558085922508,-0.0583855588732023,-0.8792239331486884,-0.04565650505965765,-0.0035088269214091144,5.489343170980459,32.62013,-4.305582236457155,-24.096605861878214,-27.284653914243034,-53.47678552098918,-189.7236408636339,2.0036620000000007,33.40999999999999,1
0.3950155470832533,-0.05845690019574418,-0.8819474923581663,-0.020578756090973614,-0.0032592637659310535,5.483716184049876,32.6254,-5.673476581865032,-23.179666174876985,-27.028126419668343,-53.26475338083711,-110.672759658801,1.994706,33.40999999999999,1
0.3956063833686106,-0.056903793288519515,-0.8821274253102165,0.04169992256213051,-0.0038000854122261117,5.483391082443799,32.627716,-6.651126563939145,-21.67385182229129,-26.87046543147377,-53.939280591806444,-3.9350201471996185,1.9908669999999993,33.40999999999998,1
0.39057943326278893,-0.05635732257396907,-0.8831355081287955,-0.029681277401921113,-0.003836042448965344,5.481818123580849,32.63207,-7.021921366115543,-20.883794738273174,-26.46632482553637,-55.35530063868463,-14.280251491559453,1.9883090000000003,33.40999999999998,1
0.39006830221933936,-0.05615614711364667,-0.8854534342212086,-0.048035535875866515,-0.0033089973738165243,5.479122135532537,32.633865,-6.952691406263009,-19.35028961803205,-27.20343810834814,-54.451384920686024,38.08818467277967,1.9806320000000002,33.41,1
0.3903180767408327,-0.05659069772840931,-0.8833280555097017,0.03571641917551112,-0.0038712920232253194,5.476505732092174,32.64099,-6.707916985377481,-20.28364780025528,-26.436234099103817,-55.241740448275294,-31.427550754215687,1.9831910000000006,33.43,1
0.39137596618296355,-0.05731378703529174,-0.8840792545625787,0.03493212724103834,-0.003233184287246585,5.476868765213488,32.64574,-5.922626082530581,-20.547603580654208,-26.02870225410966,-54.825251415753485,-43.91606101431503,1.9819120000000001,33.430000000000014,1
0.3856084012475133,-0.05627068649594944,-0.8867404459227543,-0.08462992451593926,-0.0035820326686130492,5.472007000805947,32.648407,-4.684154314131034,-20.3683037880945,-25.938561765839175,-55.33856971178168,44.78278116718307,1.976794,33.43000000000001,1
0.387899944962211,-0.060039188264638645,-0.8869910128779994,-0.022262422153700265,-0.0034630577555380495,5.466334838340446,32.653584,-3.050450650681569,-19.658375864817046,-26.071163608499038,-55.040788247866054,-8.717560328868613,1.9729560000000008,33.430000000000014,1
0.3899504327507038,-0.06091145706347556,-0.883509378703718,0.062480139137684146,-0.003413275349236212,5.463605917492633,32.65668,-0.8409866667130856,-19.796108979965787,-25.92487511378184,-55.71999618354655,-10.471294127637034,1.9703969999999997,33.40999999999998,1
0.3913663032546405,-0.06591253496415592,-0.8846832344757263,-0.02875227040352838,-0.00329708112278131,5.459606035013625,32.660793,1.778081451522186,-19.231919487775862,-26.07738047393627,-55.44914525798188,43.03054233016288,1.9678379999999995,33.40999999999998,1
0.3931501829086481,-0.07272109662830349,-0.8820375107889115,-0.03970695652168677,-0.0035815748039050976,5.45295440888173,32.664066,4.002809192926779,-19.61230117694675,-25.92067232977443,-55.93319043851306,15.818562034256379,1.9627210000000004,33.40999999999998,1
0.39767579622035915,-0.07502312697073298,-0.8786433651690033,0.10225626787002674,-0.0034998802179008128,5.452902007889854,32.66677,5.518567969513985,-19.267886550330747,-26.072959373008196,-55.708553984255786,-36.159186123782774,1.9524850000000005,33.40999999999999,1
0.39655315318170237,-0.0727470926839281,-0.8803359936795712,-0.04210487822529485,-0.003936449658709716,5.45110200309231,32.670864,6.4159696644469175,-19.496246732230027,-25.460280903847142,-56.129394222646454,16.92095136611921,1.9683589999999995,33.40999999999998,1
0.401265925409788,-0.07311506359364243,-0.8801797224445228,0.01864361856121581,-0.003619469938453041,5.446770010270994,32.67661,5.729326081018428,-19.874317880843947,-25.092663380257786,-55.9003793557091,-13.108507454830349,1.9645199999999994,33.40999999999998,1
0.4056955680843295,-0.07101853288262408,-0.8743270511690535,0.04968313857963263,-0.00381527021383647,5.448301119875169,32.679184,3.690774114498765,-20.14569003369534,-25.105072567605543,-56.05423374955048,-17.597730407374826,1.9619620000000004,33.409999999999975,1
0.4074131136326808,-0.07094117375286497,-0.8768372994693489,-0.02889842256376651,-0.003401363958753165,5.447819495347366,32.684845,1.5026896188730312,-19.8652994087081,-25.408883369470995,-55.603462486413,62.4815226878655,1.9619619999999998,33.40999999999998,1
0.40545311541559476,-0.06882988174905089,-0.876123527207186,-0.020926836188305816,-0.0030102860777618027,5.443835754563733,32.689304,-0.5505793490727295,-19.940833388976245,-24.92631103108251,-55.70300803798469,38.546275933941054,1.9517260000000005,33.40999999999999,1
0.40577466004076485,-0.06764637164678564,-0.8762585278455602,0.09052381157826987,-0.002760282857267036,5.446316383123653,32.692642,-2.382813208883992,-18.97935668564618,-25.071995215949244,-55.9112953491037,-19.553182360987744,1.9632409999999998,33.41,1
0.39886112580196187,-0.06561198666425566,-0.8792196830640062,-0.031680563616575896,-0.00335837541624227,5.447724589891187,32.696377,-3.5261642200389094,-19.365026383773397,-24.92960144458017,-56.034070847139155,-0.7906391723498316,1.9581230000000016,33.41,1
0.3971821905385621,-0.06570797452104372,-0.8819751780239069,-0.022248422639782675,-0.003602534680347275,5.445848808925965,32.701694,-4.2148116119628405,-18.67041770716711,-25.069369496227022,-55.98397584459004,23.10361318004948,1.9555640000000003,33.41,1
0.39353478774664935,-0.06386802202568406,-0.8822583941328412,-0.041577186382859704,-0.0033664916569887877,5.444797766333027,32.704304,-5.01821483139073,-19.397671692528586,-24.931305731068967,-56.000910494502456,-40.40705778119192,1.9504469999999992,33.39000000000001,1
0.39436560939708876,-0.06504952326324506,-0.8831403340978776,0.08902404921594038,-0.003117309884552798,5.447336751378135,32.708168,-5.383289224349271,-19.08256332090964,-25.068293940557723,-56.0143169174138,-4.22052812599015,1.9427699999999999,33.39000000000001,1
0.39184719811805035,-0.06428432792310779,-0.8827555801702351,-0.002562276361720576,-0.003526086230713584,5.446809350271087,32.711315,-5.251745632120456,-19.59100409348662,-24.931797861166913,-55.96945324382482,18.971280410723175,1.9363730000000006,33.39000000000001,1
0.3915061917155924,-0.06383828372178844,-0.8853548079754112,-0.042161508434228084,-0.0034205995271110057,5.446767434199317,32.71718,-4.8685375640848285,-19.593522859844892,-25.068624339690885,-56.048373220082155,-19.631803030035922,1.9376529999999998,33.39000000000001,1
0.39099733372299755,-0.06363771349101768,-0.8845580314417021,-0.05546764017728617,-0.0037722514082521317,5.443872121031322,32.721455,-4.591392707375637,-20.1874195150147,-24.929712119138223,-55.93148585200183,-1.143338823181208,1.9363729999999997,33.40999999999998,1
0.3910246946919347,-0.06749600461622844,-0.8847663405894028,0.032644783234842885,-0.0036941378105325652,5.441580002367858,32.720875,-3.9474549262113707,-19.746785041979148,-25.076652589229738,-56.09223171204045,39.0344270249206,1.9338150000000003,33.40999999999999,1
0.3888372860494526,-0.06759066931637855,-0.883618977882719,0.051056248106181396,-0.0034097862154057568,5.440386342399122,32.723316,-2.167454715620964,-20.259312136313245,-24.862967466748692,-55.877078496994,16.19609782579933,1.935094,33.40999999999998,1
0.3846100230124038,-0.06974441336405104,-0.8891601086066007,-0.07107318532241132,-0.0036775221213433476,5.438826142001097,32.729774,0.46667276593086693,-19.802441983797358,-24.926871105174772,-56.209052142759305,-23.242993226119317,1.9312560000000005,33.41,1
0.3828533405692831,-0.07191125111252528,-0.8847825742005752,-0.002407510452659427,-0.003369740999539279,5.434898545646717,32.73036,2.856624040928614,-21.306903640341254,-24.87802171869316,-55.60639124196962,-38.365475746881124,1.9286970000000003,33.40999999999999,1
0.3869976719858693,-0.07475388573475854,-0.8857637649331682,0.07933408152427618,-0.0038134250095983634,5.434534003963339,32.734398,4.6891730215475835,-20.436227509318265,-25.07731210991943,-55.82616162708774,36.37303559404639,1.9338149999999994,33.41,1
0.3888504627709142,-0.06986029589058372,-0.8855760473584742,-0.024303576264294264,-0.003523698908731596,5.432749465155376,32.738857,5.324230718904877,-20.936467814216037,-24.92968308750644,-55.84259429241832,20.46659915396859,1.9133440000000002,33.40999999999999,1
0.39170331059314645,-0.07124615474797114,-0.8849179218824629,-0.026940736414968604,-0.0034699290295602987,5.429560960361404,32.741898,4.202588629201863,-20.643622145500206,-25.06765121936182,-56.07313414685014,-2.369955425552699,1.9274180000000003,33.41,1
0.39404861150523296,-0.06878471003545994,-0.8810684576739632,0.08174546386650225,-0.0033523302732173907,5.430381959005908,32.74414,2.3032591094419703,-21.184639096792626,-24.933925845207064,-55.1495627199334,-34.23317954627136,1.9235790000000006,33.409999999999975,1
0.39256708296385384,-0.0701051089499098,-0.8839454619180669,-0.05676330890365501,-0.0035141429530141733,5.431211720479927,32.751316,0.7249490059456815,-20.402913471080662,-25.064666005771286,-56.29656513485243,23.339004582612226,1.9235789999999993,33.40999999999997,1
0.39170872047049177,-0.06579123265007641,-0.8839207809692537,-0.0029213404535507084,-0.0035469552037581437,5.428349531621653,32.752617,-0.5855053668174487,-21.196122579679038,-24.937104646073998,-55.56138560449255,13.793244906654138,1.9235789999999995,33.40999999999997,1
0.3919377750783333,-0.06877860239584807,-0.8831180873200035,0.04178352801986707,-0.004439077921528677,5.428942022092897,32.755306,-1.6205004001297256,-20.545036743482598,-25.06101818360544,-56.15625624226326,-34.71832443964743,1.9235790000000008,33.40999999999998,1
0.38892739404895216,-0.06383141563633614,-0.8843752120299936,-0.031153357047412226,-0.004190036301984246,5.429456010437933,32.756687,-2.1671053897760113,-21.406268556924523,-24.905489651229075,-55.060521904844364,-12.337755209644545,1.9223000000000001,33.41,1
0.38905900171493213,-0.06525490089604552,-0.8862458490834804,-0.03919046552681765,-0.0034167164036314813,5.428457345076546,32.75833,-2.569146384454314,-20.365505165795973,-24.46580988547614,-56.708388418959856,18.26036545036451,1.9248589999999999,33.41,1
0.39051640996010806,-0.06075772840109093,-0.8833082549737961,0.05443099789784818,-0.0038599907667234085,5.427682520103868,32.759895,-2.7868988194153417,-21.681985833092973,-24.05448321144119,-55.00707063200515,-41.842677524997576,1.9210209999999999,33.41,1
0.3873754525858904,-0.06645976367484908,-0.8867268246665482,-0.008712383951410345,-0.0036466537304990247,5.426394594382908,32.76277,-2.4604353801949306,-19.72540271668432,-24.652427553210458,-57.41045897353869,-10.223334598292643,1.9197409999999995,33.41,1
0.3826809279363333,-0.06183256326421309,-0.8880954844814325,-0.07441103585413694,-0.0034515103479184762,5.429029827311791,32.7651,-1.3237242237193252,-24.289184740105025,-24.67333560410942,-52.7930930708361,10.895062708651011,1.918462,33.38999999999999,1
0.38685418381102693,-0.073317921663958,-0.8859985140017953,-0.0068779626255426,-0.0033080891401035396,5.433122202343887,32.76931,0.39419176722477883,-27.534856326719495,-26.35024096241443,-53.228805179310996,-33.558505109666854,1.9197410000000001,33.39000000000001,1
0.3898971424543968,-0.07109767362060303,-0.881452008845845,0.08373698743689967,-0.003577883702916134,5.4291010369132096,32.772434,2.4911234269993225,-44.36368452370278,-25.51995859049291,-45.35883121679054,15.023077610277735,1.9184619999999997,33.38999999999999,1
0.39334268730524774,-0.07284810286715872,-0.8821894905644955,0.013450415514394867,-0.00360897150399851,5.426075206996806,32.7736,4.811189622512639,-40.09653808997361,-30.948102500965213,-38.830255966427785,27.419547895914043,1.9146230000000009,33.39000000000001,1
0.38996226909756265,-0.07671613724073534,-0.8855999407885521,-0.05083228525355156,-0.0030933954791167073,5.422605667186111,32.776733,5.375850411384275,-21.456175823802127,-45.298134606974486,-39.34867028528467,-39.049408641755925,1.914623,33.389999999999986,1
0.39424085078062654,-0.07243860521068754,-0.8819733498927824,0.07537751769316435,-0.0033043264483035594,5.42066441271545,32.77849,4.105174478597515,-30.898473949897273,-46.0930801970903,-26.92596050641566,-6.59127361875417,1.9223000000000001,33.39,1
0.39655462638533434,-0.08024265164363813,-0.8806665840134209,0.015060772989403335,-0.0035609850976928447,5.420317937141163,32.780243,2.3698811263698607,-27.67590375305274,-44.65808139857389,-41.548478055163805,47.381284725325685,1.9274179999999994,33.38999999999999,1
0.3975837872137505,-0.07619990088020685,-0.8810401013267029,-0.048817968337062596,-0.0034252257588692535,5.418629693016487,32.782986,0.7836990873738067,-23.723181460491297,-44.45236864557756,-38.16395155633172,-28.625989039350415,1.921021,33.38999999999999,1
0.3982581708311369,-0.07660121458653055,-0.8805980100391085,-0.03840150354953942,-0.0032269032757047686,5.416334174826405,32.783207,-0.9068566666768818,-25.0555572590475,-43.01293119909833,-42.57818234712967,36.74611211421184,1.9159030000000004,33.410000000000004,1
0.4024879075337143,-0.07731920827647736,-0.8767942080782033,0.04088479772333289,-0.003334620946234035,5.416151476136544,32.785694,-2.1937540538736253,-25.332722232827784,-42.803803979946764,-40.25367555922811,55.83471433020748,1.9210209999999992,33.41000000000001,1
0.3967169939412065,-0.07573732332719944,-0.8819135652921081,0.05225286514829331,-0.00417321248573641,5.417350571489694,32.79096,-2.6207554231859462,-25.614220165818,-42.58043403923308,-43.08909876904018,107.26761665031798,1.9235790000000001,33.41000000000001,1
0.3979103699121538,-0.07463143506125317,-0.8803418835154969,-0.0596071266446325,-0.0038815775007608445,5.415573598604704,32.792732,-2.516034581414297,-22.446301275170146,-43.082463682552685,-40.25821570867519,-43.77950283774937,1.9274180000000012,33.410000000000004,1
0.3983460737606998,-0.07976574931951452,-0.8799968587176248,-0.032526304048721394,-0.0036753980217417233,5.412794787898077,32.79392,-2.433546590856181,-22.137174321003613,-43.04854798484951,-44.19447942612025,-122.81713663401756,1.9248589999999999,33.41000000000001,1
0.39447401329289905,-0.07240867242912305,-0.8851897341661376,0.009120227091009242,-0.0032111458340235307,5.408686680147736,32.79592,-2.380891363940584,-22.505084584712716,-43.13530571133348,-40.568877068463294,-13.668728812192319,1.9274180000000003,33.41000000000001,1
0.3939355159176109,-0.07998233333910411,-0.8815735442670528,0.05390214169082912,-0.0018259020028270623,5.405385815555866,32.79633,-2.022685515176892,-20.597669035174807,-42.59928219843585,-44.890015661174225,35.77983266831014,1.9133440000000006,33.41,1
0.3852861550138606,-0.07827277963807833,-0.8883434945334246,-0.10003638438636912,-0.003928943410227736,5.4028665104391225,32.79896,-0.708904561423243,-22.08602534809516,-42.24471445988652,-42.35716589371541,22.7664091160406,1.914623,33.410000000000004,1
0.384865976443841,-0.0837760121337284,-0.8853654079925083,0.015362261625886792,-0.0031285428383284737,5.398691990630193,32.80071,1.4942837558518658,-22.354170959433514,-41.91791985995626,-43.965813753051364,-37.994872325948464,1.917182,33.41,1
0.38746615099051174,-0.08059418165873745,-0.884528794964815,0.06263359209165664,-0.0039861272651517225,5.401266131515028,32.804848,3.7308526529851314,-19.78746313645678,-41.942336434061254,-44.334773293679326,7.2968712909981805,1.9159030000000004,33.410000000000004,1
0.39041452773046403,-0.08012860446116317,-0.8849276815238222,-0.021051357078893652,-0.002715315257779137,5.397388700109331,32.802673,4.932654970247509,-19.928302181396955,-41.938117526377944,-44.860931426570836,20.647509860878316,1.918462,33.41,1
0.3912172851608344,-0.0779198866051517,-0.8853801209225585,0.016703656981027392,-0.003976592116118226,5.395569542155266,32.80535,4.111467485798175,-19.22927913027112,-42.05899290500236,-44.106738551804035,15.532860932258755,1.915903,33.41000000000001,1
0.3926617591314864,-0.07762360933181942,-0.8815688061755326,0.05641066721856936,-0.003561132071431123,5.397859592917,32.806202,2.078175583260757,-19.704447787049727,-41.942849589054745,-45.277610819170654,-50.39313210804912,1.9197410000000004,33.42999999999999,1
0.38904820243327104,-0.07493110598820626,-0.8863885641168878,-0.08310269990743946,-0.003541306081187312,5.398564821533107,32.809814,0.0587735722057178,-19.298460784041605,-42.05583600702375,-43.833404235440696,-19.407574128283485,1.9210209999999999,33.43,1
0.39079790996420727,-0.07623393434992712,-0.8842663890741043,0.05122554233424807,-0.0035513661108841133,5.396852140354661,32.809746,-1.5233549742838945,-19.447870437746474,-41.94517407458486,-45.66955868050975,11.579040491472881,1.9184620000000006,33.42999999999999,1
0.38959011529159066,-0.07381385407605551,-0.8854773542700678,-0.004008043102032162,-0.0033976189488753943,5.398048259576792,32.81414,-2.461524406054144,-18.760049974280264,-42.05400790320495,-44.12717334060818,-28.761382989838207,1.9210209999999999,33.43,1
0.387576846535122,-0.07448085629073668,-0.8862475636070362,-0.03451016962764957,-0.0034634828207082504,5.395225506245769,32.813206,-2.7348221048161125,-19.183463365079053,-41.94668076041877,-44.97785981614659,-0.669330577542984,1.9146230000000002,33.41000000000001,1
0.3875013665131588,-0.07293321672650208,-0.8869855060829718,-0.019198284447209567,-0.0034327524610602757,5.394981651759625,32.8168,-2.9917618363479246,-18.8884222544825,-42.05272201000311,-44.03627859457477,11.933995412512223,1.9159030000000004,33.410000000000004,1
0.3896059001680602,-0.07468956926708352,-0.8840594805533599,0.08716994687024907,-0.0032881296778070617,5.395240080414313,32.817066,-3.001377775444565,-19.274323346898477,-41.947808171145965,-45.42733406238731,-34.38938075772904,1.909506,33.410000000000004,1
0.3872362390833752,-0.07315814041118548,-0.8866815880335789,-0.05940160866403054,-0.0029360515577196867,5.395048604009416,32.816223,-2.3889738474192805,-19.39302252802348,-42.051712242201866,-44.325551442139165,23.474246214754906,1.9159029999999997,33.41000000000001,1
0.38823378659118124,-0.0732525994509147,-0.8858022832298889,0.001254775075146149,-0.0036975588783143723,5.392964255982567,32.819145,-1.8078157423463241,-19.237294128915014,-41.948728291183805,-45.18635756214938,11.124099069291967,1.9107849999999997,33.410000000000004,1
0.38793128610450633,-0.07367656835263159,-0.8865858818760829,-0.048546560032520114,-0.0038482817332134455,5.390993697242531,32.819546,-1.410435475706082,-19.06805658104629,-42.05086187115324,-44.29567643528365,-25.464358564020706,1.918462,33.41000000000001,1
0.39013210586227864,-0.0741415713345013,-0.8831722325779776,0.113248141054127,-0.004047944604064999,5.390633917860692,32.822693,-0.8336517265519798,-19.339663367327223,-41.94952348675558,-45.27586026051015,22.399640270473775,1.912065,33.410000000000004,1
0.38797964757477715,-0.0737535986061624,-0.8850914649514037,-0.023968026669546044,-0.0032673307968154167,5.39357440596311,32.823277,-0.23094078406430202,-18.97612313546891,-42.05011090512475,-44.2852242881311,33.831214444611724,1.9146229999999986,33.41000000000001,1
0.3878409028013629,-0.07396984094298606,-0.8858982816683703,-0.021542655450942524,-0.003634116673308341,5.39041257287546,32.825447,0.18492386565979493,-19.182414370010797,-41.95023862482842,-45.50634266738306,-39.6383828444603,1.9133440000000004,33.41,1
0.3884985909431946,-0.07360719699606827,-0.8865865355919508,-0.06518223790019867,-0.003967212447662075,5.387862926766048,32.826538,0.2866509628967758,-18.959021144945947,-42.04942502229064,-44.20245091876812,5.271633042196936,1.9082259999999993,33.41000000000001,1
0.3905738111115499,-0.07475484563783234,-0.8839499596772332,0.07882548392124746,-0.003299561765613115,5.385426548433446,32.826683,0.47358083670391027,-19.18018859300963,-41.95090048308991,-45.171987675426,41.394453733707685,1.9107850000000002,33.41,1
0.39000362614756057,-0.07466080431533266,-0.8870258559329262,0.005059684172014558,-0.0034097212704124955,5.38743084877429,32.829613,0.7567301297711437,-18.846756988720436,-42.04878296007345,-44.03871450334356,20.07662976072307,1.9095059999999997,33.410000000000025,1
0.38565379977472347,-0.07746245836491658,-0.8873138694023297,-0.06905114357900674,-0.003279079811885053,5.382422004039265,32.828224,1.1043259858775056,-19.14354588097592,-41.951526218462874,-45.621720817346976,-26.89701337727402,1.9095060000000004,33.43,1
0.38576534807002805,-0.07813079987657132,-0.8888043364712881,-0.042306768728704806,-0.004166411754644628,5.381309733365537,32.830967,2.0092445000535606,-18.86233388318508,-42.04817066464919,-44.15491262658655,-32.441416409666154,1.9005500000000006,33.43,1
0.3848261281104612,-0.08262001289764054,-0.8854084958968412,0.08591999015419997,-0.0038273848345674643,5.380545512971785,32.83222,3.763301473172962,-19.133278840224552,-41.95212751002098,-45.40514049511552,38.21734558262532,1.9082259999999995,33.42999999999999,1
0.3837671231093877,-0.08260216712318914,-0.8849573945418386,0.011543956394865737,-0.0037897789975896027,5.381160767628388,32.835682,5.831805986358785,-18.87035480332958,-42.047578292296585,-44.3867760647765,23.938622056124554,1.9005499999999997,33.43,1
0.3865618913936133,-0.08055023895259082,-0.8873124169507217,-0.036100883699146415,-0.0033891993968799645,5.374632003905911,32.8368,6.9077589250010165,-19.126532326590926,-41.952712772811616,-45.46971562379783,-10.551957604874898,1.9069470000000004,33.429999999999986,1
0.391543465910245,-0.07943022997825418,-0.884347539511302,0.06174122813659798,-0.0035570678265376397,5.374644239229155,32.836346,5.783381147939303,-18.87589301201839,-42.0469985447066,-44.21043516204267,-38.70333374121766,1.9056680000000001,33.43,1
0.3931216108388383,-0.07891953193422317,-0.8822389324055411,0.023477450988892933,-0.0035382892034250104,5.374786425325829,32.840225,3.315174811962001,-19.123538486381307,-41.95328843181288,-45.367821577153684,18.496344711817066,1.9043880000000004,33.43,1
0.3907110488265272,-0.0768696917467794,-0.8858517511078622,-0.06088137880582682,-0.0036748321654174257,5.373095713835403,32.84036,0.8680673722155895,-18.868538331875058,-42.04642567687598,-44.480052929664396,20.2894275730753,1.9043879999999997,33.43,1
0.3908605822895937,-0.07676209179083983,-0.8840711009857855,0.06697753713741113,-0.0034429555652342046,5.372001697070272,32.842743,-1.2284664772866252,-19.268160144750137,-41.953859708653255,-45.35476248526715,-19.037788208780338,1.9005500000000006,33.429999999999986,1
0.38827302001055775,-0.07616113942975535,-0.8852944546631373,-0.010202633192614,-0.003057892784737535,5.373861256202756,32.84367,-2.515497860737047,-19.052889475196146,-42.04585486092913,-44.621963238434894,-23.262419459297217,1.9082259999999993,33.43,1
0.3874372748604431,-0.07481656393141517,-0.8875400545858737,-0.040987743371143186,-0.003490058250572592,5.373660380606463,32.842968,-3.2128754919103812,-19.473464801157217,-41.95443114746983,-45.0759345265867,23.495985261116697,1.90055,33.429999999999986,1
0.3887603518999361,-0.07618822541100549,-0.8856978716237809,-0.03243170656690289,-0.00306367588014464,5.3701931239606475,32.84579,-3.709829724305735,-19.098487602408504,-42.045281740337536,-44.08627466206185,-10.16396615095707,1.9031089999999997,33.42999999999999,1
0.389474669005352,-0.07579547205128996,-0.8842497756953356,0.09060039815190746,-0.003481687430545382,5.369137980709055,32.84664,-3.725721486452815,-19.092793415278805,-41.95500700404004,-45.395185636274356,-26.768354024191442,1.8967119999999995,33.429999999999986,1
0.3880131922568318,-0.07529894752638373,-0.8862282282849273,-0.02820187248415125,-0.0037890236736295583,5.371256756847477,32.84683,-3.3836744555537273,-18.93638705286032,-42.044702078592834,-43.81258078825228,33.20175822025441,1.905668,33.43,1
0.38838904010633696,-0.07452594831386347,-0.8866736652559127,-0.03250104440073381,-0.003693469661219177,5.366764943191393,32.849747,-2.8806016687399683,-19.16861393750554,-41.95559157520029,-45.45169997453919,-9.778199625116638,1.899271,33.429999999999986,1
0.3883870953926259,-0.07629920915934127,-0.886442509383115,-0.059732462929540577,-0.00368767166333265,5.366120649936305,32.853134,-2.523504281486684,-19.060698971170517,-42.04411143747328,-43.94825212004497,-24.71128129453445,1.8992710000000002,33.43,1
0.39227432280887375,-0.0793360526924642,-0.8832319227815081,0.08032212447434993,-0.0034477144334374493,5.362403237222573,32.84904,-1.5282534654825664,-19.389912457500724,-41.9561895265189,-45.48523074363501,28.7832733812468,1.9005499999999993,33.47,1
0.3920079176558321,-0.08057709800284592,-0.8835869904684962,0.0013389405598693773,-0.0036664492568941115,5.363205616695035,32.855858,0.27499998980296714,-19.29440250231741,-42.043504829401904,-44.43983441045653,26.298619042526944,1.9005500000000004,33.47,1
0.38742826193618524,-0.08287290994997976,-0.8859787929605635,-0.04707457024231462,-0.003136374691029638,5.36149081013129,32.853848,2.552726392972898,-19.4557988188051,-41.956806275389404,-45.46599328404013,-28.230514145599884,1.9031090000000006,33.47,1
0.3879453033254384,-0.08316299689071052,-0.8843055154448924,0.0030483276206161136,-0.0037471159873416595,5.362393789680224,32.85538,4.378600564966987,-19.43611390436444,-42.04287628075069,-44.119207128369865,-15.433048613701224,1.8954319999999998,33.47,1
0.38981985688915766,-0.08372160878938567,-0.8834869861683139,0.09739704319334523,-0.003596160846928973,5.361587340145882,32.858078,5.357066002848255,-19.647760132489115,-41.95744850368131,-45.43543641241549,39.13390092439124,1.8992710000000004,33.469999999999985,1
0.3920410494906108,-0.08210760450413364,-0.8852361896674511,-0.05117974855785698,-0.003931083284151977,5.361903967499595,32.858086,5.217125133685858,-19.598803802451943,-42.04221821462656,-44.16617937564619,23.025877615987177,1.8979909999999995,33.469999999999985,1
0.3937468090585642,-0.08087232296453092,-0.8830163599042535,-0.0026736230039993334,-0.003464045359314166,5.357263444075446,32.857487,3.5853552845934895,-19.84529662325217,-41.95812491725943,-45.34549185413497,-17.98758753768295,1.8928740000000008,33.469999999999985,1
0.3984808893618412,-0.08008018170708497,-0.8801012773158142,0.04965796577753283,-0.003826329869100645,5.361723428309994,32.859524,1.182398222719655,-19.52127246807569,-42.04152049800677,-44.24442724299179,-31.599008046875394,1.8903150000000004,33.46999999999999,1
0.39773876385408813,-0.07966555421614277,-0.8800065612185664,-0.009797387841571296,-0.004123028406982214,5.361865007995119,32.86042,-0.7028538261699283,-20.177023749159222,-41.95884746271234,-45.357573733230744,25.63586154175906,1.8967120000000008,33.45,1
0.3966928509141207,-0.07854740639696962,-0.8823902917543595,-0.059422341659858845,-0.0036632151452624826,5.36343158772245,32.863377,-2.091578753351008,-19.541289569400973,-42.040768861761066,-44.04062195583808,11.563359092024788,1.8954319999999996,33.45000000000001,1
0.3958906967910992,-0.078601344026865,-0.8813780617255522,0.07708390010458607,-0.003184793992281411,5.364385949603554,32.861637,-3.1135678757234095,-19.764011651550195,-41.95963341342204,-45.38340808521575,-29.998203340755474,1.8915940000000004,33.45000000000001,1
0.3924523007151922,-0.07801215662974362,-0.8831270007697195,-0.0020113485156908846,-0.003450968966087837,5.369192932333822,32.86371,-3.594714715607082,-19.296088253922886,-42.03994209898192,-43.97197117346786,-3.6188439525356886,1.897991,33.45000000000001,1
0.389178632127413,-0.0764109949457629,-0.8859559244713411,-0.035115702858613936,-0.003252956083080872,5.368517961059951,32.863464,-3.772455385733986,-19.715852005531694,-41.96050920086994,-45.27378059062813,29.478503744341534,1.8915939999999998,33.43,1
0.38916484491301184,-0.07588983607825152,-0.8854594511802097,-0.04852871628217548,-0.0041009049527506326,5.367132210695192,32.86482,-4.122861627303276,-19.453202397035,-42.039006721971134,-43.898356882020195,-27.83562469475517,1.8967120000000002,33.43000000000001,1
0.39078266822784535,-0.07693634322247768,-0.8849504526801161,0.05334731471934146,-0.003605947377503694,5.365615770279866,32.869053,-4.144210340794647,-19.636503550943516,-41.961518029346806,-45.48565599620103,-5.583552922153953,1.8915940000000007,33.42999999999999,1
0.390815853940912,-0.07781337114587694,-0.884009871973498,0.014639638398895509,-0.003961369372870008,5.365805980299658,32.871635,-3.6063364428207185,-19.601088397624057,-42.03790584099053,-43.78481841371608,28.16355504979653,1.8915940000000004,33.43000000000002,1
0.3875362467086921,-0.0789670532974312,-0.8860510571057536,-0.055297251285306985,-0.0031488206482166697,5.364025872065336,32.86968,-2.173194047810468,-19.831637577519956,-41.962736580907105,-45.481925447900565,-15.30059546786548,1.8903150000000009,33.449999999999996,1
0.3874262986676104,-0.0799562261462429,-0.8859931182210015,-0.044664032049244254,-0.00394572360909079,5.362395944621396,32.869705,-0.24119613267009893,-19.675095716291075,-42.03653323766027,-43.869621692530814,-26.275128749970317,1.890315,33.45000000000001,1
0.3887154212654546,-0.08234032360110079,-0.8825850640328997,0.07729294108617857,-0.0034171181354116856,5.361506924836854,32.872105,1.7049862431334393,-19.90001137770267,-41.964316846213556,-45.40889042407117,32.531539719923735,1.8724030000000011,33.45,1
0.3907717860178576,-0.08088472993812733,-0.8838192519146902,0.037130848778392504,-0.0038559184325945794,5.361591580416247,32.873238,3.2928383626100146,-19.70436671306042,-42.0346626306576,-43.67583627246815,22.724864131638004,1.8851970000000002,33.45,1
0.3908921143259133,-0.07975230246772483,-0.8843779092479707,-0.04519336675188426,-0.003267847125972422,5.360004837680598,32.876312,3.534991932463567,-19.953835787909902,-41.96661289012315,-45.394563768660895,-10.957607124239068,1.8890350000000005,33.44999999999999,1
0.3942016903015197,-0.07903079173883469,-0.8839897997734429,-0.015291136134339228,-0.003463031855753754,5.358024846518648,32.8751,2.4672033091368366,-19.730256974987373,-42.031703028189455,-43.70978052553062,-39.917258050289206,1.8877560000000002,33.449999999999996,1
0.3955528840625217,-0.0794967818931702,-0.8812877618590605,0.07389561243295759,-0.003262586165083648,5.3590389496153605,32.875107,1.1168973046342874,-19.57067470687194,-41.970701629353925,-45.87076309646042,13.451679768528782,1.8864770000000004,33.449999999999996,1
0.39408670924057476,-0.0787752961395333,-0.8828401446315596,0.004264101735477682,-0.003740773982317366,5.359949104804758,32.875378,0.1342598741254039,-19.467752981006377,-42.02542780404393,-43.50099364469282,27.187053898909095,1.8851970000000002,33.45,1
0.39221276287069484,-0.07819699726367271,-0.8839927828283688,-0.05767611340484276,-0.0034136990864104435,5.3572125497196375,32.877518,-0.6521081579034889,-19.808857429486284,-41.982195946142966,-45.295845716490824,-12.241177595017993,1.8813589999999996,33.45000000000001,1
0.3923546879107063,-0.07758929219221176,-0.8844065947023693,-0.006383819501909631,-0.0033935644500029064,5.356756313146464,32.881207,-1.3846277981346478,-19.39139300671661,-41.99552446200875,-42.78988389899445,-32.035459210542086,1.8826380000000007,33.45000000000001,1
0.3927141755593701,-0.07865290618840844,-0.8822303118040455,0.07108426149268995,-0.0033023786700816285,5.357134727981821,32.880104,-1.7896545051078878,-19.780692756956718,-42.21387626406808,-47.01385794755409,25.69791879877708,1.8839180000000002,33.45000000000001,1
0.3901875248077864,-0.07663155830779096,-0.8859477134189511,-0.025473668697162923,-0.003331472679103646,5.3591009666448794,32.879795,-1.9030290018641745,-20.67166642327381,-43.82217272012824,-42.45253887676448,21.17975364526766,1.882638,33.45000000000001,1
0.3888123248731306,-0.07625400925375847,-0.8870843781027806,-0.077928152263651,-0.003246321436227853,5.35582230823102,32.884594,-1.9821562952493605,-24.687391666351264,-46.0169442859604,-36.489745543551656,-27.87865969749682,1.8800800000000004,33.47,1
0.38974665104008155,-0.07950509346657751,-0.8850121431154834,-0.013882509021966177,-0.0032510622044907736,5.3543780292638194,32.882965,-1.852571497799611,-28.65868657058848,-45.81568146305699,-32.38034287634133,-30.332580391411945,1.878800000000001,33.470000000000006,1
0.38872417003743764,-0.07996868903081669,-0.8846397953213526,0.07113293245067948,-0.00326592970718533,5.353719414131597,32.884163,-0.4287348309174313,-31.356316111455616,-43.616265171458586,-36.36838212309633,25.198245574212756,1.885197,33.47,1
0.38253278453052125,-0.08326404220709752,-0.88518719928169,-0.049886123181629834,-0.003298545819779128,5.353858810819224,32.884247,1.8719019178460592,-29.065140553121463,-41.81972375945797,-39.08538096658985,-7.705581365285184,1.886476999999999,33.47000000000001,1
0.38283186940805697,-0.07854341031255675,-0.8884873921302895,-0.006844783406598453,-0.0033038629014123513,5.349456540573419,32.884445,3.824965146143361,-27.59218032820242,-40.22234996971541,-43.34304125170096,-40.39650114332106,1.891594,33.45,1
0.39436562166336186,-0.08433540552708019,-0.8816823529645181,0.08158215323687669,-0.0034308909611348052,5.351124362439314,32.887608,4.3202494260423,-25.37844969208493,-39.97710314220331,-43.5309690447358,7.066597115340847,1.8992709999999995,33.45000000000001,1
0.38814868322217266,-0.08558027071379361,-0.8850798097661886,0.005218682030164607,-0.004142517673013065,5.351053769578796,32.886967,3.2058972067110334,-26.345686692574013,-40.06120317022822,-44.20540236932598,59.58309527480096,1.9005499999999997,33.45,1
0.391822443460648,-0.07720867689766568,-0.8846240023976899,-0.06252036335084171,-0.003730274590362667,5.3509166744681025,32.88529,1.3098686315747343,-25.057162305961874,-40.66905910799019,-42.66032215420475,56.17167708037201,1.897991,33.45000000000001,1
0.38639187761779836,-0.08144225823191012,-0.8855035665583665,0.051613729606903344,-0.002924319422929866,5.349821119155597,32.8909,-0.4565317982831781,-26.093773234744596,-40.94262050338473,-43.31937082516821,-48.44364766255667,1.9043879999999995,33.44999999999999,1
0.38956150418231783,-0.07642409212400099,-0.8853597240197361,0.022032469236313232,-0.003446036947442319,5.3521673252082556,32.89274,-1.5587788224932932,-25.280502822414196,-41.16265845416164,-41.144215465247136,-23.175878763777597,1.8992709999999995,33.44999999999999,1
0.38741669633623005,-0.07916127026928436,-0.8860685458276825,-0.04390836044589531,-0.0037673468389081925,5.350190817654752,32.890453,-2.084626106277249,-28.718094510593204,-40.97482949544934,-42.22159063950205,15.010430524248763,1.9005500000000004,33.44999999999999,1
0.3906737842822602,-0.0759516256605452,-0.886629134377454,-0.027488618520396007,-0.0037993870277830593,5.351091199491631,32.892273,-2.4329397424246166,-25.916522291287198,-40.99202877972822,-41.01555175607401,-19.163246609186963,1.897991,33.449999999999996,1
0.38983437709556545,-0.08004453350164678,-0.8847090098726141,0.054335392513520375,-0.0035855822227657936,5.350609705316387,32.895603,-2.604563902030232,-28.8828112790536,-41.42491505014856,-43.1518458563717,-13.341592720070999,1.8890349999999998,33.44999999999999,1
0.38683110920905595,-0.07639917791856925,-0.8851019806603693,-0.02086523853432659,-0.003902452390174805,5.350248530820228,32.8896,-2.0124153203282926,-22.431748881319137,-44.059667451910464,-37.822466110912785,38.02470289243243,1.8992710000000008,33.45,1
0.37898402460492464,-0.08755760521764593,-0.8909230893771005,-0.07032683872104342,-0.0038500053707486463,5.351440880606475,32.89389,-0.32633125597964363,-30.31749632487702,-45.482345524062616,-43.62528443083776,-0.0752563051177608,1.8915940000000007,33.449999999999996,1
0.37766274131566663,-0.07176782415458423,-0.8903764883613238,0.025196103280729562,-0.003363890825329,5.354454899202023,32.89695,1.7738096856661143,-37.72118137251843,-47.162471673437345,4.38335626884705,-25.650204216201324,1.8864769999999997,33.45,1
0.38299886578401854,-0.07665570579722353,-0.8864530177392925,0.07638901002940998,-0.0037844434165292024,5.348915390433867,32.895027,3.793452907210053,-28.503271144389284,-50.97267835183282,-10.76923212748697,16.900904689570602,1.8775210000000004,33.470000000000006,1
0.3819250491327945,-0.0777587567906576,-0.8900327321717991,-0.05088984701756494,-0.003613295266344804,5.3440206217067,32.894123,4.623668232917603,-11.567744547989724,-51.65997252901882,-41.886700241664485,25.812212453862738,1.8928739999999997,33.47000000000001,1
0.38407605267126377,-0.07415546057102518,-0.8878415428925598,0.02931740353800734,-0.0042842680011719834,5.341125284558192,32.89694,3.6539579905110036,-8.744883616012073,-50.65284477238733,-36.434761019103114,-99.94962556433502,1.8839179999999998,33.470000000000006,1
0.38631915788571924,-0.07491706686662497,-0.8868912884370022,0.04258744942793475,-0.002978558525846948,5.342177032167093,32.897163,1.7742577605446428,-10.779852212547592,-50.0887076071806,-38.24689443468242,-83.53781915111232,1.9018289999999995,33.47000000000001,1
0.3851300483775975,-0.0709757222858174,-0.8876186103425467,-0.030337172585436552,-0.003632353674775524,5.34047659083273,32.897892,0.11217177907620422,-11.472023353472954,-49.65741329471508,-37.951962782319015,381.36001600322686,1.9043879999999997,33.44999999999998,1
0.3854770824429891,-0.07406371279360748,-0.8883288195726005,-0.04738644180715792,-0.003589560208857883,5.3390160690461625,32.902443,-1.339609139405418,-10.683833090108102,-49.14484738540547,-39.84697155976085,66.2335561930185,1.9031089999999997,33.44999999999998,1
0.3871148290548654,-0.07093660832471153,-0.8862291387063366,0.053795840882407325,-0.0031424032146543006,5.33797547896685,32.896217,-2.426439406676011,-11.964109534296895,-49.06257316463689,-38.51825045592308,-253.0331397142602,1.9069470000000004,33.449999999999974,1
0.3871999564004383,-0.07253394891259343,-0.8864066735679138,0.031932164342981184,-0.0035436448968796273,5.34124858940204,32.90055,-2.902459464452777,-11.008583376119715,-49.10017858470954,-39.065266121688424,-67.85487035574235,1.9005499999999993,33.44999999999999,1
0.3840489091817098,-0.07004735491301455,-0.8883256568993672,-0.048864865541511364,-0.003439508604889051,5.339248932312871,32.898823,-3.0022211592382644,-12.478321274465406,-49.16436761275554,-39.15709427012777,8.058391449476485,1.9082260000000002,33.47,1
0.3854447266926594,-0.07063581556130383,-0.8896345335880548,-0.042514887506565055,-0.0037212519779615517,5.339576498831725,32.902523,-3.025327155890667,-10.71414689111019,-49.21747103647549,-38.55604681490642,-2.590445655266064,1.905668,33.470000000000006,1
0.3840350084578955,-0.07085611263678217,-0.8883981078905534,0.03992720048628829,-0.0036378917414959556,5.338554189993233,32.902946,-2.7818538251813507,-12.733049290192627,-49.05761570010961,-39.20203967540796,5.573293746433452,1.9095060000000008,33.470000000000006,1
0.38176395210350456,-0.07383599117296177,-0.8904048964553944,0.016082438934239756,-0.0037364768249448003,5.33942644982645,32.90328,-1.706803427534977,-9.605572900980773,-49.726342562536864,-39.57131070433229,27.149566591928664,1.906947,33.47000000000001,1
0.37944890461126013,-0.07990732286258405,-0.8889259745178385,-0.07914458032546902,-0.0035270740454925622,5.33554001124565,32.902935,0.1416286203310291,-21.728549282981966,-48.91414199800499,-40.959594341686696,-16.420525723587314,1.9056679999999995,33.47000000000001,1
0.3812704410183173,-0.07108144437851824,-0.8871565361523299,0.024730854844688923,-0.0034864326584907682,5.335682153273985,32.904816,2.1566990105267303,-37.673064602849635,-40.69687845772364,14.763497212945028,-13.459668315305283,1.9018289999999998,33.47000000000001,1
0.38697907808438753,-0.07491252162329114,-0.886223122029304,0.08028843539206655,-0.003359442825738656,5.336888891626938,32.903,3.813220326524013,-28.255141723346938,-37.78488302431639,48.6626855979759,-5.440042493629464,1.8864770000000004,33.47000000000001,1
0.3869533921887977,-0.07270206608660994,-0.8869183904649981,-0.02491507633594677,-0.0035284041203159614,5.336649551187111,32.90565,4.042742780702659,-38.49937007485408,-37.75435092671477,37.910263893202874,-4.397107912232144,2.0003440000000006,33.47000000000002,1
0.3858956095850779,-0.06922388924753062,-0.8873370317053167,-0.02000152347842244,-0.0035950771839804423,5.331261317391502,32.90852,2.421962204651962,-42.382270206423634,-41.809828644917374,13.931827951861084,-205.90383220808275,2.0719899999999996,33.46999999999999,1
0.38813861956261064,-0.07378090008087468,-0.885631131913335,0.06405632639519657,-0.0032438053900344954,5.332832312149429,32.90498,0.14571280179635204,-38.825893633209624,-46.442154899754094,-16.91061677149127,-216.7403820352235,1.9721969999999998,33.47,1
0.38559085086013,-0.06713521750245874,-0.8874559660441704,-0.05679781711322976,-0.0031737715787177687,5.331301582413511,32.90662,-1.332645222760101,-39.433014980434564,-43.83301375118542,-29.91434661352833,261.09972889209166,1.8941530000000002,33.47,1
0.3856668972678712,-0.07005956758759976,-0.8877969340882388,-0.01765644731534395,-0.003453813259956608,5.329183531522401,32.908985,-2.0419417900081873,-40.51297512479014,-42.87537891723404,-30.533798902288527,246.48206658277235,1.8788,33.470000000000006,1
0.38772787527100694,-0.06834049878373205,-0.8864090974642992,0.044703135889942666,-0.0034345296345346167,5.326805653029008,32.905983,-2.3557429990658356,-37.18125023108507,-43.44540573280184,-27.871942556375664,143.26796490051362,1.8634469999999996,33.47,1
0.38597571241591433,-0.07124524994281016,-0.8885220216981655,-0.05689108487311777,-0.003364964113879096,5.326261710297363,32.907402,-2.1328895226589695,-39.01587109194923,-43.17027556513681,-29.48912706419344,73.74594585677252,1.8672850000000007,33.47,1
0.3824150715896628,-0.07032063885259188,-0.8884272375968365,-0.04252919843476939,-0.0034191968207998246,5.323200091743819,32.90932,-1.4531058778139365,-37.82714780744449,-43.779637815945456,-28.887330097408427,14.684028390219737,1.8519330000000005,33.47,1
0.3870576974488602,-0.07640818005018873,-0.8876984418214866,0.06532072181247293,-0.0035692903827612326,5.322407332747436,32.911163,-0.04298845250554685,-41.197727871801035,-43.48015514065651,-27.216401540588016,-187.55099154845283,1.85833,33.47,1
0.38455701888453026,-0.07616737277191059,-0.8846596439995517,-0.03388797459968409,-0.003738700452187149,5.320526616742882,32.91128,1.9278297613094109,-46.38445025897504,-42.65072138306758,-2.9976930588545745,-98.49264563007895,1.8544909999999994,33.45000000000002,1
0.3862971861304215,-0.07633116811803312,-0.8869653009721948,0.001774506092627382,-0.0037541235052580726,5.319334210783546,32.912735,3.780565033442832,-42.11899577529384,-40.942876170760364,20.370769232240715,-18.60844508074739,1.8570499999999996,33.45000000000001,1
0.3914452458506615,-0.07286724410135699,-0.8836130541803349,0.08161660890807672,-0.0034682191338662382,5.320179860187819,32.911407,4.571519435119145,-44.23023887543676,-36.351955876779826,31.020210959350887,-45.446278468380726,1.8915940000000004,33.45000000000001,1
0.3919831313425486,-0.07659600018015397,-0.8840101315948604,-0.02507663762528105,-0.00371658392324181,5.322500388315321,32.911022,3.8790237411294264,-50.33262663298573,-36.131602875967566,18.747862803919304,-77.72541661385277,1.9095060000000006,33.45000000000002,1
0.39241867106200257,-0.06909888793045406,-0.8827469193000448,-0.018559156439102893,-0.003211377377665618,5.317680185304075,32.913193,1.9813064831553997,-52.03455157781224,-35.817101192269654,11.721260233333277,-65.21235458715925,1.961962,33.449999999999996,1
0.39892425233052053,-0.07103310378957972,-0.8798042383092862,0.06517816920138886,-0.0031549105446655196,5.322528381501361,32.913433,-0.09434133645090317,-53.01033327442182,-35.843191996163505,10.765533971058348,130.8363055908423,1.9312559999999996,33.45000000000001,1
0.39741696215038036,-0.06555728067654766,-0.8812896463319194,-0.01178348634501021,-0.0035229013934720685,5.322951017738663,32.913116,-1.5034490667863207,-52.16343835289941,-34.7579864155258,16.355369433273385,156.0142913134552,1.9363730000000003,33.45,1
0.40092962702408963,-0.06761044610956299,-0.8835595090752973,-0.045702965774168956,-0.003665971636097458,5.320630145529189,32.916805,-2.285128383320749,-51.509221803293606,-36.47230574365294,-13.590019171996637,53.68932647486196,1.9197409999999997,33.45000000000001,1
0.4022455334040333,-0.06869543509842274,-0.877051986826299,0.003217004618574451,-0.003366339739756959,5.321839570231889,32.9155,-2.8284705811188124,-45.6012767919946,-38.46529201834357,-23.608533252739683,-38.42434520637112,1.9005500000000006,33.469999999999985,1
0.40459992906677744,-0.06736906284510984,-0.8757765888986744,0.0651037582887411,-0.003715858866216305,5.321969112672937,32.91162,-2.951847495894564,-44.81705553405346,-36.14716824023958,-29.966427730803343,-98.26281317514128,1.887756,33.47,1
0.39917872568175367,-0.0742754418290793,-0.8821775745722373,-0.07480858264978131,-0.0034993284766949182,5.322258598065205,32.912216,-2.628360307442855,-40.492368079756986,-33.641545849852186,-38.456054296526155,-20.781331300713614,1.88008,33.469999999999985,1
0.3938953014121449,-0.06980176216605186,-0.8837988827152085,-0.054794602338265296,-0.0036138254634217894,5.320579329280251,32.911232,-1.8403498372670966,-42.30549273776536,-30.353038936600697,-42.62356097992045,90.71728707832845,1.8762410000000007,33.47,1
0.39415825389934933,-0.0767768409177765,-0.8809941796191266,0.025213946383171332,-0.003801479944133513,5.3220076567069174,32.908558,-0.3345959297320867,-40.26318585796896,-29.10319468264427,-41.27450366210682,77.11593801264085,1.8749619999999996,33.47000000000001,1
0.3929641381990159,-0.07619426327530195,-0.8798395466742526,0.08057838319460299,-0.0034713285397423655,5.323245774889281,32.910908,1.6244741649499368,-40.85025116349385,-29.056648723415293,-41.70943963055584,-92.7107076831475,1.8749619999999996,33.47000000000003,1
0.3943757014310175,-0.07547258365486798,-0.8834868026282775,-0.053469696235531744,-0.003884590685943146,5.321184653113828,32.907917,3.1905146203974106,-41.24630694119502,-28.844123483233627,-40.164084258385856,-179.4661826870095,1.869844000000001,33.47000000000001,1
0.39614363800606417,-0.07383347151594886,-0.8825537385541824,0.014477967257546503,-0.0033970629840474804,5.320498895801573,32.910027,3.3227022962709567,-40.83825323093202,-29.12447787484572,-41.67540108787886,-30.402467303977286,1.8711239999999998,33.47000000000002,1
0.3995011292973945,-0.0737153056413425,-0.879403309377407,0.06062602861434955,-0.0036075967209145167,5.320397558817656,32.90803,2.077193600073588,-41.123883912587175,-28.89253322985418,-40.41413495455082,-4.552851982933178,1.8621680000000005,33.470000000000006,1
0.3976653284591562,-0.07264417876563425,-0.8806915131587347,-0.004107315795167294,-0.003696664611048955,5.32144097161824,32.909042,0.7233076249944779,-40.89685740916544,-29.09637542643223,-41.52509155330444,67.12593345751326,1.8711239999999991,33.470000000000006,1
0.3978377381724135,-0.07324331091827244,-0.8817556749618581,-0.05672708512034957,-0.00371421362119866,5.320330930341372,32.90664,-0.5388387718853174,-41.09059792428274,-28.91187200509781,-40.52052726709748,28.059656046303893,1.8634470000000005,33.470000000000006,1
0.3992905799369574,-0.07304004611755499,-0.8805712522462159,0.02454627654720726,-0.0032491822211541625,5.3217636899424265,32.90796,-1.6112075524205764,-40.91742359832404,-29.08113168631576,-41.44314111695013,-43.69508396516754,1.8660060000000005,33.47,1
0.4005190998627938,-0.07354690367074303,-0.8777454096205726,0.07011045472374715,-0.003475318176765089,5.3230668388702265,32.90831,-2.0841421492384087,-41.077289060902764,-29.05104995619101,-40.58684497502815,21.794445039406636,1.8647269999999998,33.47000000000001,1
0.39831153533467256,-0.07252263521817819,-0.8810290254505642,-0.031754037356319535,-0.0036027045705914057,5.325472618200738,32.906578,-2.114304503171901,-40.926235117310696,-29.06340811768137,-41.38800733815899,51.34835756854843,1.860888,33.470000000000006,1
0.3979035117835114,-0.07181058387839725,-0.8812417678758108,-0.048271265945308874,-0.003734864742739843,5.324632681144442,32.907066,-2.0773960601326458,-41.07143553456521,-29.097649367017862,-40.6325908138503,-29.168016244786187,1.863447000000001,33.47,1
0.39729499184663397,-0.07090650433088959,-0.8818057957758604,-0.012158716018017284,-0.003399389088971334,5.323848169820412,32.90908,-2.1557636848304016,-40.93005003255954,-29.191241170403295,-41.355412450405694,-11.561008116704068,1.8621679999999996,33.470000000000006,1
0.39952977655379934,-0.07149590299281541,-0.8803670028107669,0.0716962964099167,-0.003513051171256304,5.324778219909044,32.91069,-1.9952364557324103,-41.06908311441068,-29.021143164250798,-40.80408535038545,58.85227198343249,1.862168,33.47,1
0.395833247501399,-0.07293067229181659,-0.8828011288997064,-0.04310962468155226,-0.0040040940674931766,5.3246664393136,32.90983,-1.4805219202814677,-40.93131240199543,-29.074283589062546,-41.28157593294796,22.982974953482906,1.858330000000001,33.47000000000001,1
0.39271076929856985,-0.07361056762375091,-0.8839426616494118,-0.05717568612780794,-0.0030888460442020245,5.3225908628269725,32.909786,-0.32823424204306456,-41.06866692603828,-28.925291923833573,-40.83510044209366,-45.61714676750038,1.860888,33.47,1
0.3908270440427696,-0.07491830023259087,-0.8832847873848523,0.00014453045515044137,-0.0035976586571644844,5.324883920865977,32.910763,1.272918748919291,-40.93103963657013,-29.073352151455257,-41.292917460316886,0.9745351917182197,1.854491,33.47000000000001,1
0.3916258359549075,-0.07489285985154355,-0.8820577665114815,0.09364946130035583,-0.0034212321688980745,5.324823392772731,32.913036,2.8174967730981852,-41.06953484337056,-28.92801534042296,-40.727537848969035,51.668973768419,1.859609,33.45,1
0.3924314782031468,-0.07393192821627187,-0.8841510756716344,-0.019082241156287007,-0.003732938406376683,5.325012672570617,32.911354,3.7990710045907643,-40.92961808211358,-29.070802562967344,-41.25903357753974,25.947678293057702,1.8608880000000003,33.45000000000001,1
0.3945392213390994,-0.0729338167879684,-0.8828733472288536,-0.04099492732975223,-0.0037912237816174793,5.321450232508001,32.909637,3.395344251730733,-41.07151953599424,-28.930179298315146,-40.75219513425235,-31.30390675759358,1.8442560000000001,33.45,1
0.3975305961451107,-0.07317044270702153,-0.8812231331933194,0.007150339525077688,-0.0033777422965681593,5.3218984406185585,32.91198,1.951612484171005,-40.92699949365821,-29.069028343897013,-41.23798971537083,-20.35696343557036,1.855771,33.45000000000001,1
0.39882098803116167,-0.0731645380317397,-0.8792083413315657,0.07947970568238953,-0.0036552827679838503,5.323795793522544,32.912613,0.5119484131489611,-41.07493362334855,-28.931583387967525,-40.770509013966546,43.144999228070496,1.8519330000000003,33.47,1
0.3968420954814454,-0.0723284565059977,-0.8821058418142212,-0.048314617742043285,-0.003917469186125858,5.322033212793414,32.913597,-0.368322858583977,-40.922465156095775,-29.06798499137075,-41.2226936913794,18.126711083690584,1.8596089999999996,33.47,1
0.39701289171098225,-0.07157221852490304,-0.8818155801776896,-0.030205198775102506,-0.0028745575331263285,5.319275168099462,32.914524,-0.9984124899222634,-41.08126564814088,-28.932255118083827,-40.780656734102585,-36.352232790715306,1.855771,33.47,1
0.39781426783498847,-0.0715386994596981,-0.880891635012577,-0.010273959317167125,-0.003676474301242124,5.320744231293011,32.91576,-1.619945987089449,-40.91270339680965,-29.06772515403428,-41.23153273516533,-14.653959823989961,1.8570500000000003,33.470000000000006,1
0.3988377545344107,-0.07198598087055759,-0.8795590145597951,0.1027985331366913,-0.003868988469527132,5.322109006050192,32.915718,-1.817174610887233,-41.099792944747975,-28.932016062372675,-40.928777102349365,39.50360026999006,1.8519329999999996,33.470000000000006,1
0.39753186193509044,-0.07096541562360019,-0.8819322498025648,-0.06031853015066278,-0.003476732969883851,5.323957857567454,32.918617,-1.6267760119933323,-40.8446317890713,-29.068636035254045,-41.14626516532881,11.845604548908549,1.8570500000000003,33.47000000000001,1
0.3952981748195043,-0.07100191534389855,-0.8829862557302113,-0.04814450541460592,-0.003954634681230523,5.320378467096622,32.919777,-1.4449117131981855,-40.99987765494983,-28.93007514088253,-40.89910192131978,-45.03309106392994,1.846815000000001,33.47000000000001,1
0.39393253372969955,-0.07329485796395803,-0.8847449690884355,-0.053306291405604216,-0.003307871451955587,5.320960703506705,32.921886,-1.0536709131922737,-40.940950131656685,-29.072451728580397,-41.265567496467796,-8.542253442952294,1.8532119999999996,33.47000000000002,1
0.3926328640504042,-0.07488697146076044,-0.8821643505079962,0.1095373496586028,-0.0030463922756159847,5.320603732926624,32.920197,0.23947932313533157,-41.08335295987854,-28.921808917310567,-40.7726176440119,44.353261504986556,1.846815,33.449999999999996,1
0.38874770141802895,-0.07708679667561892,-0.8825621488885279,-0.022664152659923425,-0.0039549339587185775,5.322853565714468,32.92218,2.0316179850229106,-40.81299295457825,-29.09962413085218,-41.33273756752225,14.371917030932392,1.8544909999999994,33.45000000000001,1
0.3910425449731254,-0.07515105716223937,-0.884800093298859,-0.006497056850868561,-0.0038577133626138864,5.319113747947973,32.921753,3.398381738564449,-40.75916325371014,-29.050312837318312,-41.12896176389179,-47.17347301615626,1.854491,33.449999999999996,1
0.3942806660660274,-0.07533093665467984,-0.8834577647928514,-0.025803391522749314,-0.003894354336564618,5.318115515987659,32.92266,3.2418269700992246,-40.708745347182244,-29.039976915349268,-41.47656511340292,-20.17828212672176,1.851933,33.45000000000002,1
0.39570965003388386,-0.07356368925113842,-0.8820418173460107,0.11656668155686722,-0.003050164426083209,5.318134658283569,32.92626,1.957903909302946,-40.758467077415894,-28.949581721726815,-41.51794185936637,47.96556100563457,1.8519329999999996,33.44999999999999,1
0.39352549894958844,-0.07380761524383182,-0.8840584500654898,-0.03191505915177798,-0.004016911600478004,5.320622089657156,32.927654,0.4953795139777419,-40.5003429489897,-29.0549447009147,-41.44719786366154,18.660531534713282,1.8519330000000003,33.44999999999999,1
0.3932400836666893,-0.07043414870719547,-0.8845250725983249,-0.032429404803805545,-0.0035386962607844804,5.317732547183771,32.925507,-0.7668826216846775,-40.336942945892076,-28.941991522843633,-41.296065684421734,-27.58649224367998,1.8532120000000007,33.44999999999999,1
0.39450146026369864,-0.07157052250068095,-0.8825478168184345,-0.052769858721549524,-0.00340751349212439,5.316944327883279,32.92915,-1.9382070555949609,-40.32481023185335,-29.06084765141663,-41.2484126622893,-29.10676261646054,1.8493739999999994,33.449999999999996,1
0.39620404339645454,-0.07029024059114299,-0.8814747979079158,0.0973685082084699,-0.0029132425609004046,5.316836341991625,32.92892,-2.6726098570666226,-40.61679642113609,-28.935723893403424,-41.259808368237366,38.339365201500726,1.854491,33.469999999999985,1
0.3960304586066583,-0.07144327902222285,-0.8819463748168227,-0.024381077124655995,-0.0038640767879318206,5.3183977760158205,32.926838,-2.744723359226653,-40.64695435647201,-29.069638430533345,-41.46297626273692,13.027481476912481,1.8429769999999994,33.46999999999999,1
0.3922079038429952,-0.07232765060684386,-0.8857288778787424,-0.05905740806164594,-0.0032472045730503473,5.316825144870252,32.927906,-2.292909223968238,-40.32252415554003,-28.91839506049105,-41.42579816883172,-29.127505462952215,1.8493740000000007,33.46999999999999,1
0.39112040188568414,-0.07530936348076067,-0.8841038144996666,-0.06325031754730634,-0.004034558838752087,5.316108331722926,32.927906,-1.3426955533999705,-40.15516459808763,-29.153603200484135,-41.76200813554529,-32.13604719037537,1.8468150000000003,33.46999999999999,1
0.38955638274685855,-0.07821020546242345,-0.8846829517442867,0.08388002955485285,-0.003127402914073763,5.315837786675895,32.929604,0.3575981869083548,-40.09096894107336,-29.00248800735849,-41.30733563992103,43.20980895041226,1.848094,33.45000000000001,1
0.3862611967190301,-0.07821800184515112,-0.8831800116426213,0.015979806048234006,-0.003690382456060807,5.317742593251484,32.932163,2.3447004620716774,-40.22467517947433,-29.034549783802472,-41.79035814060436,14.914801236259077,1.8468149999999994,33.45000000000001,1
0.3871383752904775,-0.07714701678139232,-0.8870566892688004,-0.025803955840323422,-0.00363258391573487,5.314256080973269,32.933533,3.9300547598835873,-40.204365197601234,-28.95584401516643,-41.725860893829186,-24.76076722623582,1.8468150000000003,33.45,1
0.39161737637693883,-0.07714148004067298,-0.883937429341414,-0.01436476466293248,-0.003733122143413344,5.313748758996463,32.933506,3.8336313526575037,-40.1961563756188,-29.049224134630283,-41.6250119021777,-39.40429061164189,1.8468149999999999,33.45000000000001,1
0.3937907733675889,-0.07622027108382767,-0.8830129285254057,0.10138312671253732,-0.004054138854325992,5.313322459688604,32.933678,2.454981086349743,-40.16774605760666,-28.9470520506338,-41.80890303201194,42.601612108454084,1.842977,33.47,1
0.39406560496063264,-0.07624183472608531,-0.881719841590066,-0.028998770631084244,-0.004276065712289753,5.316261908398728,32.93601,0.9910972448636874,-39.884100264949375,-29.05641050249394,-42.124185857093345,16.742733434489228,1.8519329999999996,33.47000000000001,1
0.3938198953122654,-0.0753306187204089,-0.8846732221906589,-0.02826117952342512,-0.004373840130350599,5.313447210360781,32.933796,-0.1831891983180777,-40.10400793096341,-28.93964053359644,-41.70049382576555,-14.612829552443628,1.8442559999999995,33.47,1
0.39529448808134915,-0.07442258580327213,-0.8820798620538549,-0.041844408877994795,-0.003151117796486032,5.314274763175358,32.93426,-1.2680105699709106,-39.88346679610546,-29.065988881120518,-41.96635368280719,-40.723599248497045,1.846815000000001,33.47000000000001,1
0.3953515283578557,-0.07455586818746021,-0.8829029729592542,0.06463323041386708,-0.0033693821344261904,5.313336288505078,32.93733,-1.8880587669821538,-40.11482191704058,-28.922468334433763,-41.97685908445683,29.52912341683224,1.8327409999999997,33.449999999999996,1
0.39703629106135313,-0.07479410990857045,-0.88023251400445,0.04615923734770285,-0.003751224881667448,5.31732493587375,32.936287,-2.037642039153388,-39.908645202841456,-29.167081831243422,-42.08051262922272,14.440560374349943,1.8442559999999995,33.45,1
0.3949129640010066,-0.07274972892199183,-0.8833694776068292,-0.05151987836234044,-0.0035704323128673636,5.316316391000017,32.93747,-1.9132131948058284,-39.9818261712221,-29.079187386587524,-42.0563213587737,-28.108137581121316,1.841697,33.449999999999996,1
0.39692486023923296,-0.07418222239535616,-0.88241527998324,-0.052758462631076086,-0.0028953613517288764,5.316969985473379,32.940815,-1.9818593950229624,-39.878132531245036,-29.136155628892386,-42.06192396333045,-20.132596859104947,1.8429770000000003,33.45,1
0.3923573201467874,-0.07490416229022563,-0.8836355750682433,-0.02710291177193568,-0.0037445432793097033,5.3159756035943175,32.939396,-2.0074764660450066,-40.11446721167167,-29.024498852782713,-41.943581140004284,48.49880675376956,1.841697,33.43,1
0.39121577775219674,-0.07758235711038759,-0.8843237825744981,0.0921327929491746,-0.003833960202226842,5.319120418653257,32.94202,-1.1396525706859157,-39.88561173116386,-29.030830643921586,-42.05124043177527,9.580780379022407,1.8404179999999997,33.43,1
0.3847171145369757,-0.07772393086406922,-0.8855817249141401,-0.039829973290679346,-0.0030482837724101477,5.319053049721539,32.94186,0.5740654327477729,-40.11666587898506,-28.955303015611968,-41.95398659365868,-2.728034634603525,1.8416970000000006,33.43,1
0.3849148036852741,-0.07799641544545471,-0.8867784586135633,-0.024715994816232437,-0.0035170011659966015,5.319283768250377,32.939377,2.158392111026337,-39.879424130851135,-29.05358449195809,-42.04050262244475,-57.74493665037584,1.8378590000000001,33.43000000000001,1
0.3887250404213174,-0.07739093845140056,-0.8862880345121742,-0.005705740935961612,-0.0033674704913481436,5.31787559855393,32.940796,2.8328425732843647,-40.12617157754014,-28.93769919968581,-41.965501406612354,18.247811353263536,1.840418,33.45,1
0.39267227371902136,-0.07679066644856461,-0.8828837340112808,0.11604899587342286,-0.0039047935435461163,5.319182160087849,32.943245,2.401613726618181,-39.86604171945073,-29.07389590930671,-42.02776946533863,25.815157536760086,1.842977,33.45000000000001,1
0.3920608937512453,-0.0756417415830197,-0.8843421660227013,-0.04791063165047913,-0.004109441720490274,5.319294509895627,32.940994,1.3276094246627517,-40.14511561166672,-28.904683732998723,-41.979966901106785,20.401325027939723,1.8404180000000003,33.45000000000001,1
0.3938017100895761,-0.07546486743812009,-0.882924169633878,-0.012905707555481021,-0.0034428709463371478,5.316526694763458,32.94383,0.1985429894371618,-39.83746427859709,-29.176896121191735,-42.01094979317275,-42.11483451565226,1.8352999999999995,33.45000000000001,1
0.3931427598598986,-0.07514912705928523,-0.8830313133056911,-0.04606264335632136,-0.0027496266380353726,5.317109687123948,32.94387,-0.8913040301737378,-40.196042398726476,-29.118214025524775,-41.999796673039796,-15.294533982810863,1.8391390000000003,33.47,1
0.39483542384819,-0.07526888086562628,-0.8823898762747243,0.11763645799963204,-0.0042303790771059694,5.31823545069847,32.94386,-1.5071903226701733,-39.66191386593714,-29.099798051188973,-41.98808076357508,31.81722396886547,1.8378590000000001,33.47,1
0.3940988580560923,-0.07454371429869468,-0.8821402260179778,-0.03810871071298606,-0.0034591025182441185,5.3177968672025635,32.94667,-1.6698474220575739,-40.05430262967037,-29.03088692717646,-42.020057026043645,14.251497504509718,1.8353000000000006,33.46999999999999,1
0.3943808182694285,-0.07295594111354854,-0.8842200510073451,-0.022324876543331745,-0.0031088399802651208,5.317103528199827,32.944267,-1.6707898124388085,-39.718332501786136,-29.026485832075767,-42.095638749903515,-38.893707621635194,1.8365799999999999,33.47000000000001,1
0.395838089650598,-0.0741887155570131,-0.8829296921124298,-0.08187472636353807,-0.0035958652424479365,5.313876462565392,32.946667,-1.77648431184724,-40.05440220985037,-29.094343039422668,-42.29078706267357,-5.778674662992187,1.8327410000000002,33.45000000000001,1
0.39395280912757574,-0.07407611291531704,-0.883633782184781,0.05729434922436879,-0.003919987412884402,5.315425408753803,32.950325,-1.7350580918230234,-39.52499897260928,-29.04127118945311,-41.67808200872766,32.280110397798076,1.8391389999999996,33.45000000000002,1
0.39089899073664947,-0.08091539200517206,-0.8835964740586123,0.02291928190574908,-0.0035097020648802036,5.317898061411424,32.948288,-0.8896127634608929,-39.94082355877635,-30.025745705186388,-44.599136887841205,14.207924127165494,1.8353,33.45000000000001,1
0.38424925520567965,-0.0780038701889652,-0.8884506212434062,-0.03172290142194519,-0.0034705421593204163,5.318784602322998,32.94933,0.943750083636418,-36.72989904680328,-34.11880057100945,-40.880340498932085,-32.53139692384342,1.8365799999999994,33.45000000000001,1
0.380165197833441,-0.07674900678886562,-0.888124313589865,-0.0601235046814819,-0.003687673492305618,5.3156531661436075,32.946297,2.719500754524116,-31.864131837249808,-38.53593687569566,-37.353457806440574,-26.409715595009565,1.8353,33.449999999999996,1
0.3863289344893229,-0.07939122786348894,-0.8864402956156258,0.09149442469644739,-0.0036705905429118553,5.316773079169381,32.947853,3.8760197850599045,-32.652263129594864,-38.642435354607585,-40.48218615065314,35.75397884283399,1.8340209999999995,33.45,1
0.389903933270996,-0.07511972661414781,-0.8840561815332924,0.04367387678216603,-0.0034952027968782754,5.314301334933309,32.948807,3.8941110575173465,-36.80944176100024,-35.94383832947992,-37.61653504513257,34.889483176327644,1.828903,33.45,1
0.3914343992196882,-0.07769298171974669,-0.8852245328833065,-0.028113479439343197,-0.0028158784914772976,5.312047538902529,32.949738,2.6741385894297007,-39.4987136029922,-33.11624350712725,-39.40251326183169,28.44839827043998,1.8289030000000002,33.45000000000001,1
0.3925356596353451,-0.07468813989672034,-0.8829307261240915,-0.051654704333564755,-0.003351711248443455,5.30929901450248,32.948307,0.7813915797996791,-44.139569466104994,-29.840335511300864,-38.84710291905226,-39.046283096579124,1.8327409999999997,33.45000000000001,1
0.394406187782668,-0.07287809960904297,-0.8811944022890302,0.07333624086283454,-0.0034954245924519885,5.3106507460557815,32.953194,-0.824316487533538,-44.295179135281295,-28.737392137421047,-38.605929950617984,-29.222320946228873,1.8327410000000002,33.45000000000002,1
0.3936524323566121,-0.07704618093088238,-0.883785384878953,0.03791419932706097,-0.0039658055530495,5.314914008553785,32.953175,-1.4691133984351512,-43.70779345503585,-29.897492977199537,-38.112221569434055,-20.569808753999148,1.8340209999999997,33.45000000000001,1
0.392875199763557,-0.07662314130197874,-0.8842408538953642,-0.050159936700660566,-0.0035358961141555645,5.317605899668062,32.95181,-1.5169712621123002,-48.74547104287802,-30.29814988456729,-31.404765284412314,-11.754580050344266,1.8314619999999995,33.45000000000002,1
0.3930911479018472,-0.06411539702411129,-0.8844016957054719,-0.03341601233131614,-0.003577510628561384,5.316899267016249,32.954403,-1.8282953808872078,-48.81207328861459,-30.51790011882328,-27.10905305328836,14.47123088820947,1.8353,33.46999999999999,1
0.40002567814632656,-0.08018377938661238,-0.8806665929370151,0.0006377801718406854,-0.0037421028430720555,5.317806519012836,32.95237,-2.21320416342596,-49.065010933048406,-30.145723814973657,-31.759437638498184,6.560425426243625,1.8340209999999995,33.47,1
0.39785751239442807,-0.07375654573161075,-0.8813919078979089,0.057555070256974254,-0.003375147688146555,5.3183207314968906,32.95513,-2.2469558431125436,-49.421609077828734,-29.16831872705193,-30.27844172661569,20.83311762058065,1.828903,33.46999999999999,1
0.3867917151404263,-0.06934091393584767,-0.8857105527384899,-0.04468404494621016,-0.003488266284453331,5.3219749862492804,32.95511,-1.463997816185436,-48.94766596081601,-29.432908038447472,-31.680990666665533,10.261848250874044,1.8314620000000001,33.47000000000001,1
0.38231737378723424,-0.06685247814123313,-0.8906174900742885,-0.04041324279107109,-0.0038798842017553057,5.323092267678729,32.953617,0.2871227602763248,-47.056047742585385,-29.231719820154684,-33.56696122158289,-65.13524672869896,1.8289030000000002,33.469999999999985,1
0.39229191065454333,-0.07928821155319177,-0.8804591402044067,0.04785969366331328,-0.003654913455380287,5.322151158904888,32.95567,2.180433383635161,-44.62094841314759,-29.988497736167368,-37.9648629838792,-17.997400521091777,1.8225059999999997,33.469999999999985,1
0.3932310594119534,-0.07348914014961,-0.8842537089833079,0.06237913763566239,-0.003341442136252834,5.322009697947454,32.954926,2.968112202986544,-46.20315721930739,-30.283284334353556,-32.6772674290485,83.23492105342794,1.8212270000000004,33.469999999999985,1
0.3955276222196965,-0.07643647502464783,-0.8824772432129405,-0.0562245172619645,-0.003615540817569451,5.323911206005197,32.952602,2.371032349634604,-44.962423599279184,-30.92052562668982,-34.58535711620631,135.33697398715265,1.8199469999999995,33.469999999999985,1
0.3919091289274937,-0.07320754988237442,-0.8858088180754357,-0.017457051813744885,-0.003440884421359612,5.323118920981019,32.954033,0.7560564386880234,-43.34353021545867,-30.489395633977217,-38.214454984350645,57.025270062977526,1.8097120000000004,33.469999999999985,1
0.39830018054777117,-0.07776732440392825,-0.876869582202645,0.061680619971878604,-0.003669683327991207,5.325616217398189,32.954033,-0.8949236261908013,-44.04378339785025,-30.1585869858186,-36.72653467385429,-65.39117618524328,1.8225059999999997,33.469999999999985,1
0.38908369336361975,-0.06726245296953207,-0.8850180397898898,-0.0014799621797433442,-0.0030288047580449584,5.327570645766572,32.95452,-1.7881939758320924,-45.101162408803695,-29.227423524841406,-35.802729384662356,-92.82926501616308,1.8161090000000002,33.469999999999985,1
0.38205652319256694,-0.06907030239486812,-0.892973202093014,-0.06196315824693548,-0.003748391467600381,5.328565281315001,32.953075,-1.962493211676227,-42.92381264105804,-29.311215636473417,-40.62065437387368,-62.72733793670633,1.8161090000000004,33.46999999999999,1
0.38778447960829865,-0.06995568391029319,-0.8860719155801312,-0.0167550217096984,-0.0033752418350833117,5.324620717494247,32.953026,-2.0283513804239193,-45.51554445764526,-28.645030146342826,-38.43760133661236,-83.2363273457651,1.8161090000000004,33.45,1
0.3926862859549844,-0.09429476883590877,-0.8832037168481611,0.06098000448180796,-0.0035028664502826487,5.323496889299686,32.951836,-2.135000985092194,-44.25680976163045,-31.143936049943534,-40.435352899714275,-31.17727768221034,1.823786,33.45000000000002,1
0.38866578145831293,-0.06836594608113815,-0.8852801766613195,-0.029943510968145154,-0.0034484439879054417,5.32380005552639,32.95226,-1.7311809252035566,-44.350819069407486,-32.825180345335156,-25.123982866926312,6.265769253426462,1.840418,33.45000000000001,1
0.3795301888854586,-0.07598161202148827,-0.8895864576675822,-0.08457383725054152,-0.0034185488647497015,5.324554434465436,32.95297,-0.39376843819728746,-54.332667385271904,-29.776109482753718,-20.778914251645734,-64.47020352170539,1.8404179999999997,33.45000000000002,1
0.3689343615819182,-0.07607439147775531,-0.8928392320847719,0.02400742327450825,-0.0037228894298868775,5.328042350425524,32.950394,2.3402063684772343,-48.5025357365954,-29.235336264069005,-36.05132473929537,-12.493522230108475,1.8263440000000002,33.46999999999999,1
0.37196473774171407,-0.06225639494964164,-0.8951220602353889,0.07825626034263905,-0.0036369429181271435,5.3314753988412225,32.95162,4.897986734912424,-46.86479074944157,-27.782448203482165,-35.21284720404327,224.56403513781333,1.8289029999999995,33.47,1
0.3718157758833895,-0.0665891355551638,-0.8939422587877891,-0.02002942378097661,-0.003387414814950107,5.3268809262731756,32.949093,4.976026958792004,-45.81327741406529,-28.165021196438893,-36.79093892474246,59.471806425186045,1.818668,33.46999999999999,1
0.3779092464098972,-0.058481474804290355,-0.8925131527997328,-0.014002999113597975,-0.0035438900340934057,5.322718436202657,32.948215,2.9553380374769196,-46.29126265160327,-27.917883058573704,-34.79160947548337,-198.64940607680495,1.8225060000000004,33.47,1
0.3884658093077432,-0.06710008990472867,-0.8867159693241005,0.07261578112677815,-0.003070972151307665,5.318389675466961,32.9483,0.45184096280296615,-41.710798462450825,-29.63388042624479,-42.74975030277097,62.26345824020705,1.8199469999999993,33.47,1
0.38775919745071924,-0.06011459344219082,-0.8850674245499948,0.013074827377794475,-0.0035469956802395438,5.316024984302714,32.942894,-1.3544643363652784,-29.776907388654685,-35.29293908080569,-48.61479786497823,18.843674747842588,1.823786,33.47,1
0.38422536872680213,-0.05704890644531145,-0.8893690831382477,-0.05969344347227415,-0.0032523661995412876,5.314232508534236,32.94722,-2.425637248764449,-17.909266367543143,-42.30444816744209,-36.85174322637732,-25.302854541064637,1.8071530000000011,33.47,1
0.39102616748236707,-0.060432948262173845,-0.8842860689441205,0.003540174893874265,-0.0036268101533446506,5.314538890065965,32.94707,-3.071527252601064,-4.1326529481741145,-42.68709421865941,-46.7481172922383,-20.62430324257117,1.821227,33.470000000000006,1
0.39005235896909773,-0.052985027822793435,-0.8829330882539529,0.06618189302786316,-0.0042673659121286985,5.3152459082267445,32.944557,-3.305382187076199,-1.8905240048427054,-40.670469531094234,-51.96286654753151,160.53371908506313,1.841697,33.47,1
0.39159976858290657,-0.06257087388649789,-0.888684950693542,-0.05562851008273196,-0.003802999815338412,5.317335372966336,32.947067,-2.974062741839554,-4.621001894329279,-42.54971585463345,-52.279775985234714,53.17573568338672,1.9031089999999997,33.470000000000006,1
0.38810469055061675,-0.05256228079561353,-0.8864102531110613,-0.07250548835185319,-0.0038609910542510865,5.312564846146422,32.942616,-2.484059869319675,-16.34531308939943,-45.982054099412416,-36.89743702820239,-199.5684282596611,1.8954319999999998,33.470000000000006,1
0.39047597913846044,-0.06246930323552602,-0.8837933453519969,0.039252700218739195,-0.0036106010147796447,5.313408800479075,32.94754,-1.4082487243470063,-34.89879088933848,-47.271355719211485,-23.195354508342014,-5.276949333260684,1.8583300000000003,33.47000000000001,1
0.387731202140836,-0.06175679542642462,-0.8825937831321373,0.023230347776524916,-0.0037696278470142593,5.314705206084734,32.947502,0.6483125328870851,-30.324064942916646,-48.443852057888265,-32.48490581913647,110.93905821965836,1.8353000000000002,33.47,1
0.3872780634552499,-0.05469603256363109,-0.8848994324105468,-0.04370264941042523,-0.004096208139426117,5.315144078137045,32.946835,2.7699418486348257,-28.403074894349793,-48.769187213782665,-28.735686735260117,11.451690575055224,1.8263440000000002,33.47,1
0.39460503335720865,-0.0568981605872033,-0.8843969753322228,0.06792989115564341,-0.003320647998303207,5.313954413113948,32.948006,3.644647069983807,-29.172040892379876,-48.79721484567964,-31.08881846535254,-122.82825319827027,1.8237860000000006,33.46999999999999,1
0.39268380210777554,-0.05162508557471073,-0.8824971767996878,0.021264102015245454,-0.00322401380071866,5.314996692137806,32.947758,2.6732411916693324,-27.55796576219773,-49.061125369135524,-29.972700971890216,-136.1709147404977,1.8212269999999997,33.47,1
0.39098057847664897,-0.05205690691608358,-0.8856794117687097,-0.048820268017996306,-0.0029255635278128316,5.312565370281833,32.949432,0.8633313574355179,-27.814289535178226,-48.971739583182476,-32.01838125638406,120.92286921210446,1.818668,33.45,1
0.39103907442093416,-0.050757916173572434,-0.8847339861934779,0.02608514494798297,-0.0032954182845290714,5.312820465087539,32.948982,-0.7415312210804447,-26.94872579478677,-49.01303624823244,-30.942093580773278,16.14055787337063,1.8212270000000004,33.45000000000001,1
0.39036826743050573,-0.049736907878968416,-0.8829388104669273,0.024513318730133946,-0.003956709236977954,5.313334389014993,32.950043,-1.5794731895787468,-27.71663055070978,-48.990775262636944,-31.935326167510244,-18.682621503923414,1.8186679999999997,33.45,1
0.3892211887581778,-0.049103429226083566,-0.8846813507253473,-0.0626705204792766,-0.0031063278017416343,5.311982495251051,32.951252,-1.9806318161718832,-27.858721831341658,-48.8572333686436,-29.872575609692326,58.75602181308498,1.8199470000000002,33.45000000000002,1
0.391314382835779,-0.048475812015143435,-0.8839298019962103,-0.0073670481082209974,-0.003142877454162084,5.309356849384367,32.95059,-2.4214526187290697,-28.23961385922866,-49.0596454007279,-31.908541045613557,17.860940697722878,1.81483,33.45,1
0.393713794509116,-0.04913498202106771,-0.8832768823060969,0.060372214041267955,-0.004614783493316359,5.313259038340619,32.953037,-2.5631281236128673,-28.77451032613958,-49.31201000645355,-29.07353553753368,-44.73305060196604,1.8212269999999997,33.45,1
0.38880738176151447,-0.05095003040020854,-0.886027769984986,-0.04242228704362268,-0.003777802679468593,5.313195872691254,32.952515,-2.041643643165772,-29.14840794556569,-49.89816842348363,-28.41490874745756,19.137948609616462,1.809712,33.45,1
0.3818988906168328,-0.05054840401971317,-0.8887976303784664,-0.06755919477430396,-0.0037099774060484064,5.3124340448752045,32.95426,-0.9048800699808017,-29.270545980537737,-49.76672375182949,-28.44924528691503,-7.258319228379674,1.8161090000000002,33.45000000000001,1
0.37959973712959416,-0.05343871033095891,-0.889910283635577,0.04618263329492507,-0.004651966907565315,5.313059245628265,32.95554,0.6642351924966179,-29.312148739304405,-49.809867838265006,-29.34331119404725,-25.75121479751153,1.8122709999999997,33.46999999999999,1
0.3733436545909485,-0.05465413886651786,-0.8896939927761129,0.027787326192262225,-0.0035114945353056947,5.317447962687239,32.95704,2.525544998279548,-28.650998163780674,-49.824965612441176,-28.527013091512867,20.060740615109903,1.8135500000000002,33.469999999999985,1
0.37444286473049315,-0.0511374371662175,-0.8938548153202722,-0.03475251196001552,-0.004005414396836982,5.315318951393019,32.953064,4.351021037872279,-31.008517671804594,-49.38443374665761,-28.918516689502056,48.80814650191537,1.812271,33.469999999999985,1
0.38203440423997204,-0.0532609308988014,-0.8888712155455455,0.06015833608040696,-0.0033786877967662476,5.313631623217588,32.956196,4.620024378854124,-27.554633639270236,-48.97917188863528,-27.49248240267729,-14.54548721666654,1.8135500000000009,33.47,1
0.38103179803692194,-0.046710828933332435,-0.8888590246304485,0.05657112761858425,-0.0038940135665863707,5.3122884257779655,32.960976,3.228547127149151,-18.320248930700814,-49.4855853770293,-38.575599176842815,-7.640872289869414,1.8033149999999998,33.469999999999985,1
0.3817981214517428,-0.056018308216009255,-0.8899106029028346,-0.05032928498652999,-0.004015974836830208,5.310551422314209,32.960556,1.3506973027780278,-17.884108556739886,-48.377904904618326,-32.96949596744152,36.896694374030545,1.8071529999999998,33.47,1
0.3830907667345803,-0.04285171961974107,-0.8851256597331678,0.005964898696506511,-0.0036624136566564573,5.308559900122857,32.96045,-0.37427985725765295,-23.384615919489462,-42.451209977392686,-43.10497311248784,4.426128616878629,1.8135500000000002,33.46999999999999,1
0.3836036228577196,-0.027857104374055457,-0.886405709419009,0.04282081583452253,-0.0034949514395705324,5.313591995345642,32.964005,-1.8119964366094006,-48.81887489053084,-34.59621071047805,-35.162990593396714,13.46215845398319,1.8045949999999997,33.47,1
0.38374203624685727,-0.030706086081466008,-0.8859360619427281,-0.04189220186337993,-0.003404067281850409,5.315198127340293,32.962513,-2.7914042531759278,-43.682278302584486,-38.15272597053964,-14.8652305810436,116.51921193728447,1.810992,33.49,1
0.383991996974186,-0.015615192254711892,-0.8900820311484009,-0.05077536135241465,-0.002948942231963466,5.316212610120341,32.96411,-3.356240645933184,-50.56294794654571,-30.819235756314495,-22.886973362517494,-11.196383175880184,1.8045949999999995,33.490000000000016,1
0.3842240925682636,-0.019967637592342727,-0.8876082965175773,0.034614188313260186,-0.0035870199925454186,5.314799075547125,32.960472,-3.3758901474147445,-52.381666091746055,-27.820066679528416,-36.22105099931323,-89.15084675176946,1.8135500000000002,33.49,1
0.37862523598562536,-0.03027701534660519,-0.8880882014102967,-0.05457102045753425,-0.004103555346408357,5.313798229306131,32.96067,-2.0176044294932716,-52.484283235233534,-32.92129185948138,-24.864911533505484,-36.57233666818124,1.8289029999999995,33.490000000000016,1
0.3796518814640287,-0.028851933819334374,-0.8869660934961168,-0.028878528835820302,-0.004013958803091088,5.308077158801403,32.960087,0.3032783862188553,-46.13616852772598,-41.73293654092902,-11.25226326502847,132.51877368749462,1.8020360000000009,33.46999999999999,1
0.3860838184080649,-0.04046790971729128,-0.8864127137325909,0.07370935522054022,-0.003537585835751867,5.307196765747994,32.956303,2.4676395770382906,-32.4789248673541,-52.19821538637006,-4.438621465893659,-84.4435009194937,1.8058739999999998,33.47,1
0.3816672751412106,-0.030827144763064345,-0.886854572189764,-0.012183322526829318,-0.0036566437351981027,5.305140771811677,32.955242,3.530259724989982,-33.20260931934519,-53.67061547009069,1.2485020303992487,-43.60886644635893,1.8033150000000004,33.47,1
0.3827907119934447,-0.03460682013225759,-0.888952046509372,-0.00831967674324766,-0.0033993684233682656,5.303104116001708,32.95183,3.1357923718331837,-33.91772646473137,-53.87024485358305,-0.05845181907212906,-129.0049904386254,1.8084329999999995,33.47,1
0.3839144359850226,-0.03613484591689671,-0.8858774689573199,0.06493151221875697,-0.00383034863016781,5.3040081865393045,32.953564,1.8895887180127238,-38.09790844621955,-51.686519390158985,-0.6830391358673935,-42.17822904057448,1.8071529999999996,33.470000000000006,1
0.38418228660065545,-0.03206701369796547,-0.8875217381088059,-0.033732399180847306,-0.003562801917891921,5.305351005216598,32.95034,0.9641208475496702,-39.250273634833846,-51.15455804098472,-0.36189160170038986,53.13028421190054,1.8045949999999995,33.470000000000006,1
0.38331605158922044,-0.03875874887853667,-0.8867442580154725,0.010571776851929197,-0.004266438037341944,5.30260174095105,32.94913,0.6322307665999133,-38.88161623370327,-50.62966162517362,3.3352486554327796,66.36218080040537,1.8058739999999998,33.47000000000001,1
0.3835429210205386,-0.03286335398487636,-0.8863570211824312,0.03078015246335316,-0.0036101248054201595,5.304795401825602,32.950665,0.44907646309736876,-37.45914396819452,-50.89691355330494,10.560318157660005,1.5734626572014523,1.8084330000000002,33.47,1
0.37637064366526285,-0.039041718573137936,-0.8910039312246516,-0.047333873525647475,-0.003338120099157526,5.302971808478691,32.949516,0.23748874701645303,-38.374851885553625,-51.363232314757546,-3.3043497354609657,-3.5658655164387367,1.8199469999999993,33.47000000000001,1
0.3782719419150067,-0.035358181157155846,-0.8896933709277371,0.03728680823105501,-0.0035310774703079606,5.303330639939821,32.947193,-0.8907213279069142,-31.270240392981332,-54.36471604622617,-4.258206040271059,6.692055857947668,1.8161090000000004,33.470000000000006,1
0.37936151344103686,-0.03587491044642074,-0.8895945589499906,-0.0038461242740491183,-0.003868970645671799,5.305590501993613,32.95207,-2.2430819644737165,-37.649889751708116,-52.642076248223674,-5.852376158666173,-22.988730968772863,1.8084330000000002,33.47,1
0.37843659866572565,-0.036431433209253176,-0.8896567179621625,-0.04160386725481873,-0.003816266579676078,5.303844850343476,32.947636,-2.878569233179927,-35.7548854667225,-52.57212122878484,-6.287865819820174,89.79919497299188,1.802036,33.470000000000006,1
0.37990337740419877,-0.035438805186616754,-0.889418238994933,0.03231605164838188,-0.0031095576404646247,5.301114959937141,32.945206,-3.170978143444259,-37.2132719640548,-51.96267603444014,-6.371365861850078,53.80021531842322,1.8020360000000002,33.46999999999999,1
0.38169716473014187,-0.038076180862557374,-0.8891255607483811,0.021300992285391885,-0.003450380998060683,5.302905564636345,32.950005,-3.1405824305542267,-37.024261594906584,-52.12346404989457,-5.821376731033559,-111.40880847956952,1.8058739999999998,33.47,1
0.37630680511342046,-0.03860229222116664,-0.8913870385511851,-0.06479111403042713,-0.003228320507062764,5.303941423496235,32.948627,-2.3535417242880516,-37.33775241600325,-51.864188589619786,-6.000978088053794,-16.762814603386285,1.7981979999999997,33.46999999999999,1
0.3767975790759835,-0.04231177935780928,-0.8916144302300372,-0.029250177360182025,-0.003554762589844969,5.30458081717435,32.944878,-0.849176569878289,-37.1587546134871,-52.139082065390205,-5.8397946136035115,-9.998090796941517,1.8007559999999996,33.470000000000006,1
0.3762323005422078,-0.042813262704789454,-0.8889367810997957,0.06770723688126226,-0.0038231970057377306,5.305362987114847,32.947712,1.189497264535483,-37.55101575154753,-51.86025860415659,-5.992639997610182,-19.816256486763308,1.8007560000000007,33.46999999999999,1
0.3784096517628244,-0.043478403137832786,-0.8897506036694752,0.01844874345070344,-0.003386983288202116,5.307361827237825,32.94728,3.145821919747676,-36.9683473624931,-52.139459410798246,-6.17889750560069,37.59178011011096,1.800756,33.47,1
0.37918483584795337,-0.041868873030496544,-0.8912396649406265,-0.049788365700201315,-0.003235395285824549,5.30401573744636,32.94325,4.058637772217497,-37.48026041280134,-51.86130167862589,-6.699328035388739,23.64797450994875,1.7956390000000004,33.46999999999999,1
0.38450199487809295,-0.042999748023094905,-0.8870935444721355,0.06007621976838549,-0.0036054018267952697,5.301144227565655,32.948963,3.2362369055153124,-37.03014932858116,-52.13720501646959,-6.705164953964733,-30.679494485380125,1.7956390000000002,33.47,1
0.38507332572148667,-0.04162091805400819,-0.8863399976595681,0.02948538451166875,-0.004000816004668084,5.304103319851803,32.947365,1.8383778654654528,-37.534017817637526,-51.86706965661512,-6.947481595829207,23.35867869060285,1.7943590000000003,33.47,1
0.3849603839418706,-0.041510975163909045,-0.8877025342467578,-0.03952643558419151,-0.0033488115231455947,5.304237746122774,32.949024,0.6645023835570741,-37.1139045889422,-52.106342970117055,-6.613578754223833,30.308705395548483,1.7981979999999997,33.46999999999999,1
0.3855344656899288,-0.040706552591348935,-0.8875545539373206,-0.04019761407196238,-0.004319380389520843,5.302693800189072,32.94937,-0.26401286070190827,-37.71833600286656,-51.69502426642373,-6.8091042528156915,-25.708830301089936,1.7943589999999994,33.46999999999999,1
0.38868143921945186,-0.04181534364124575,-0.884954767793643,0.07558031425520999,-0.0031102778050963076,5.30236875937993,32.94832,-0.8788324459883661,-37.55777713757044,-51.77724892236863,-6.552903792243981,-15.970015841734389,1.79308,33.47,1
0.38777106889815666,-0.04092624009697536,-0.8848163623953053,-0.007738561149054466,-0.0034012240435361335,5.3066597569776475,32.948036,-0.9793904585307155,-38.233350231898456,-51.22214666088057,-6.8621896382525875,41.09077425487182,1.79308,33.46999999999999,1
0.3889053464792556,-0.041057893869019896,-0.8865530398575977,-0.042322690825775125,-0.003278890904953452,5.305053828625774,32.95218,-1.0673503382703058,-37.58964727026103,-51.75135956683049,-6.666957670209018,-6.621189955504812,1.794359,33.47,1
0.38904637100184897,-0.04050851077718051,-0.8844654794617016,-0.03917642338980777,-0.0030212000180567344,5.304483662589372,32.94833,-1.134766090994145,-37.7248760862794,-51.68482976306462,-6.588664297504491,-27.00399126738842,1.7930800000000005,33.47,1
0.3915864820033445,-0.0411353531583773,-0.8835837623390551,0.07782880961327125,-0.0036381162637721324,5.3068340540750825,32.948215,-1.0182214859060192,-37.64206233018711,-51.964201954103565,-6.639102318061738,18.518855061469818,1.79308,33.47,1
0.39052886161927325,-0.041056224677167574,-0.8839262634791112,0.013426170798766414,-0.0027058877751130975,5.308194108421982,32.947693,-0.7547749282563337,-37.96995414462499,-51.411558687994734,-6.9893746551591756,28.15172979705736,1.79308,33.47,1
0.38609163345635256,-0.04319787053762832,-0.8877768096228177,-0.07066971033715774,-0.0038472524288678317,5.308375789525213,32.95135,-0.4334814346026886,-37.29537901856126,-51.95414302215066,-6.491362721020419,-29.61896594309594,1.7918010000000004,33.47000000000001,1
0.38253788565712143,-0.0431346805680858,-0.8888741221654204,-0.04120497510009213,-0.0037756233681013724,5.307849567433772,32.95021,0.330534936070465,-38.09602308324086,-51.42425668970061,-6.661810033610361,-25.290038404648282,1.7879619999999998,33.47,1
0.3794013537927021,-0.04632299155665532,-0.8869728357520087,0.07561999783801769,-0.003386091815874348,5.311352745369824,32.949505,1.6789700199770978,-37.84320052340469,-51.24832960322285,-6.54935091148685,32.579547006341016,1.7905210000000003,33.47000000000001,1
0.3786733192242999,-0.044587552880820086,-0.8877601066495905,0.027474280638468605,-0.004211838254119732,5.313493304995882,32.95126,3.407097732354989,-38.009199111481976,-51.124848005200235,-6.643853010970718,20.77099168242295,1.7892419999999996,33.46999999999999,1
0.3809350258848694,-0.04533079854348533,-0.8906345858867741,-0.04470788994934649,-0.003064808165549236,5.312099946447895,32.952595,4.18026299575527,-37.58448385265789,-52.00833350745448,-6.69159971268846,-25.22232658204766,1.794359,33.46999999999999,1
0.38306748204787094,-0.04349022318641904,-0.8875222237825273,0.027816553684954646,-0.003997982897897092,5.31125681071838,32.954075,3.1880100175679615,-36.45257334583881,-51.86709340543029,-7.83994883735338,-35.29639645925109,1.7866830000000005,33.469999999999985,1
0.38538900241360263,-0.04603126025517699,-0.8867862381728063,0.06154382678625587,-0.0033713455519025146,5.314429759935262,32.955322,1.4896519645147197,-35.97262924610173,-52.160213640511216,-9.883710322572831,21.11641486854048,1.790521,33.47,1
0.3818268350497687,-0.04092977673299323,-0.8882793849701092,-0.03916682778996634,-0.003702519319229204,5.312857916298341,32.954033,-0.1418084647974654,-36.58409091954669,-51.82138091889612,-11.29368466018044,21.723362755560476,1.7866830000000005,33.49,1
0.3825826334750034,-0.0442349426544765,-0.8891682558183948,-0.05554490240356746,-0.003270096425520088,5.311664062107285,32.954144,-1.586238876592015,-35.20638091038318,-52.191370902177205,-11.551818506221911,-24.835025566130497,1.7918009999999995,33.49,1
0.38458228707161285,-0.03956235565516764,-0.8863268715047937,0.05730964634181675,-0.0033472798647786847,5.312211629472723,32.955055,-2.555580649077171,-35.55665209908672,-52.087761100281774,-12.343836983084618,-26.906775421838777,1.7905210000000003,33.49,1
0.38440014194235606,-0.043377443504510296,-0.8874705715758021,0.006725079765484819,-0.004480837359929474,5.313855586738137,32.95599,-2.8023947996699308,-34.98565308749458,-52.75010897490005,-9.901814908133915,33.88756579971396,1.785404,33.49000000000001,1
0.3826251577261132,-0.03733507890985014,-0.88870600455418,-0.06211478419285291,-0.003853017757996686,5.311104797432335,32.955856,-2.6503970256964733,-36.205100134004056,-51.95095774195604,-10.049478484202607,14.498235439166512,1.784124,33.46999999999999,1
0.3842474552076251,-0.04375836073844845,-0.8891879960160692,-0.010577971154976969,-0.003654300236211731,5.307083607651211,32.95409,-2.571782473671916,-36.9190969542703,-52.16086861357506,-7.215782691778618,-30.50027454957369,1.7777270000000005,33.46999999999999,1
0.38374738215532544,-0.03952151908044042,-0.8875006186919362,0.04899104302764878,-0.0032803859108720117,5.307420689273588,32.953697,-2.3005994910915666,-37.94216886809705,-51.26063408031464,-4.972946518635262,9.045285935739294,1.782845,33.469999999999985,1
0.3823236872312376,-0.05213658962977947,-0.888431639129795,-0.062684919185524,-0.0034601711690336475,5.308411188903168,32.956364,-1.0806871760726326,-34.694383307280155,-53.29876497054093,-6.528992062602624,26.925292867002558,1.7790069999999998,33.469999999999985,1
0.36635961290621194,-0.014836348776908806,-0.8959209997224378,-0.0242962915356349,-0.0038614588574118923,5.308283315898929,32.957592,0.9283297374979741,-18.97901430185956,-51.06205161585808,-24.457412091249186,-44.37146620324387,1.7866830000000005,33.469999999999985,1
0.3949515794480465,-0.06159596854682776,-0.8824337133644493,0.07909279607095113,-0.0036697592480379538,5.30997984893359,32.95845,3.399606133227579,-32.64391480196141,-43.11176741921796,-45.059738113341346,-34.14339008118653,1.7815649999999996,33.46999999999999,1
0.3838944361340951,-0.037743426825798745,-0.8820693945187348,0.024285273073880367,-0.003084912638111505,5.3122441333097346,32.95638,5.840079563075345,-28.602241471073373,-42.694687428335335,-44.78869536619864,57.67742072120411,1.787962,33.469999999999985,1
0.3872849389358413,-0.02542050687042659,-0.8875114473747295,-0.03197070872444388,-0.003642449844003212,5.313233277749279,32.955227,6.211823913057565,-20.86089820201555,-46.82211262284693,-36.522589469998756,122.87518255282112,1.7943589999999998,33.47,1
0.3812505470811196,-0.028700891481987848,-0.8914160784398444,0.07690710034436149,-0.003518709704235467,5.314553471051697,32.956978,4.281251493120371,-22.847169476186288,-49.47793945888386,-35.26080049412562,65.09348562707383,1.7879619999999998,33.499999999999986,1
0.40357365611213114,-0.041838693251628235,-0.8719702109042605,-0.016455646320601775,-0.0033241038100440042,5.31416184418543,32.959236,1.7647564412552703,-27.290354813677283,-48.23671287960391,-30.233223672689014,-193.28069199532723,1.7969179999999993,33.49999999999999,1
0.3914229050928398,-0.03971999621925687,-0.8863789407759357,-0.033941607668094974,-0.003644051660728885,5.313795043750437,32.95824,-0.2709798254361702,-29.686862738329477,-48.66570916565863,-33.028406059882734,-91.01342208117379,1.7764480000000002,33.499999999999986,1
0.3861459301430617,-0.01067643728386228,-0.8860277136687007,-0.03467363849253838,-0.003388691857857531,5.31250750204736,32.961246,-2.0649941422831932,-25.02217585050943,-49.58296292548594,-28.84166609983231,-91.83628460572983,1.7866830000000002,33.49999999999999,1
0.4039221920951005,-0.05163648613021716,-0.8771409812610033,0.07654362222580628,-0.0038022668244345197,5.31245064215894,32.959766,-3.183252273514971,-25.254754813221727,-50.25904975864198,-34.10817317947267,35.62272704351278,1.7777269999999998,33.48999999999999,1
0.38521928211079237,-0.016273644398319305,-0.8897678631825943,0.0027941924199128285,-0.0032213033950819598,5.313705523264923,32.95917,-3.557926141394722,-15.772299693157457,-49.920977597959784,-29.312898846835527,126.55702749486184,1.789241999999999,33.48999999999998,1
0.40895034502715266,-0.06206921065082254,-0.8733430509970714,-0.08211345490030597,-0.004301896417141325,5.310476756512894,32.96032,-3.4734332561859538,-6.726100780429715,-43.874342133027895,-45.592316785520765,18.351814292916046,1.781565,33.48999999999998,1
0.39348419760417835,-0.035480450449877916,-0.8808270661190745,-0.0475179208665629,-0.0032423806584481766,5.312602614412624,32.955845,-2.7153501870377608,-15.503434618965569,-37.336590294573874,-55.2229603930597,-15.153413090817969,1.7905210000000003,33.48999999999999,1
0.39908126506382846,-0.07447184571248001,-0.8808800646595732,0.06858576681456059,-0.0034052052754444937,5.3148741217916315,32.953865,-0.7318158696729087,-18.968946295965626,-37.9245236232996,-40.93053199402093,41.13885314124665,1.805874,33.489999999999995,1
0.38190786793786585,-0.032372964163576,-0.8845021416045089,-0.028923153924978753,-0.0034318449453941253,5.319247683345089,32.950287,1.8086566082460513,-21.622312337119855,-35.35692869533044,-47.78092800179847,18.46662912874085,1.8301829999999997,33.49,1
0.3923794524387959,-0.03512104879387778,-0.8840812048043021,-0.020379255765884483,-0.0029899589804882128,5.316357575709581,32.94743,3.9211787804730003,-34.338669374018195,-26.432796719435444,-53.459689788488966,3.162263388998297,1.8583300000000003,33.49,1
0.392244636816791,-0.044612992868022866,-0.8825404947085543,0.08125036573842531,-0.0035398018426107602,5.314591985761322,32.945034,4.582698632712712,-26.36319483512874,-31.364314981301394,-49.40917011087702,6.661475203180905,1.8301829999999992,33.49,1
0.3925139415144539,-0.026226523649323995,-0.8830759357278457,0.026540953187074424,-0.004071216314764997,5.315649145875049,32.941616,3.1892138817899105,-33.353573137216394,-32.64026241533833,-41.53040201370352,192.5252911884536,1.8161089999999998,33.48999999999999,1
0.39468111254455995,-0.049750146175629645,-0.8831117377510882,-0.06032327725028536,-0.004437169212779422,5.312993221110253,32.94027,0.9712987502092093,-30.083901490908584,-30.457359263029034,-48.09833757033571,-117.51091338473576,1.7969179999999993,33.489999999999995,1
0.39334785555994567,-0.04763477182536506,-0.8836838392373045,0.0385867987075315,-0.004254532056687176,5.312105254589521,32.937386,-1.119856397047661,-32.77337893002386,-27.79834320986835,-50.28340137927093,-59.495614158568316,1.794359,33.48999999999999,1
0.392503435949929,-0.04060169740562994,-0.8817373626387184,0.023355943294297903,-0.0030019460040959073,5.31470832210325,32.93538,-2.722979339711272,-35.19861580647443,-26.300925151693054,-49.32633935159977,28.35263238629188,1.7854040000000004,33.489999999999995,1
0.3925628736226781,-0.05203785940454194,-0.8845076523365174,-0.04907281222383853,-0.003163010785134718,5.315290447812706,32.932053,-3.7374832817045354,-35.17161132774659,-27.073451318805784,-46.16665740542641,-27.742232998172998,1.787962,33.46999999999999,1
0.38175836779482925,-0.043171675476042067,-0.8860927459608219,-0.03570242305089522,-0.0038198476324752444,5.313524179933872,32.932793,-4.611764595835761,-39.511094918416944,-26.881572832284107,-42.213209177824986,-102.71007048185358,1.790521,33.47,1
0.388178739305705,-0.05131176135070797,-0.8883953110462375,0.06549194903240343,-0.002962599397766815,5.313771274269261,32.929516,-5.082810579502624,-31.28385503494428,-26.784181203872855,-50.23283378875179,-69.76311241994567,1.7892420000000002,33.47,1
0.3841164589911464,-0.046410049876494525,-0.8888959420381672,-0.03206541970526858,-0.003297157914426214,5.314915738063358,32.931324,-4.6912288984852015,-31.42920205278473,-25.984309149164453,-51.09285024200781,21.981052043221187,1.7841239999999996,33.47,1
