wrist_ACC_1,wrist_ACC_2,wrist_ACC_3,wrist_BVP_1,wrist_EDA_1,wrist_TEMP_1,label
0.26749504039672334,0.3178860734801855,0.4166337663239881,0.46730354049878875,0.7889478290950137,0.9199999999999839,1
0.27602208444327464,0.31473910120543125,0.4124812656114575,0.484839604358731,0.7810727664650609,0.9199999999999875,1
0.2682255253215477,0.31898543952664393,0.41638279863015537,0.4448960970735162,0.786585433411587,0.9199999999999875,1
0.2762671404947696,0.315794201506314,0.4117556297137892,0.41534564514514816,0.7850102977800374,0.9199999999999875,1
0.2650279598174895,0.319361863156812,0.421262771306697,0.4610858752185094,0.7810727664650606,0.9333333333333087,1
0.26973514490767303,0.3127951045371072,0.43017922694728095,0.48238258258812966,0.7842224222003639,0.9333333333333123,1
0.2658227338166398,0.31652445005148266,0.4380910036661277,0.43540812398415,0.7810727664650606,0.9333333333333087,1
0.26918914957767,0.3111670464611044,0.4399842855583819,0.46407317265708947,0.7865854334115875,0.9333333333333194,1
0.26695017599794174,0.3156216459785468,0.44811909341173706,0.44424941185963407,0.7842224222003643,0.9199999999999839,1
0.2670643804039369,0.3153423280417459,0.4360958243181342,0.43492184749900725,0.7873726934634643,0.9199999999999875,1
0.2636083496921829,0.31746293140840676,0.4482564680788711,0.4782939349082981,0.7889478290950142,0.9199999999999875,1
0.264891608350069,0.3138049803285059,0.44784035349931717,0.4651708764278398,0.7889478290950142,0.9199999999999875,1
0.2666804269325195,0.3155587485338849,0.4555008128100985,0.42775051708081757,0.7897350891468903,0.9199999999999875,1
0.2627477865959858,0.31463850762147844,0.4478524903619111,0.4739194908658984,0.7865854334115875,0.919999999999991,1
0.2696829882689773,0.3168815985605056,0.46263797639825144,0.46288570507747884,0.7881599535153408,0.919999999999991,1
0.25430064819920783,0.31576478002694297,0.4529473664551546,0.4443043291036316,0.7787097552538372,0.9199999999999875,1
0.2772494487534296,0.31966457867947706,0.5142858442906203,0.4882523388658337,0.7857975578319135,0.9333333333333229,1
0.20343244116259285,0.32793720566199036,0.4454356086761935,0.4699160601794485,0.7873726934634643,0.9333333333333194,1
0.398131838093115,0.3442493026298499,0.734090134966868,0.43919885860204494,0.7826472865688142,0.9333333333333194,1
0.4702076537695702,0.40113659329453105,0.9528633763058791,0.5261672929259532,0.7842224222003643,0.9333333333333194,1
0.3496517349291462,0.3029555635051974,0.7192886889106486,0.4583521934014452,0.8338358091913075,0.9199999999999839,1
0.3114012770299551,0.2534388829871018,0.5776112701001914,0.43619497876070606,0.8385606005581608,0.9199999999999875,1
0.4445263797498661,0.16886105955901354,0.6579516995623226,0.5150362542035039,0.7818600265169381,0.9199999999999839,1
0.4031278741103743,0.19470097507899703,0.6980298462984367,0.46978788873338273,0.7818600265169368,0.919999999999991,1
0.3621548871789267,0.19483966387921559,0.5002080539671231,0.5002776879266045,0.7842224222003643,0.9333333333333087,1
0.32350356478908443,0.21015339118309528,0.46796964688766884,0.3591713051891394,0.7716225682035568,0.9333333333333123,1
0.2791451659569921,0.2205760167694777,0.44463467442333204,0.44910374525507213,0.7779224952019609,0.9333333333333087,1
0.35033817031281145,0.2029737543880486,0.48856906674485745,0.48564579626418347,0.9472369572737535,0.9333333333333123,1
0.37173263883969476,0.170015832316055,0.5066962963769358,0.5384413964873527,0.8283231422447804,0.9199999999999839,1
0.40791430085556657,0.13863308448905798,0.5118764524883042,0.1444715882056452,0.8503731945030902,0.9199999999999768,1
0.3615401648327974,0.1657882184368154,0.4788110254608666,0.5510203613439357,0.8251728709816809,0.9199999999999768,1
0.36719619959866673,0.16786940345594487,0.4861109273467469,0.5666511309525281,0.7810727664650606,0.9199999999999875,1
0.34097255290149364,0.18295727368549802,0.48160951421259773,0.45940108367243254,0.7747722239388607,0.9066666666666556,1
0.38828241273928626,0.16543563128696626,0.5436104909769207,0.4867729935680358,0.8015476830918201,0.9066666666666627,1
0.40878760095413363,0.20769195911348398,0.3770508169779288,0.4204103671180547,0.812573016984874,0.9066666666666627,1
0.4596681272299212,0.30277673849559245,0.11273967081252478,0.5132584390747955,0.7928853604099902,0.9066666666666627,1
0.43304078635380117,0.35956461586256816,0.13364650124969152,0.32394012351057466,0.9708621451636131,0.9066666666666627,1
0.41176830774373774,0.6210807039817394,0.13407023579331973,0.6401672271043104,0.8637609240795697,0.9066666666666698,1
0.3788971430546969,0.725100812163646,0.14420801804958883,0.4892031988300593,0.7873726934634636,0.9066666666666627,1
0.3507090855232083,0.5236597698442519,0.17390380746674639,0.3952841789759391,0.7558724429436511,0.9066666666666698,1
0.3642545167657383,0.35894583287792503,0.2530881228897389,0.3911833779466712,0.744059848998721,0.9199999999999768,1
0.3130160719912337,0.3754941591273888,0.287656200602636,0.384941576517992,0.7464222446821472,0.9199999999999768,1
0.2771812297546497,0.5739928070462148,0.1936622274971162,0.5208499251224133,0.7353969107890942,0.9199999999999733,1
0.2711041052032209,0.5184004515292441,0.29234629692888403,0.5724723854063909,0.740122317683744,0.9199999999999768,1
0.2892573954537397,0.42645039996029455,0.3582871759488352,0.3923449015246786,0.7401223176837443,0.9199999999999733,1
0.2379245513013658,0.4090908516000974,0.39902243892094413,0.4304278173997051,0.7416968377874972,0.9199999999999768,1
0.1857053110477851,0.4559114755634463,0.4549339657840219,0.4789056613163515,0.7448471090505976,0.9199999999999768,1
0.22772577581778297,0.5289145813469324,0.5622796664317141,0.3648611487237102,0.7495719004174505,0.9199999999999768,1
0.1962311810933599,0.4932233275629142,0.5803885486583855,0.5957697708664451,0.7605972343105033,0.9199999999999982,1
0.23174559486822965,0.4940618238807045,0.6062346986503652,0.5837850309052941,0.775560099518534,0.9199999999999982,1
0.1952943955273504,0.4618546010417049,0.620410417896843,0.48101552919971946,0.7794976308335108,0.919999999999991,1
0.20809988143090574,0.43338301500707,0.5368141111516889,0.41316427505945896,0.7810727664650606,0.9199999999999982,1
0.2882422797686408,0.32931213097416034,0.42290502510010686,0.33900819439074165,0.772409828255434,0.9066666666666485,1
0.31742389904985335,0.23607663666597178,0.4343956261135692,0.4852357654188264,0.7590220986789539,0.9066666666666521,1
0.32720666406988097,0.18673376754947763,0.4398092013424901,0.45070269721247747,0.7487846403655741,0.9066666666666485,1
0.36898714736630617,0.17960294921674524,0.44726996102070443,0.5065691779315676,0.7850102977800374,0.9066666666666556,1
0.42666333134844786,0.13901737114708096,0.4752587961503453,0.5064431660517605,0.7598099742586276,0.8933333333333131,1
0.47842106202584894,0.09507156442467013,0.4512753974986172,0.36525838416176837,0.7464222446821475,0.8933333333333167,1
0.40504582336583395,0.15855956612955274,0.41287515387835544,0.38220625912347284,0.7424847133671707,0.8933333333333131,1
0.3202357159100669,0.20834830769466395,0.3432935921895053,0.5248816858256832,0.7353969107890937,0.8933333333333167,1
0.3640605470752845,0.21708437886747878,0.3443894274127093,0.47543288045258575,0.750359775997124,0.9066666666666521,1
0.39038016575731216,0.19140341642097503,0.34823762889315285,0.49923927371837107,0.7661099012570308,0.9066666666666485,1
0.36975352125444677,0.1947570468193826,0.3521529127937768,0.4351194701082514,0.7558724429436509,0.9066666666666485,1
0.3434381872670223,0.20810948695983766,0.37864479547886554,0.4470136588355265,0.7550845673639773,0.9066666666666521,1
0.3836409953179214,0.18426539744747228,0.3848677680209227,0.5292329082403194,0.7503597759971238,0.9066666666666521,1
0.3494761326787526,0.19767338926801792,0.36316263005775906,0.3541357416039517,0.7369720464206445,0.9066666666666627,1
0.3509766444716882,0.1903480402795718,0.3887471880649808,0.38190625956535945,0.7283091082110175,0.9066666666666521,1
0.36703740509413124,0.19376315275872968,0.37365507930624003,0.43220127424826854,0.7653226412051543,0.9066666666666627,1
0.35601582126032166,0.19584542585576303,0.3852965501120885,0.5980351889965001,0.7566597029955274,0.9199999999999875,1
0.3498234821076507,0.20849591804518142,0.371298835113588,0.5512965881413775,0.8401357361897103,0.919999999999991,1
0.3577054507709912,0.20266640764294075,0.3648610844902914,0.3835878941262735,0.9881874060550696,0.9199999999999875,1
0.3820285484611906,0.1934448909030786,0.35439916048610687,0.4223866545863981,0.9999999999999999,0.9199999999999982,1
0.35897038957759725,0.20261514448571122,0.3599588244560693,0.41316241387114294,0.9653494782170863,0.9066666666666627,1
0.37191968301130846,0.20127498207751499,0.35397005254266545,0.49935328437688187,0.941724290327227,0.9066666666666663,1
0.3620322012919082,0.2032773236037772,0.3599521697896519,0.34459259370153217,0.9330619676453967,0.9066666666666663,1
0.3730914589052231,0.2040650885965578,0.3541143121958952,0.47070876517568955,0.9236117693838929,0.9066666666666663,1
0.36219870567598217,0.20370097592504016,0.35780997354541405,0.551172037089164,0.9204614981207936,0.9199999999999839,1
0.37581513075996403,0.20414315949553724,0.35362757245501986,0.4424318100178967,0.9086489041758629,0.9199999999999875,1
0.3600393352138977,0.20189302752316102,0.3570818385488972,0.48241173774058826,0.9047113728608872,0.9199999999999875,1
0.36662743170704815,0.20332083110047755,0.35708126937225615,0.5348212177994397,0.8944739145475068,0.9199999999999875,1
0.3610480370160859,0.2041679858132877,0.3600666432671791,0.452606726597776,0.8606112683442669,0.9066666666666414,1
0.39016151391051146,0.20306054328717865,0.3478847926367519,0.4297533347000106,0.8417108718212604,0.9066666666666485,1
0.3958053190139792,0.24028588471844342,0.2762112953536999,0.5055602810459265,0.8346230692431836,0.9066666666666414,1
0.3884305848800103,0.26538600853679245,0.21115209326672968,0.49623809790518325,0.8747862579726237,0.9066666666666485,1
0.41413683149155983,0.2503140238497658,0.2565222828525454,0.4398232075850294,0.9204614981207929,0.9199999999999875,1
0.5308680702536065,0.2660711440616933,0.1867071531177053,0.5080686739261938,0.9188863624892433,0.919999999999991,1
0.4691985155165354,0.3294090112689204,0.10372671615397339,0.5435704075432026,0.8802989249191505,0.9199999999999875,1
0.5021653591627829,0.3290336082065467,0.1300295532379796,0.391692305647289,0.8086354856698968,0.9199999999999982,1
0.5516781066682466,0.31522932941086246,0.11539637198430225,0.40141076251116076,0.7637475055736044,0.9199999999999768,1
0.5419329850459738,0.304718265612505,0.13176341497238114,0.567135469799432,0.7629596299939306,0.9199999999999839,1
0.523054313611995,0.31952696946219394,0.11728478797391012,0.5837562830305052,0.7487846403655743,0.9199999999999768,1
0.5396158886958708,0.32245859441782454,0.11366743000693263,0.259662105374986,0.7401223176837445,0.9199999999999839,1
0.5470155135749468,0.3246766957501222,0.11524903134627995,0.34330259111412187,0.7346096507372174,0.9199999999999839,1
0.5591673066586371,0.32603993382542307,0.11021756234573055,0.45623740276176084,0.7322466395259938,0.9199999999999768,1
0.5655429997796426,0.3295343928421907,0.09965511081796263,0.4452915390150441,0.7306721194222411,0.9199999999999768,1
0.5779182549908518,0.32316083839193643,0.10639764668643198,0.5007004272073805,0.725946712527591,0.9199999999999875,1
0.5703861342590563,0.32979457657220573,0.10050218498850638,0.42714868699892755,0.7275218481591411,0.9333333333333229,1
0.5682560336785006,0.33331835841802293,0.10360888197881885,0.41393510799268834,0.7267345881072643,0.9333333333333336,1
0.5697029676749743,0.3340977709229407,0.09977991103164369,0.507783704383868,0.7235843168441641,0.9333333333333265,1
0.5754320253195557,0.3329512103004366,0.1020011382560822,0.4511771937196221,0.7212219211607379,0.9333333333333336,1
0.5743205308559882,0.33421611449938027,0.09693475454653172,0.449321640124893,0.7196467855291874,0.9199999999999768,1
0.5788734918218016,0.3328974552924914,0.09895510007683339,0.5059297325466712,0.7180716498976373,0.9199999999999768,1
0.57580384411145,0.33425245446684326,0.09534448469897777,0.4771378555279206,0.7149219941623345,0.9199999999999768,1
0.5785832407020373,0.33293568296814474,0.0970201048038577,0.42214233824456515,0.7086214516361345,0.9199999999999839,1
0.576740393558079,0.33823329416950687,0.09388095106889777,0.47830424833449453,0.7183923398796762,0.9199999999999768,1
0.5736893917124793,0.3414119511793585,0.09558923086090848,0.446531313182014,0.7160293286684528,0.9199999999999768,1
0.5714994416403053,0.34130465338254956,0.09444159203978697,0.44178145103475763,0.7144548085647001,0.9199999999999733,1
0.5737621700115689,0.33867771023362336,0.09780400885549323,0.5265100147702826,0.7144548085646997,0.9199999999999768,1
0.5731526172486868,0.3428503403389622,0.09706147341921961,0.5011851147277777,0.7081542660385002,0.9199999999999839,1
0.5809116520417827,0.34159066139077243,0.09550780570639733,0.43971246775782324,0.7152420686165762,0.9199999999999875,1
0.5777993305512592,0.34282188931239654,0.09459199222645681,0.45956434293088894,0.7120917973534774,0.9199999999999875,1
0.5834047631849446,0.3416133650484203,0.09496566351548619,0.4848458684833958,0.7105166617219266,0.9199999999999875,1
0.5775358857006606,0.3428071529577703,0.09483934368037233,0.41764783997499383,0.7073670059866227,0.9066666666666627,1
0.5800787833190004,0.3416226649929233,0.09473934178246557,0.45593531851343266,0.7026415990919731,0.9066666666666627,1
0.5759757097541497,0.3428028976851426,0.09507399126619703,0.4804736171587506,0.698704067776997,0.9066666666666627,1
0.5759553835249839,0.3416198081500002,0.09448530721074994,0.4396292824618708,0.6994919433566699,0.9066666666666627,1
0.5711626882937777,0.3428209323491475,0.09535719964071848,0.4591911659382237,0.6987040677769963,0.9199999999999768,1
0.5747185708185222,0.3415503907527435,0.09415815563093166,0.5017016073176305,0.6971295476732434,0.9199999999999839,1
0.5705825209864572,0.34339804944388397,0.09576303785698609,0.47753731061946775,0.69791680772512,0.9199999999999768,1
0.5742694240565163,0.3428454975789598,0.09328676250366547,0.43580843065739583,0.6955544120416935,0.9199999999999875,1
0.5621285471142327,0.3432678807212286,0.09778216252734862,0.4198079539474565,0.6939792764101435,0.9199999999999839,1
0.5691548290519308,0.34154468811364475,0.09614283966241688,0.49888569851778414,0.6971295476732428,0.9199999999999875,1
0.565117932560141,0.34282118337526557,0.09602026425721066,0.48205575241282583,0.6845290781486401,0.9199999999999839,1
0.5674811720694332,0.34162822237281854,0.09430060919793154,0.4578933333666651,0.6931920163582667,0.9199999999999875,1
0.5631152115274942,0.34278449776959985,0.10118976196857637,0.42418016658024693,0.6908290051470437,0.9199999999999733,1
0.5694236704922785,0.34165403444513986,0.09263398097061337,0.4850949264439029,0.6908290051470428,0.9199999999999697,1
0.5630225408023971,0.34275701181746154,0.09811787095561264,0.47499495078420867,0.690829005147043,0.9199999999999697,1
0.5682767478350202,0.34168557585640047,0.09368058047332184,0.42366685472442217,0.6908290051470437,0.9199999999999768,1
0.5613266807327464,0.34303037535029596,0.101853939919619,0.4473468144286709,0.6900417450951667,0.9199999999999875,1
0.5697255523176513,0.34683212874837843,0.08956208697731805,0.4797214272818339,0.6916168807267166,0.9199999999999875,1
0.559101665886896,0.3503887231212317,0.10225264647727428,0.41612886977657865,0.6892544850432899,0.9199999999999875,1
0.57489112435554,0.34521851264021797,0.08432516521327893,0.44958399590337284,0.6884666094636164,0.9199999999999875,1
0.5380617936133775,0.34503772821540757,0.11876726484370881,0.471928503413769,0.6876793494117398,0.9066666666666521,1
0.5118695014025703,0.3305381284139895,0.11551717806988537,0.42489401184969006,0.6884666094636166,0.9066666666666627,1
0.3760622966568072,0.337717282595477,0.17422130354267185,0.47629618618021163,0.6876793494117398,0.9066666666666521,1
0.4104978035514282,0.29078206709475984,0.22291959688913188,0.48941238147542604,0.6853163382005171,0.9066666666666627,1
0.5609239333559347,0.1667024810619805,0.21905261341930132,0.41908431268415325,0.6853163382005166,0.9066666666666485,1
0.48472539476065646,0.15982887137166846,0.31171674636862834,0.4534269302253268,0.6900417450951667,0.9066666666666556,1
0.5107312607311054,0.17223679182523244,0.20264369110850405,0.5105330741123946,0.6931920163582662,0.9066666666666521,1
0.5426293916886287,0.17401551629392265,0.22788972993907952,0.4301129042105274,0.6892544850432899,0.9066666666666521,1
0.5318772329075878,0.18646181614606233,0.19496286646495314,0.4992804354377136,0.6861042137801902,0.919999999999991,1
0.5296405352657829,0.18827006428020043,0.21230195027757798,0.5194773002555774,0.6892544850432895,0.9199999999999982,1
0.5273688710136062,0.19020146412454736,0.19115181170406348,0.5738963385694041,0.6908290051470433,0.9199999999999982,1
0.5529337056155368,0.1858605936749827,0.21226808415501192,0.41407959458215476,0.6931920163582673,0.919999999999991,1
0.5554283337064251,0.18615385056109518,0.18290649792063157,0.33045312538110494,0.6916168807267166,0.9199999999999982,1
0.5524593293332885,0.18540368758530867,0.209950782530966,0.44593856600782655,0.6931920163582667,0.9199999999999982,1
0.5678520097409345,0.19003849084517888,0.1777183172979347,0.4982580549027573,0.6845290781486403,0.9199999999999875,1
0.5558411015447443,0.19310431103950143,0.19661148406833667,0.4844890867337549,0.6853163382005166,0.919999999999991,1
0.553677189386723,0.19592998685524504,0.1846121729872942,0.42020007418281574,0.6868914738320665,0.9199999999999875,1
0.5743903020739175,0.1957188654873689,0.18186001049342126,0.46812140508206224,0.6861042137801902,0.919999999999991,1
0.5732537430224789,0.1957553448704803,0.17793526395691578,0.4822471665902609,0.6876793494117398,0.9199999999999875,1
0.5788947992811239,0.194710178780922,0.18356097928479886,0.4768355669438709,0.6861042137801899,0.9199999999999982,1
0.5750602288461206,0.19571442842000258,0.17482714702265467,0.4070819854950012,0.6884666094636168,0.9333333333333194,1
0.578336509249977,0.19473747534663283,0.1855998490549185,0.43986652983942665,0.6892544850432899,0.9333333333333229,1
0.5771307861185633,0.19569432942648218,0.17190350883269145,0.47265219217116267,0.6876793494117402,0.9333333333333194,1
0.5826814384525758,0.19475328230534805,0.18340855102878667,0.42996964944078486,0.6892544850432899,0.9333333333333229,1
0.5792645285891418,0.1956813016539189,0.17706306553724177,0.4596926945651697,0.6853163382005166,0.9199999999999982,1
0.581645485126709,0.1947644009631314,0.1840865579194541,0.47302775537246716,0.6861042137801902,0.919999999999991,1
0.5785312963040585,0.1956715533373099,0.1737103234984802,0.42401489650355406,0.6821666824652132,0.919999999999991,1
0.5775734040607301,0.19477313206351093,0.1819287986155273,0.48523802005186983,0.6861042137801897,0.9199999999999982,1
0.5788301189273211,0.1956635973890199,0.17550782813741928,0.47217083736582577,0.6829539425170897,0.919999999999991,1
0.5801958514694239,0.19478048491728217,0.18215164384465998,0.43345809536657565,0.6876793494117398,0.9199999999999982,1
0.5780040079255337,0.1956567216178277,0.17484020488227947,0.4841010237048596,0.6837418180967633,0.919999999999991,1
0.5809377465152565,0.1947869782514609,0.18222960905278213,0.4961963021143481,0.6853163382005157,0.9199999999999982,1
0.5792729938896573,0.19565053807514438,0.17312097833886614,0.418461143307023,0.6845290781486401,0.9199999999999875,1
0.5810757581166186,0.19479290883457695,0.18284703654161882,0.46597858379676504,0.6813788068855396,0.9199999999999982,1
0.5792909557197609,0.19564481522389982,0.1756150167554829,0.5041986545013146,0.68295394251709,0.9199999999999875,1
0.5819817202591795,0.1947984605165194,0.18406838786010138,0.48164314183875856,0.6821666824652132,0.9200000000000053,1
0.5795866592730536,0.1956394047143295,0.17226034354838832,0.43194226223921905,0.6821666824652134,0.9333333333333229,1
0.5818560160526178,0.19480375481566875,0.18320163668162937,0.4260759574530497,0.676654015518687,0.9333333333333229,1
0.5796695134141223,0.19563420556166816,0.17387587092773688,0.5008370870532082,0.6813788068855396,0.9333333333333194,1
0.5817912879128114,0.19480887684715592,0.18147210867646996,0.4857293570280768,0.6766540155186865,0.9333333333333229,1
0.5797239572023433,0.19562914500401601,0.17339418871701534,0.4492362934176235,0.6805915468336635,0.9333333333333123,1
0.5817465950421895,0.1948138897168441,0.18278748005245804,0.4194504803010346,0.6798042867817867,0.9333333333333229,1
0.5797481172368724,0.19562416748688954,0.17415424217178077,0.4799711072316515,0.6790164112021136,0.9333333333333229,1
0.5818059466821477,0.1948188430997181,0.18077633295901974,0.4818682944508243,0.6790164112021132,0.9333333333333229,1
0.5785810328184642,0.19561922786073815,0.17425165323976127,0.44025778511015023,0.676654015518687,0.9333333333333123,1
0.5803182487169019,0.19482377874068824,0.17971778808814481,0.43578787655914525,0.6813788068855396,0.9333333333333229,1
0.576924241794064,0.1956142868340366,0.17633150147682658,0.4852610212426155,0.6766540155186865,0.9333333333333123,1
0.579950275728773,0.1948287343090958,0.1837136246120652,0.44964681121544836,0.6782291511502364,0.9333333333333194,1
0.5799962273320772,0.1956093076086023,0.17395012673661991,0.4320783914084667,0.6742916198352596,0.9333333333333123,1
0.5812584133046166,0.19483374643651058,0.18575517641207956,0.49553030037528656,0.6798042867817865,0.9333333333333229,1
0.5793843622000877,0.1956042530312303,0.1735285719995509,0.45005497490839425,0.67586675546681,0.9333333333333123,1
0.5802552267520724,0.19483885349864583,0.1847431696478199,0.43425489544848395,0.67586675546681,0.9333333333333229,1
0.5775985020639489,0.19559908276042304,0.17327845751561816,0.4908552833162356,0.6766540155186861,0.9599999999999866,1
0.5783692592365228,0.1948440986212926,0.18107633306183485,0.4882263727637284,0.676654015518687,0.9599999999999866,1
0.577066804761268,0.1955937499539197,0.1734219545903497,0.4305313399282168,0.6782291511502371,0.9599999999999866,1
0.5772256603378152,0.19484953345627187,0.18346797301988954,0.4440718117990403,0.6735037442555866,0.9599999999999866,1
0.5755176933718354,0.19558819683598866,0.17364988602118436,0.5018068565589201,0.6758667554668102,0.9599999999999795,1
0.5759127667696464,0.1948552235182635,0.1831175951519347,0.48476361968062115,0.6750788798871364,0.9599999999999795,1
0.5739235907800325,0.1955823481301363,0.1743208052211766,0.44136895924148656,0.6719292241518339,0.9599999999999795,1
0.5765384380094144,0.19486125642388435,0.18253392452678274,0.4269672750902555,0.6703540885202836,0.9599999999999831,1
0.571246581235431,0.19557610053849156,0.17423068343046128,0.4875251363139051,0.6742916198352605,0.9466666666666583,1
0.5763769017131091,0.19486775555319114,0.1840541596897028,0.4726356003274423,0.6735037442555863,0.9466666666666619,1
0.5745795535520966,0.1955693047043094,0.1740379784675658,0.42866102070260903,0.6711413485721603,0.9466666666666619,1
0.5783556553651923,0.194874904274715,0.1845662432316889,0.45657193578780414,0.6750788798871367,0.9466666666666619,1
0.5749681977779905,0.19556173208404026,0.1748557176657115,0.4915908779659545,0.6711413485721599,0.9333333333333229,1
0.577087757662968,0.19488299214458354,0.18511535084275782,0.4309491562128491,0.6742916198352601,0.9333333333333265,1
0.5756085330225115,0.1955530091056621,0.17327528544921583,0.45449315804301077,0.6711413485721603,0.9333333333333194,1
0.5758943302819322,0.19489251106797933,0.18596226298262697,0.4901995848411024,0.6711413485721603,0.9333333333333371,1
0.5740338181112925,0.19554247272692477,0.17330311255214603,0.444211955024347,0.6703540885202838,0.9466666666666548,1
0.5752970975476471,0.19490437947717504,0.18532969388598797,0.43260025278288683,0.6703540885202833,0.9466666666666619,1
0.5734820473895303,0.19552880873902578,0.17384789925959987,0.4948211697487252,0.6593287546272307,0.9466666666666583,1
0.5750608831062828,0.1949205539456924,0.1867751883270537,0.4844451296946619,0.6672038172571836,0.9466666666666583,1
0.5730476890009503,0.19550895567000748,0.17395476540436927,0.4488070923470934,0.6695662129406103,0.9466666666666477,1
0.5748519509060559,0.19494614456781478,0.1865219895616767,0.41816607692293434,0.6687789528887335,0.9466666666666548,1
0.5761397661660412,0.19547360180686607,0.170402674225627,0.47463355476143276,0.6679916928368569,0.9466666666666548,1
0.5769703356943413,0.19500040418260084,0.1880793836913326,0.4891663891405583,0.6672038172571836,0.9466666666666583,1
0.574217651958304,0.19537421456798204,0.17469112831339784,0.44744899923010234,0.6648414215737565,0.9466666666666619,1
0.5775865541583584,0.19525896766687123,0.19338373106722012,0.42650548406687777,0.6656286816256337,0.9466666666666619,1
0.5744449384576401,0.19337095786947944,0.16187604073414752,0.4875907965449046,0.6664165572053068,0.9466666666666619,1
0.5672548571454844,0.1794645946633397,0.1959000728755818,0.4828103118453101,0.6656286816256335,0.9466666666666619,1
0.534848297763821,0.16048719131586364,0.24037805586107003,0.43090362264664167,0.6640541615218803,0.9599999999999866,1
0.5028002874179653,0.16222743883344137,0.2710311292947283,0.42830723009951055,0.6632662859422073,0.9599999999999937,1
0.48103064766072806,0.18124500346042216,0.241283336297339,0.4870621128594551,0.6672038172571834,0.9599999999999866,1
0.4995202385292683,0.19677905335278673,0.22101655501223572,0.4522479270344423,0.667991692836856,0.9599999999999973,1
0.5114069016115977,0.2105909721768477,0.1892575905241734,0.4176590095192903,0.6711413485721599,0.9466666666666583,1
0.5292715185791099,0.2127115336228957,0.18785578960403315,0.46787776144885274,0.6758667554668097,0.9466666666666619,1
0.5214659986804253,0.21198435081343658,0.18282502092572223,0.5234433079478731,0.6766540155186865,0.9466666666666583,1
0.5318642803162146,0.20672843831317894,0.19435016487739903,0.5198338266809657,0.6750788798871367,0.9466666666666619,1
0.5234989187474199,0.20436305094370477,0.18943415422003707,0.40914465479705964,0.679016411202113,0.9466666666666477,1
0.53006194144325,0.20246046162249576,0.2056591879723363,0.43587944170932624,0.6758667554668097,0.9466666666666477,1
0.5023208704212909,0.20408455132973968,0.19762277416564178,0.47628280481870716,0.676654015518687,0.9466666666666477,1
0.5249293187068071,0.20393583528104942,0.20661892310780988,0.44012504273726166,0.6750788798871367,0.9466666666666548,1
0.5009916201825031,0.2001928228030121,0.19068376531594278,0.4462846952505472,0.6695662129406098,0.9466666666666477,1
0.5530511421897374,0.17741106281150754,0.23043695621078925,0.5006332597468424,0.6758667554668104,0.9466666666666583,1
0.489413834523086,0.16510967526432363,0.18715226729428835,0.4603212601162863,0.6711413485721603,0.9466666666666548,1
0.42966672917689075,0.1505822264365287,0.545260855814907,0.43326145972654256,0.6679916928368564,0.9466666666666583,1
0.5040544766199364,0.11763673447789658,0.4322338680901597,0.4782830377706346,0.6624790258903303,0.9599999999999937,1
0.640722728326662,0.11169394798390209,0.2001208063100825,0.4877117259600176,0.6719292241518332,0.9599999999999973,1
0.6635029747033304,0.12040222084362806,0.24078819933011586,0.354648298216147,0.6664165572053066,0.9599999999999937,1
0.6470809521117374,0.1252801127819495,0.2272710380398481,0.37201295550189895,0.6774412755705631,0.9599999999999973,1
0.6414951901825967,0.12900936016994696,0.22947100779942947,0.8639022318608368,0.6790164112021132,0.9466666666666441,1
0.6478558182205367,0.13344133393640412,0.21533565823248502,0.5304798870866625,0.6782291511502364,0.9466666666666441,1
0.6375240967749346,0.13415272964470087,0.22524692487320097,0.1926769288018511,0.6805915468336635,0.9466666666666406,1
0.6452351111773968,0.13382756905127963,0.22116659672578937,0.38860643852288956,0.6766540155186861,0.9466666666666477,1
0.6333744519950172,0.13327254952456657,0.2204816273505933,0.4689271382375248,0.6813788068855401,0.9599999999999866,1
0.6476111884381701,0.13281338324651104,0.22496499227587097,0.45766004172420793,0.6798042867817865,0.9599999999999937,1
0.6313188186864217,0.13419559506421858,0.22014636820951367,0.4662977585794645,0.6821666824652138,0.9599999999999937,1
0.6565572857594513,0.12841335348831118,0.21739188224568767,0.48912672536303803,0.6805915468336633,0.9599999999999973,1
0.5587259028272983,0.1354361607599759,0.20703632360887503,0.4430270028877628,0.6798042867817863,0.9599999999999973,1
0.4300550273943083,0.20648789436365134,0.6226889514235463,0.44615976432012855,0.6774412755705631,0.9599999999999973,1
0.5060568598335808,0.23166687551416792,0.875551567978271,0.4546450005243023,0.6679916928368569,0.9599999999999973,1
0.42338681288135915,0.2319308756225395,0.795346536055757,0.4557484867050089,0.73807999645456,0.9600000000000009,1
0.3920521407934983,0.19686461286281948,0.6164853201425483,0.24254251046629416,0.7821801009711792,0.9599999999999831,1
0.42075179568201215,0.15681054749050444,0.38642372736603325,0.23107680284274668,0.7207547355631029,0.9599999999999866,1
0.41585237831658434,0.17937085615210807,0.2894256188720781,0.7366597688319954,0.67271648420371,0.9599999999999866,1
0.40713719228431783,0.18765118144263465,0.28480496764032526,0.7211934216226061,0.6632662859422066,0.9599999999999937,1
0.43402392732609985,0.18272236380789098,0.3046604270948514,0.611986826221556,0.6538160876807032,0.9599999999999866,1
0.41921869383236854,0.1851013157891001,0.2925974389945481,0.5384284375766935,0.6561784833641305,0.9599999999999866,1
0.428811589106784,0.17983237873963692,0.2970863947160707,0.47593745214685346,0.6467289006304237,0.9599999999999866,1
0.401611296159821,0.1824218981288152,0.30955027326545187,0.26196089624604135,0.6506664319454,0.9599999999999866,1
0.3597548899413154,0.1895937146462256,0.4902037428031311,0.3561898687534518,0.6483034207341763,0.946666666666669,1
0.3941767429437049,0.20436084027951273,0.6645150110456493,0.4407120554134045,0.6498785563657264,0.9466666666666619,1
0.37713919162919407,0.2440568831439776,0.7439518892793844,0.41231604784821096,0.6711413485721603,0.9466666666666619,1
0.3278934441578371,0.2459621965899605,0.6524093416936938,0.3781628195403286,0.6821666824652136,0.946666666666669,1
0.3141590553615091,0.24868157996357032,0.5999961366544511,0.39140237576089343,0.7144548085646997,0.9466666666666548,1
0.30628458049567264,0.24845598213058323,0.5928671328374859,0.5988333988674686,0.6955544120416929,0.9466666666666619,1
0.31311895010590834,0.2578393659593623,0.634563128772015,0.6254731898941577,0.6987040677769968,0.9466666666666583,1
0.3183984217280804,0.24301626096624307,0.4111929043739502,0.5172073536138064,0.6884666094636164,0.9466666666666619,1
0.3660750328613512,0.22578362273200042,0.33646227496555725,0.4197456665938951,0.676654015518687,0.9599999999999795,1
0.37240363136485743,0.24582760846213936,0.28903713265117886,0.3564330450201375,0.6687789528887332,0.9599999999999866,1
0.4073034893759076,0.26749282751231407,0.22571086175057192,0.43841301388314086,0.6640541615218799,0.9599999999999795,1
0.39267172840137493,0.29592736852573154,0.19462437577034353,0.5563851156273459,0.6616911503106572,0.9599999999999866,1
0.4091529703114866,0.30673432397298933,0.20468733537250577,0.5419940876562105,0.6609038902587797,0.9599999999999973,1
0.40441540348785926,0.3071367902051179,0.201443038023359,0.3623074994619799,0.6609038902587797,0.960000000000008,1
0.4012192672231461,0.30897441980959917,0.21297023444102764,0.2705150999433664,0.6577536189956806,0.9599999999999973,1
0.40451222577785345,0.3065502958357487,0.2016969401188089,0.42823328563203994,0.6585414945753533,0.9600000000000009,1
0.40220721059728565,0.3085558380756869,0.21110504308053113,0.45558370031014667,0.6530288276288271,0.9599999999999937,1
0.40403929506995484,0.30679328763812896,0.20281813693844702,0.5314240747633502,0.6585414945753528,0.9599999999999937,1
0.40247582567707096,0.30838862261519984,0.2103114359231475,0.49008965357926837,0.6538160876807037,0.9599999999999937,1
0.40387332768177964,0.3069250947971144,0.20342942596191826,0.414168914718764,0.6553912233122537,0.9599999999999866,1
0.4025832270666877,0.3071852007392792,0.20981675537325367,0.4834606915248513,0.6546039632603765,0.9599999999999973,1
0.4038022194769103,0.30707834414477664,0.20384068275684003,0.5147304707069995,0.6522409520491536,0.9599999999999937,1
0.40263046452377643,0.30678227233033534,0.20947552559601906,0.4295394075200983,0.6538160876807041,0.9599999999999866,1
0.40377143343701355,0.305973017540218,0.20408381626522942,0.44816865857714616,0.6530288276288264,0.9599999999999937,1
0.4026494483533001,0.3074437940536423,0.20819630449076487,0.5226700538848204,0.6530288276288266,0.9599999999999866,1
0.403761246223594,0.3069843078404033,0.2046345815162906,0.4847182261381752,0.6506664319454006,0.9599999999999973,1
0.40265280695788275,0.30827258538622176,0.20796495508047969,0.41213525912937615,0.6522409520491536,0.9599999999999866,1
0.4037634474172557,0.3069923616476613,0.2045499821962815,0.46143200131716755,0.6483034207341768,0.9599999999999973,1
0.40264580293921504,0.3082490369787681,0.20876729165656466,0.5150697015199176,0.6514536919972768,0.9466666666666583,1
0.40377491924018233,0.30701440702580385,0.2048027306444375,0.48785505679224406,0.6522409520491536,0.9466666666666619,1
0.402629786639426,0.30823032601021616,0.20858336673178302,0.4272795096258051,0.6420034937357736,0.9466666666666583,1
0.4037960510251373,0.30702974806240585,0.20495970213266335,0.438862020065383,0.6490912963138501,0.9466666666666619,1
0.40260223524636884,0.30821818535007456,0.20844675887288083,0.5060508346822993,0.6467289006304237,0.9599999999999866,1
0.4038326427415967,0.3070387695578693,0.2050737990427553,0.4795800130941692,0.6514536919972765,0.9599999999999866,1
0.40255113634765993,0.3082123771404384,0.20837106446284015,0.4219380835070282,0.6490912963138501,0.9599999999999866,1
0.4039114193044407,0.30704101627821856,0.20500786638046953,0.44489613360054586,0.6498785563657269,0.9599999999999937,1
0.40240162264805746,0.3082144441695196,0.20726619718830475,0.5021980202293567,0.6467289006304232,0.9599999999999937,1
0.40446075135901305,0.3070331402146782,0.20564389874122196,0.47293423263554085,0.6498785563657269,0.9599999999999973,1
0.4032079304943329,0.3082312266222166,0.20748755186608192,0.4127532244448894,0.6435786293673241,0.9599999999999973,1
0.40368347056921866,0.30700014728164055,0.2047539924912481,0.45136267872457053,0.6475161606822998,0.9600000000000009,1
0.40253429192039464,0.3083027016956719,0.2084310300682688,0.5073292472970767,0.6435786293673235,0.9466666666666548,1
0.4047160740483662,0.30676519725501394,0.20425295394931958,0.47560721995592,0.6483034207341763,0.9466666666666619,1
0.40515047513212726,0.3071915743420632,0.20577296918718568,0.41048857434329705,0.6483034207341768,0.9466666666666548,1
0.40555734332725885,0.30728094535598927,0.2031801079221241,0.43905107540843324,0.6467289006304234,0.946666666666669,1
0.40515609321530127,0.30806256020682504,0.2028714683131163,0.5111512728110816,0.6467289006304232,0.9466666666666477,1
0.4072391328630221,0.3071515242771327,0.20339916566257138,0.48014482655532886,0.6467289006304237,0.9466666666666477,1
0.40855775691791113,0.3081281899370148,0.2045264987967496,0.4312127530115656,0.6475161606823004,0.9466666666666477,1
0.4086556668829005,0.3071004835791579,0.2048819547364697,0.42960421746463473,0.6451537649988731,0.9466666666666548,1
0.406299363299151,0.30818238388310515,0.20479695128474135,0.5009661909928088,0.6483034207341768,0.9599999999999795,1
0.40605599133938447,0.3070244728618543,0.2032814705947742,0.47418472799796424,0.6412162336838964,0.9599999999999831,1
0.4086741153232977,0.3083322200924122,0.20355879139657662,0.42958227031199414,0.6451537649988738,0.9599999999999831,1
0.41002469264330227,0.30629845958049945,0.2010509162542764,0.42639905606298273,0.6435786293673237,0.9599999999999831,1
0.4105427461069111,0.30760509851118456,0.20444243334941092,0.5061194071836385,0.6443658894192,0.9466666666666619,1
0.40946374819441467,0.307327871817944,0.20083944639909418,0.47618162340268194,0.643578629367323,0.9466666666666619,1
0.40962764801170065,0.30800841239921994,0.20132054766898033,0.4342025364196955,0.6435786293673237,0.9466666666666583,1
0.4096938925032743,0.3072009879641266,0.20207280579434478,0.4187088266694634,0.6435786293673232,0.9466666666666619,1
0.409923161340653,0.30808443336639024,0.20070111536556673,0.5054758991226141,0.6412162336838968,0.9599999999999866,1
0.41221215863670874,0.30713885001607083,0.19834934106349955,0.47811568327181886,0.6467289006304232,0.9599999999999973,1
0.41043752257328486,0.30814851809868055,0.20150976704296764,0.44493965184902434,0.6420034937357731,0.9599999999999866,1
0.41221727067611985,0.30705602920800074,0.19952665115462087,0.41731292046899393,0.6435786293673241,0.9599999999999973,1
0.41035025463019875,0.3082969999520755,0.19944828870774117,0.49164443655923706,0.6349156911576966,0.9466666666666548,1
0.412014083086423,0.3061819146896904,0.19867511071164945,0.475679848654028,0.6420034937357731,0.9466666666666583,1
0.41142351892829904,0.30694190646022573,0.19885555951396416,0.4306608215372776,0.6404283581042235,0.9466666666666548,1
0.4122603177374831,0.3064493224806232,0.19881376827012526,0.4390994131108896,0.641216233683897,0.9466666666666583,1
0.41035311707219985,0.3074147786172433,0.19969651730874066,0.5117154782027555,0.6404283581042235,0.9333333333333229,1
0.4121999612335827,0.30736002988793365,0.19889345943300513,0.47053791534222483,0.6396410980523465,0.9333333333333229,1
0.4103353740149589,0.3080130902285283,0.1996189003992263,0.4575144644847295,0.6404283581042237,0.9333333333333229,1
0.412249894639089,0.30716328551662037,0.1989735554675338,0.3993033435164751,0.6380659624207968,0.9333333333333265,1
0.4102586638403222,0.30816530411742965,0.19953300849823052,0.4797081443080892,0.6396410980523469,0.9466666666666583,1
0.41235788955494257,0.30698765996834715,0.19906853530558438,0.4877148420310888,0.6412162336838968,0.9466666666666619,1
0.4101057871045671,0.30845077702849705,0.19942510671763114,0.481986688545048,0.6396410980523469,0.9466666666666619,1
0.4125885070593637,0.30609705404094784,0.19919399749261818,0.4158409116596201,0.6364908267892465,0.9466666666666619,1
0.4096948122870508,0.3066044570965022,0.19927719143542105,0.4442183684323513,0.6388538380004704,0.9599999999999866,1
0.4140051838806047,0.306763693428177,0.19936458336613394,0.49406538163505676,0.6380659624207968,0.9599999999999866,1
0.4108386401050964,0.30735954322679493,0.19912606434014413,0.4754798090083257,0.6364908267892472,0.9599999999999831,1
0.4135498903128924,0.307397597919227,0.19856228115330643,0.4192490535289673,0.63727870236892,0.9599999999999973,1
0.4108378365015575,0.3068108609604004,0.19710662055096984,0.4542867077551299,0.6349156911576969,0.9466666666666619,1
0.4151100753640327,0.3072697542315492,0.20167694245240747,0.49455514272522927,0.6388538380004699,0.946666666666669,1
0.4117544065051613,0.298757355829259,0.17988805560817972,0.4754337058100967,0.6364908267892467,0.9466666666666619,1
0.4376662927943615,0.26336617693788195,0.20762749805893344,0.42598075277223985,0.6372787023689198,0.9466666666666619,1
0.47693261816997523,0.22517278196238838,0.23393540772849897,0.4324578519782201,0.6364908267892467,0.9466666666666548,1
0.4705724660231232,0.22425192777342956,0.21059743200410458,0.49823070003348724,0.6357035667373697,0.9466666666666583,1
0.4370243898914062,0.24758572934777667,0.2319730480939236,0.49731601272875486,0.6325532954742702,0.9466666666666583,1
0.41532219604953863,0.2720349286550749,0.21865098504465896,0.49050096573617913,0.6325532954742702,0.9466666666666619,1
0.37787088601059515,0.30036053134368446,0.22279393121026037,0.41908761969493924,0.6349156911576966,0.9466666666666619,1
0.3766151292844058,0.30989728751521217,0.2245929013551471,0.42948194994926087,0.6349156911576969,0.946666666666669,1
0.3813552815046372,0.2998663112154647,0.22827559698972139,0.4386368171890918,0.6357035667373699,0.9466666666666619,1
0.3407016540739487,0.29640197449202654,0.2783082091983953,0.4479638480765121,0.6341284311058198,0.946666666666669,1
0.3401641796451055,0.29450187295248564,0.3103510127720581,0.4757122998631478,0.6364908267892467,0.9599999999999831,1
0.3381229944797776,0.29771994810184593,0.27566261844102546,0.46734220200538756,0.6357035667373697,0.9599999999999866,1
0.3352452779392509,0.30617121969481154,0.2867097413730548,0.48244355052604815,0.6325532954742702,0.9599999999999831,1
0.3390699583731227,0.30388341072099684,0.2762477742368839,0.47125852524251655,0.6341284311058203,0.9599999999999973,1
0.35433515566773366,0.30562301315923723,0.2621798430567924,0.39148396041419053,0.6325532954742702,0.9599999999999795,1
0.37398619906411884,0.2990794256714935,0.22937478193456384,0.4413585765273871,0.6286157641592934,0.9599999999999795,1
0.3612179092715347,0.2965305115784277,0.2688162939876379,0.5484683319145993,0.6278285041074171,0.9599999999999795,1
0.3712305235069292,0.2910205144458801,0.25458337060800723,0.603595370967979,0.6270406285277433,0.9599999999999795,1
0.38429485470483665,0.2947483410198495,0.22751301210121272,0.5207369783043315,0.6207407015293404,0.9599999999999795,1
0.37864387139204886,0.29760872487239814,0.23861178587312892,0.39121317198357386,0.6286157641592934,0.9599999999999795,1
0.37011091317573236,0.30566016168545707,0.2455026830816095,0.36218205882463056,0.6246782328443169,0.9599999999999795,1
0.38768193964591646,0.3049356413187216,0.20956456251957473,0.39403166966054215,0.6246782328443171,0.9599999999999831,1
0.36676688546974606,0.31069590855894835,0.22584850704384513,0.37233195157963106,0.6246782328443171,0.9466666666666583,1
0.37692476684932563,0.2890887645635143,0.21094677306323728,0.4274134906417322,0.6294036397389667,0.946666666666669,1
0.37616611977302045,0.2745516475277408,0.32515815315745844,0.4670304384292599,0.6396410980523469,0.9466666666666619,1
0.2956134572758922,0.3009158708004737,0.3575691184788236,0.3921876152757514,0.6396410980523465,0.946666666666669,1
0.34266212122556017,0.30559174306447473,0.24364834748153918,0.4471820037516086,0.6309781598427203,0.9599999999999831,1
0.3558785832506237,0.3181543455574748,0.24990276340082485,0.6980028541227723,0.6325532954742698,0.9599999999999866,1
0.36436420596652647,0.31484637396251824,0.23813137828307518,0.5233255577938296,0.6262533684758668,0.9599999999999831,1
0.36050690596560253,0.3169832888915367,0.2530448821154505,0.25021812035363417,0.6286157641592937,0.9599999999999866,1
0.39747086035895546,0.30214567449171914,0.19368309770802444,0.5262792897480361,0.6270406285277431,0.9599999999999866,1
0.4937763410200031,0.2532138219351601,0.14993422514054666,0.48033860285576335,0.6294036397389667,0.9599999999999866,1
0.5895471894200257,0.19258781507273665,0.23767782362464085,0.4336289761299902,0.6191655658977909,0.9599999999999866,1
0.7007232818637565,0.18927921176917745,0.16385826746668453,0.43857915881229953,0.6278285041074169,0.9599999999999937,1
0.7188170707425326,0.2067162428899501,0.12496013437885772,0.6302550105180259,0.6404283581042235,0.9599999999999866,1
0.6967823476203515,0.19046707326051615,0.12259622676200443,0.516663944323291,0.6782291511502364,0.9599999999999937,1
0.6021681586623016,0.16078887425785982,0.2373369820045234,0.24924574078483527,0.6735037442555866,0.9599999999999937,1
0.45244317907198345,0.14964074510565617,0.3395442796798449,0.45481756268864587,0.6506664319454002,0.9599999999999973,1
0.4893608263370993,0.1395025893682177,0.2702511678688224,0.577780939873554,0.636490826789247,0.9599999999999866,1
0.5048630517913385,0.1366895328421363,0.2982175408928006,0.47251744846298804,0.6309781598427203,0.9599999999999866,1
0.49865756193104493,0.13644718795136773,0.28066493639941803,0.33044136340173574,0.6294036397389672,0.9599999999999831,1
0.5116830102340341,0.13416524821365888,0.28899033895991144,0.3163240420583709,0.6278285041074166,0.9599999999999866,1
0.5096144993008361,0.13493813507804608,0.27373109252910466,0.5883443996125057,0.6262533684758668,0.9466666666666583,1
0.5165995246832287,0.13458105761187178,0.2817593944084713,0.47747854608037266,0.6278285041074171,0.9466666666666619,1
0.5104025989560068,0.1347735403782493,0.2743506214349971,0.44063357239120066,0.6262533684758668,0.9466666666666583,1
0.5092559344695977,0.13592822928781545,0.28973719935023357,0.5225682155387116,0.6270406285277436,0.946666666666669,1
0.5061821683694392,0.1341780449702099,0.2745504184310374,0.47929881238092453,0.6238909727924401,0.9466666666666583,1
0.5018655996131798,0.13199593864623516,0.29569744126172814,0.4130706849158869,0.6278285041074166,0.9466666666666583,1
0.49884827779130403,0.12692763683356773,0.3006103050028916,0.48064996192430204,0.6207407015293401,0.9466666666666583,1
0.49786263429143945,0.12806419181299744,0.3003541800741165,0.4527211567039075,0.6246782328443169,0.9466666666666619,1
0.49752690358507773,0.12769114035602963,0.29368511643512807,0.433154584585408,0.62231583716089,0.9599999999999831,1
0.5028623322035733,0.12756059531223068,0.2997740903583695,0.48162633018736634,0.623103097212767,0.9599999999999795,1
0.4838373513332042,0.13136971651397222,0.29685376604105196,0.5120427778659471,0.6223158371608902,0.9599999999999795,1
0.5117099001811745,0.13487387059577594,0.3074909163163809,0.44501090400446347,0.6231030972127675,0.9599999999999866,1
0.5862305952728648,0.13049509460857567,0.22481914626496047,0.45231639304540905,0.6168031702143634,0.9599999999999795,1
0.5897502108023063,0.14007281077380934,0.2666364874385628,0.4994397603328061,0.61916556589779,0.9599999999999866,1
0.5453615866583854,0.19131881828655767,0.1910334009629368,0.4650839903431517,0.623103097212767,0.9599999999999831,1
0.3401092912991537,0.25923818251699776,0.25027465646438285,0.47464464182748384,0.6175910457940367,0.9599999999999866,1
0.38156118660346655,0.22848626935556948,0.40168078007499675,0.5836850709892075,0.6215285771090134,0.9733333333333221,1
0.3260347708490466,0.291896331663057,0.34184457261145285,0.44855445322862,0.6175910457940365,0.9733333333333327,1
0.3113578709110976,0.3178290720737278,0.24238231639788305,0.36607404188283815,0.623103097212767,0.9733333333333221,1
0.31052975933654803,0.2737206057014822,0.3270906317318434,0.42170520064799194,0.6325532954742698,0.9733333333333327,1
0.3617585022853061,0.1975294713357193,0.4286308167153343,0.6006135491542183,0.6160159101624875,0.9599999999999831,1
0.47197129097961216,0.10703995484772821,0.4794554935195929,0.3710546908769138,0.6183783058459135,0.9599999999999866,1
0.466131219324445,0.09430863888180929,0.5218771854966638,0.4142601379289606,0.6168031702143638,0.9599999999999866,1
0.4603602851011058,0.09258251512956078,0.5121282863094627,0.3239060118004341,0.6199534414774631,0.9599999999999866,1
0.4266265739009238,0.11146440678731051,0.5074693316053588,0.4157738365204581,0.61916556589779,0.9599999999999937,1
0.4173270853518586,0.11606408597292994,0.5098648522552108,0.5166158539909036,0.6175910457940365,0.9599999999999937,1
0.42030211906010906,0.12060267721110962,0.5374427561439459,0.5306159794929188,0.6183783058459135,0.9599999999999973,1
0.43178134862653517,0.11829184554439093,0.591336376202698,0.46206570183222856,0.6199534414774636,0.9599999999999866,1
0.42439166402315937,0.11425975429519242,0.4879163131234014,0.4566279900918335,0.6270406285277431,0.9599999999999973,1
0.4817252713496532,0.08830699989481783,0.480801257791929,0.46748147475071283,0.6246782328443171,0.9599999999999937,1
0.4302420464616545,0.10320204900974156,0.46890993984082585,0.43607745509311946,0.6199534414774636,0.9599999999999866,1
0.4455345690254818,0.10380692499808525,0.4656615123578081,0.5554137201353129,0.6160159101624868,0.9599999999999937,1
0.4337655146787764,0.10907657923058617,0.4650386644338314,0.5173246805378984,0.616015910162487,0.9599999999999831,1
0.4352908121981001,0.10768630287097697,0.469141172408811,0.34252380813335687,0.6183783058459135,0.9599999999999866,1
0.43276096807418046,0.10992816487809276,0.4678014804799927,0.44266484110369225,0.6136535144790601,0.9599999999999831,1
0.4342054650368216,0.10755125948689004,0.4690037887663137,0.4498223171044474,0.6152280345828133,0.9599999999999937,1
0.43103995118958127,0.10996214605428706,0.46786367640464716,0.43943411984658043,0.6152280345828139,0.9599999999999831,1
0.4357420352732125,0.10754799671634885,0.4664743345629339,0.5001752019586302,0.6152280345828135,0.9599999999999866,1
0.4316109407239377,0.10995312696308251,0.46259231166602943,0.48542183481490825,0.6120783788475105,0.9599999999999831,1
0.4352432986907262,0.1075674896563637,0.4625487726146817,0.42794017456658023,0.6120783788475103,0.9599999999999866,1
0.4311771230629732,0.10990325332406464,0.4607412715205357,0.4851157428082968,0.611290503267837,0.9599999999999866,1
0.4345674009003842,0.10783434271336445,0.46323193723336664,0.49246928018374203,0.6136535144790601,0.9599999999999831,1
0.42968969106671256,0.11139086816952948,0.4617734631066251,0.433199429877636,0.6112905032678365,0.9599999999999831,1
0.43098538738245046,0.11067990103050418,0.4636845271146146,0.4435036688625648,0.6105032432159602,0.9599999999999866,1
0.4255335702702774,0.11547967139355825,0.46137748579560733,0.5038773437362515,0.6105032432159602,0.9599999999999831,1
0.4307281981364183,0.11090375701173799,0.46283377040377877,0.4533952769799838,0.611290503267837,0.9599999999999866,1
0.42963691315272434,0.11147901638740548,0.46341778046490767,0.4318290733340969,0.6105032432159606,0.9599999999999866,1
0.4303052130841128,0.10906338514999053,0.4630415505178338,0.4799949245066827,0.6105032432159602,0.9599999999999866,1
0.42765915417516226,0.11384189346105361,0.4604287805995927,0.49018707302759673,0.6105032432159602,0.9599999999999866,1
0.4331029177687652,0.10915036113049209,0.4641435775236811,0.4290622761935946,0.6097159831640838,0.9599999999999973,1
0.4266417886189701,0.11373209838997156,0.46287216792659336,0.4336425363567558,0.6073529719528602,0.9599999999999866,1
0.4286820450614343,0.11525327687242054,0.46371102895042116,0.49487196428376085,0.6089281075844103,0.9599999999999973,1
0.427342450647929,0.11632097800731184,0.46300611389835583,0.48237781762635984,0.6081408475325333,0.9599999999999831,1
0.4307698664750222,0.10868179542041273,0.46264995917892493,0.4337141794510045,0.611290503267837,0.9599999999999831,1
0.43990428749080124,0.10990304797656908,0.45408413273249226,0.42305522049878247,0.6065657119009839,0.9599999999999795,1
0.4437773953421963,0.10736854232821991,0.43883919911058394,0.4827432956910201,0.6089281075844103,0.9599999999999866,1
0.43884295191525513,0.11029830746893726,0.4283218440567411,0.4833854822841987,0.6065657119009839,0.9733333333333221,1
0.449960953899986,0.10709913665017878,0.42639635843773427,0.43412396672478115,0.6097159831640832,0.9733333333333221,1
0.4471342953540672,0.10799501348398322,0.4204884923807514,0.4319319334214151,0.6089281075844103,0.9733333333333221,1
0.45174220855926717,0.10226792873008139,0.4387041524296836,0.49625592516523603,0.6057784518491068,0.9733333333333292,1
0.4419013751522439,0.10917790310705544,0.43760269248349076,0.47574087226771544,0.6049905762694335,0.9599999999999831,1
0.4361394818568388,0.10736287901081237,0.45873994581398203,0.42812979980865873,0.6010530449544572,0.9599999999999831,1
0.4278833789812022,0.11514688446767746,0.47546982786316544,0.46997133069871205,0.604203316217557,0.9599999999999795,1
0.45409273078308576,0.09752389691812369,0.46386289075137155,0.48888943055992584,0.6018409205341301,0.9599999999999795,1
0.5809144150496682,0.11686395588613235,0.3301302730956177,0.41345326249483194,0.6065657119009839,0.9599999999999795,1
0.47063983631337336,0.18560721476350844,0.17645231461799993,0.4242751691198707,0.6034154406378834,0.9599999999999831,1
0.5032557945452005,0.18921355600574163,0.1784740909939485,0.5214269920903617,0.6073529719528602,0.9599999999999795,1
0.5657277728696706,0.15352518919701502,0.2401330647101016,0.5904100620522377,0.6112905032678367,0.9599999999999866,1
0.5496987335061165,0.1305612061232621,0.2495450676865527,0.5292736253162792,0.6073529719528602,0.9799999999999791,1
0.5138426077088267,0.14129364762528807,0.28704703426931955,0.25589853588759637,0.6128656388993864,0.9799999999999827,1
0.4945029936496359,0.13758427044828653,0.26619706216539774,0.36410332754160973,0.6002657849025804,0.9799999999999791,1
0.5321466180205005,0.12965310583725254,0.29742701401876004,0.3632326905518453,0.6065657119009836,0.9799999999999827,1
0.5302697256760717,0.1238072252315161,0.25814280623371777,0.4980918279035117,0.6010530449544568,0.973333333333315,1
0.6067923277794032,0.1267304140743542,0.2939119698218281,0.5943056707371114,0.6081408475325331,0.9733333333333078,1
0.6797943795878555,0.179013504442193,0.1724796756557056,0.47981818554049865,0.6034154406378837,0.9733333333333078,1
0.6089620459411411,0.23554310212586055,0.10064227016833194,0.4443676826433295,0.6089281075844103,0.973333333333315,1
0.5809956629964542,0.23045945328770823,0.20725310700765492,0.503928214028257,0.6183783058459135,0.9733333333333185,1
0.5595832258975312,0.25266052666571587,0.1561542712689334,0.47993966639551355,0.6333411710539433,0.9733333333333221,1
0.45696331181225613,0.32982429836259186,0.11379495139779383,0.46374674653312,0.6506664319454002,0.9733333333333221,1
0.5213247094668915,0.28718322690539444,0.14400880172524388,0.46744911861780286,0.633341171053943,0.9733333333333221,1
0.4649129542210844,0.2761505666126979,0.20277852487174003,0.6641039770254679,0.6246782328443167,0.973333333333315,1
0.49129892486169857,0.2950253480408706,0.15378663304974605,0.33606742193600647,0.6128656388993864,0.9733333333333185,1
0.4695950718686237,0.3180169071324025,0.1374876896711968,0.39745102365708757,0.611290503267837,0.973333333333315,1
0.4500236176246414,0.3309645445595406,0.1446266572999605,0.4903996397933774,0.6057784518491071,0.9733333333333185,1
0.4502415414591899,0.3242847875871017,0.1681955237670682,0.43104797012544666,0.6073529719528602,0.9599999999999831,1
0.41522227989261856,0.32594389211037567,0.19768529360729165,0.35172758499652934,0.6089281075844103,0.9599999999999866,1
0.4816154023530148,0.32678600262602153,0.13786488611337422,0.38658740608801695,0.6081408475325337,0.9599999999999866,1
0.48044246434568627,0.3337022096905232,0.13144980595922928,0.483658132719731,0.6049905762694333,0.9599999999999866,1
0.4691489639327735,0.32931385412026004,0.15111479079226153,0.41856343477671343,0.6065657119009832,0.9733333333333185,1
0.4603465406487451,0.3292561717060535,0.1486372596308705,0.5405327236029451,0.6081408475325333,0.9733333333333221,1
0.4581971681045769,0.3280054910042293,0.16059181138976553,0.6702291820673427,0.6034154406378837,0.9733333333333221,1
0.46028366703859563,0.32609849037821875,0.14879695940508608,0.3771331476619769,0.6049905762694338,0.9733333333333221,1
0.4581087519200488,0.32704141567234857,0.15957295244245123,0.2989715084519663,0.5986906492710301,0.9733333333333221,1
0.45089949659646456,0.3282514304359887,0.1517500774251478,0.4621190957351238,0.6042033162175567,0.9733333333333292,1
0.4533412034904899,0.32861930842528675,0.15802795446588164,0.5181593111596737,0.6002657849025806,0.9733333333333221,1
0.4523552403726473,0.3312430265189602,0.1523262388455699,0.4935057070861616,0.6026281805860069,0.9733333333333292,1
0.45577452978362143,0.32955772631556346,0.1569535125556215,0.4366836700425696,0.6026281805860069,0.9599999999999795,1
0.45658728383733765,0.3324830226213419,0.1521567269905199,0.4742038583774848,0.6002657849025802,0.9599999999999866,1
0.45329402662393825,0.33097164922797606,0.15678516913467366,0.4831331332892163,0.6002657849025804,0.9599999999999795,1
0.4523240032774456,0.3314409042855575,0.15233198847270502,0.4324181919151897,0.5994779093229067,0.9599999999999866,1
0.4530142485141081,0.3284041663392332,0.15739236654820477,0.46881624670767974,0.6002657849025804,0.9733333333333185,1
0.4516655509630424,0.3292080964153245,0.1543627816746898,0.482502430363743,0.6002657849025802,0.9733333333333221,1
0.45181592131476045,0.33168392397456936,0.1566178946283575,0.44973589484878057,0.5986906492710306,0.9733333333333185,1
0.4514110699742973,0.33140441060741066,0.152739517536301,0.4680394744205346,0.6002657849025798,0.9733333333333221,1
0.45183800787007494,0.329518067241116,0.15610451292821875,0.4538978805106066,0.5971155136394802,0.973333333333315,1
0.4514268783394162,0.33179649102998343,0.15355070268032212,0.4383941375767248,0.5963282535876034,0.973333333333315,1
0.45181133325944994,0.33238263585119177,0.15659082629866344,0.49076009597636744,0.5971155136394807,0.973333333333315,1
0.45145682133876364,0.3336016756497504,0.1527721335397193,0.4749580984358536,0.5979027736913572,0.9733333333333185,1
0.45178090269558074,0.332601780272124,0.15620287112549897,0.4364526855041512,0.5979027736913572,0.9733333333333221,1
0.4514865906013292,0.33251057849658505,0.15489510748818092,0.447806035519381,0.6002657849025798,0.9733333333333292,1
0.45175228537448037,0.33092611170924174,0.156504924115959,0.5014856275627054,0.5986906492710301,0.9733333333333221,1
0.4515138608327278,0.3340938727186059,0.15441963963420824,0.47810473206434356,0.5986906492710301,0.9733333333333292,1
0.451726415813487,0.332433442575714,0.1568877561765485,0.43386810410336374,0.5979027736913572,0.9799999999999898,1
0.4515383461716354,0.3327714345791114,0.15301159367224015,0.4277198198582977,0.59711551363948,0.9799999999999898,1
0.45170326369512515,0.331728790503508,0.15586136921729604,0.48756813026537715,0.5979027736913572,0.9799999999999898,1
0.4515602322162413,0.3330124528840117,0.15332819174081164,0.4615288562416007,0.5963282535876037,0.9799999999999933,1
0.45168257026298475,0.3330247575807353,0.1566921471224511,0.4349664427072577,0.5923907222726269,0.9733333333333221,1
0.4515798074956445,0.3331602458635834,0.15320387375596828,0.4591196315862414,0.5979027736913568,0.9733333333333221,1
0.4516640405325874,0.3316576280906206,0.15574706151798018,0.4871503293598159,0.595540378007931,0.9733333333333221,1
0.45159736094735187,0.33185973786543826,0.15334802329250946,0.4289972609900435,0.5955403780079301,0.9733333333333292,1
0.45164739811709204,0.3324708813711918,0.15658136305634596,0.4491704705161151,0.5947531179560536,0.9599999999999866,1
0.45161315329494345,0.3337943679906784,0.15342876085491647,0.4862525823173934,0.59711551363948,0.9599999999999866,1
0.4516323991346787,0.33133368142692055,0.15557797874305546,0.47479858074998826,0.5955403780079306,0.9599999999999866,1
0.4516274114995245,0.3320111756204597,0.1534931251735181,0.4269635367794302,0.5955403780079301,0.9599999999999937,1
0.45161883301132383,0.3313052115952332,0.15551859335337598,0.4371375885625828,0.5979027736913566,0.9599999999999937,1
0.4516403306066041,0.33273010013015136,0.15354851069251957,0.49373228728677565,0.5955403780079301,0.9599999999999866,1
0.45160651921739925,0.3335796472837914,0.15546656079587662,0.48104245624215813,0.5955403780079301,0.9599999999999866,1
0.4516520776954046,0.3302249422748418,0.15359764935108128,0.44717988203653497,0.5900277110614035,0.9599999999999937,1
0.45159530306490775,0.33240574040245174,0.15541997229979543,0.42059483973084116,0.5939652423763805,0.9599999999999866,1
0.45166279608211396,0.332523505511506,0.1536419559251227,0.4835441811364283,0.5916028466929534,0.9599999999999973,1
0.45158505164757334,0.33282655267400385,0.15537773145328876,0.48519070586769014,0.5931779823245037,0.9599999999999866,1
0.4516726091593313,0.3335082758129351,0.1536823097973728,0.45461234612267515,0.5876653153779768,0.9599999999999973,1
0.45157565025821583,0.33336683480415674,0.15533911371301773,0.4221329363902316,0.5923907222726267,0.9466666666666477,1
0.4516816237102456,0.3323442560573534,0.15371932080634304,0.4668002308716851,0.5923907222726267,0.9466666666666548,1
0.45156699933991234,0.3343182979968067,0.15530359693307116,0.48930870194873655,0.5931779823245037,0.9466666666666477,1
0.4516899327037208,0.33227217282079113,0.15375344224711268,0.4501602346891005,0.5923907222726267,0.9466666666666548,1
0.45155901192850845,0.3313459974012404,0.15527078311524645,0.4306971608953794,0.5900277110614035,0.9599999999999866,1
0.45169761763248434,0.332573721531605,0.1537850268362883,0.47511846375762856,0.5923907222726265,0.9599999999999831,1
0.45155161151478274,0.33001103521311254,0.15524035724796448,0.4875416611768836,0.5868780553261007,0.9599999999999831,1
0.45170475046930914,0.3337457125594927,0.1538143577319323,0.429359493843802,0.590815586641077,0.9599999999999866,1
0.45154473025197267,0.3334769342659092,0.15521206342426774,0.45926086762316726,0.5884531909576506,0.9599999999999866,1
0.45171139531272053,0.3323562794710339,0.15384166726854265,0.48854557755758976,0.5868780553261005,0.9599999999999973,1
0.4515383074410181,0.33241092006137385,0.1551856898998969,0.4511214436673901,0.5892404510095269,0.9599999999999937,1
0.4517176097854804,0.33394930639177584,0.15386714904799914,0.4359571368282183,0.5892404510095269,0.9599999999999973,1
0.45153228823474933,0.33324088333027835,0.15516105918422624,0.49694502359229,0.5892404510095274,0.9599999999999795,1
0.45172344624033517,0.33394504486073673,0.15389096615085573,0.4831123086400853,0.5868780553261,0.9599999999999866,1
0.45152662251047865,0.3327492060846733,0.15513802117054365,0.4622322319379733,0.5916028466929534,0.9599999999999795,1
0.45172895282004244,0.3329974815249418,0.15391325693056834,0.40841609782191846,0.5868780553261,0.9599999999999866,1
0.45152126386703867,0.3336805485404124,0.15511644821585402,0.4804346520675114,0.5868780553261003,0.9599999999999866,1
0.45173417441308694,0.33354638840062856,0.15393413921402987,0.48679770607815587,0.5853029196945502,0.9599999999999937,1
0.4515161687068563,0.333538520433564,0.15509623154049834,0.4768142443904371,0.5782151171164739,0.9599999999999866,1
0.45173915354304434,0.3336354685410171,0.153953713395087,0.4258710635012508,0.5853029196945504,0.9599999999999866,1
0.45151129536599577,0.333443949462367,0.15507727856823922,0.4413541962026732,0.5845156596426736,0.973333333333315,1
0.45174393122837264,0.33272078375415665,0.15397206471856673,0.48886440119637364,0.5860901797464265,0.9733333333333185,1
0.45150660325503905,0.33220482067001755,0.15505951097268722,0.4793799528743033,0.5845156596426736,0.9733333333333185,1
0.45174854785079877,0.3324311128581068,0.153989264938938,0.43523645636876107,0.5853029196945502,0.9733333333333221,1
0.45150205197083115,0.3338397482938852,0.15504286328616257,0.43711583049051916,0.5797902527480233,0.9599999999999866,1
0.4517530440749491,0.33340747476660704,0.15400537346441479,0.48321179695428407,0.5884531909576506,0.9599999999999831,1
0.45149760033277186,0.3336773447670307,0.15502728198816934,0.46614362842758544,0.5853029196945504,0.9599999999999795,1
0.4517574618703719,0.33348357152363495,0.15402043804490667,0.42673531289217304,0.584515659642674,0.9599999999999831,1
0.451493205286303,0.3336305095101051,0.1550127250371648,0.453945223539585,0.582940524011124,0.9466666666666441,1
0.451761845701156,0.3335170981095481,0.15403449501931082,0.4900192645209001,0.5860901797464267,0.9466666666666477,1
0.4514888205985186,0.33360378898990595,0.15499916185064533,0.4710609115618685,0.5868780553261005,0.9466666666666441,1
0.4517662439705523,0.333540338457215,0.15404756909601036,0.4253879217733454,0.5829405240111242,0.9466666666666548,1
0.4514843952431178,0.33358196335516777,0.15498657378233638,0.4549891731956503,0.5853029196945504,0.9599999999999866,1
0.45177071084255227,0.3335623330120517,0.15405967259254455,0.49086408096996953,0.5837277840630003,0.9599999999999866,1
0.4514798713287982,0.3335582593290405,0.15497495519959736,0.4745708598514753,0.58215264843145,0.9599999999999866,1
0.45177530861629767,0.33358964656702467,0.15407080399696083,0.43321084472505517,0.5837277840630001,0.9599999999999866,1
0.45147518135756587,0.3335244530671415,0.15496431534006172,0.43942195484814234,0.5845156596426738,0.9599999999999866,1
0.4517801109143466,0.3336352075578609,0.154080945620721,0.4866108451349184,0.5837277840630003,0.9599999999999831,1
0.4514702444917391,0.3334553559890027,0.15495468124150769,0.4646257093692652,0.5805781283276973,0.9599999999999831,1
0.4517852070826935,0.3337637933078089,0.15409005996833508,0.4295340742161075,0.5805781283276971,0.9599999999999866,1
0.4514649613335216,0.3330405171904485,0.15494610222326366,0.47810183755432456,0.5805781283276971,0.9599999999999831,1
0.45179070842527375,0.3327601891183295,0.1540980842115145,0.48255447199249774,0.5837277840630003,0.9599999999999866,1
0.4514592064302123,0.33371500750376504,0.15493865670642804,0.45529857394301654,0.5821526484314506,0.9599999999999866,1
0.451796757274234,0.3336096108073069,0.15410492174931545,0.4199823811100377,0.581365388379573,0.9599999999999866,1
0.45145281722203073,0.3330219655343093,0.1549324627000741,0.4774534841040807,0.5805781283276973,0.9466666666666477,1
0.45180354055190824,0.33276082731419687,0.1541104291107303,0.4907307279043157,0.5790029926961467,0.9466666666666619,1
0.4514455772795996,0.3338932596219659,0.15492769426507308,0.4698007285009587,0.5805781283276968,0.9466666666666477,1
0.4518113106443217,0.33335275319019075,0.15411439510361136,0.42512673885768404,0.5813653883795739,0.9466666666666619,1
0.4514371901109307,0.33370927179303345,0.15492460814899411,0.4593165834084181,0.5805781283276973,0.9466666666666548,1
0.4518204185282485,0.333520260018767,0.1541165064600249,0.49959546431605034,0.5774278570645969,0.9466666666666548,1
0.45142723693225134,0.3331759095590791,0.1549235885831628,0.47470442755766595,0.5790029926961467,0.9466666666666477,1
0.45183136802188684,0.3324899463456552,0.1541162887061363,0.4357936212973627,0.5805781283276968,0.9466666666666583,1
0.45141510647177113,0.3330105842510073,0.15492522640432427,0.43600077798797754,0.5790029926961467,0.9599999999999831,1
0.45184490714539743,0.3332099492586001,0.15411299865662764,0.4873582811586792,0.58215264843145,0.9599999999999866,1
0.4513998757040402,0.334120260168128,0.15493046766691004,0.4698222863659928,0.5782151171164743,0.9599999999999866,1
0.45186218337380024,0.3319399686110951,0.1541054149261613,0.4303950785751025,0.5805781283276973,0.9599999999999866,1
0.4513801108660128,0.3324876303780414,0.1549409156014539,0.4542693789756163,0.5790029926961472,0.9466666666666477,1
0.45188498716419334,0.33297414433450456,0.15409139135733324,0.4898961347430476,0.579790252748024,0.9466666666666548,1
0.4513536081035138,0.33306601109152545,0.15495951115244666,0.4609470314992387,0.5813653883795739,0.9466666666666477,1
0.45191589145240174,0.33402870902216386,0.15406678245078276,0.42828782007185384,0.5790029926961465,0.9466666666666477,1
0.45131790184826137,0.33253321493096144,0.15499230414950127,0.45633743132463883,0.5782151171164739,0.9333333333333194,1
0.45195495671569247,0.33323010369206263,0.15402236406783393,0.4877508609595842,0.5734903257496203,0.9333333333333229,1
0.45128692258117686,0.33358347415060363,0.15505418917657954,0.46933515571996703,0.5782151171164739,0.9333333333333194,1
0.4518790072683962,0.3336504427396904,0.15393208235776723,0.4442035928614223,0.5758527214330472,0.9333333333333265,1
0.4500216770059793,0.3333953342457953,0.15519684386016025,0.43244380017829054,0.5774278570645969,0.9333333333333229,1
0.4527886141918139,0.33276953516164265,0.15366116171264205,0.4854479468816676,0.5766405970127203,0.9333333333333265,1
0.45392785612748837,0.33144853730856594,0.1535795680715027,0.47189190544745896,0.5766405970127203,0.9333333333333229,1
0.4557966842089987,0.33368149144641346,0.15114784781100687,0.4466736453093527,0.5766405970127203,0.9333333333333265,1
0.4614461985106456,0.33474999091770397,0.1497489087077582,0.43776159051066216,0.5750654613811702,0.9466666666666548,1
0.4520084260417224,0.33291361232600025,0.15506469272307605,0.4834013663667034,0.5774278570645969,0.9466666666666477,1
0.4509786742700133,0.3334623935914907,0.1549260817844001,0.45512528150475545,0.5742775858014971,0.9466666666666477,1
0.4467489640348546,0.33178949222330595,0.1580768953386114,0.4354949367322802,0.5750654613811704,0.9466666666666583,1
0.44868329777728616,0.3336433036256207,0.15683175828171808,0.4944026759655328,0.5719151901180705,0.9333333333333229,1
0.4502810455719209,0.3332038025512565,0.15565764717252328,0.47027027840330116,0.5750654613811702,0.9333333333333265,1
0.4533179384170183,0.3327477896009225,0.15310369974486354,0.41554364444727965,0.5734903257496201,0.9333333333333229,1
0.4526873480817796,0.3334427437082539,0.15503475142445822,0.45430004223727605,0.5742775858014967,0.9333333333333265,1
0.4528217576699321,0.3337553251774873,0.1552620467543378,0.4991555975580142,0.5734903257496206,0.9466666666666477,1
0.450483802123961,0.33333345617900056,0.15437829160217958,0.45915274474663875,0.5742775858014967,0.9466666666666583,1
0.45137971511524566,0.3338762147500752,0.15464657703381796,0.43656400880505725,0.5742775858014969,0.9466666666666477,1
0.45164114179275083,0.3329449043779218,0.15428596474601208,0.47649394852534194,0.572703065697744,0.9466666666666619,1
0.4516437708806778,0.3328297856649513,0.15470784490565265,0.46247420589838517,0.5750654613811702,0.9466666666666619,1
0.4516042370079763,0.33368953983050553,0.15446686474626814,0.4555923281844563,0.5734903257496201,0.9466666666666725,1
0.4516465409046243,0.3335380333767711,0.15458807035399275,0.48662456804020693,0.5734903257496206,0.946666666666669,1
0.45161043556149016,0.3335582099377812,0.15444195649523568,0.467107102482781,0.5703400544865201,0.946666666666669,1
0.4516378371408591,0.33359364202604036,0.15460595289648377,0.42837559705078043,0.5727030656977435,0.9599999999999866,1
0.4516195187972586,0.3335285561485227,0.15442842427297704,0.44836515776821173,0.57191519011807,0.9599999999999866,1
0.45162914636823687,0.333611266325167,0.1546167078271325,0.4883612360876651,0.5711279300661941,0.9599999999999866,1
0.4516275412751557,0.33351745859167825,0.1544196059580994,0.46904627881766164,0.5711279300661937,0.9599999999999937,1
0.4516218692507922,0.3336184566455268,0.1546240943483851,0.43758922405696626,0.5711279300661934,0.9466666666666477,1
0.45163407851838827,0.3335127715770661,0.15441331744115827,0.4744787462774101,0.572703065697744,0.9466666666666548,1
0.4516160329694062,0.3336214574937204,0.1546295215932949,0.48475692485087046,0.5711279300661939,0.9466666666666477,1
0.45163926440515656,0.33351095152381943,0.15440857478734127,0.43838441784457416,0.5711279300661939,0.9466666666666548,1
0.45161144507846646,0.3336224241557088,0.1546337166600854,0.44886192381415535,0.5703400544865201,0.9199999999999839,1
0.4516433041819651,0.3335106182732171,0.15440481783453336,0.48495761720267655,0.5687655343827668,0.9199999999999875,1
0.45160790781635607,0.33362227616301365,0.1546371251683012,0.44732043481409306,0.5671903987512171,0.9199999999999839,1
0.4516463797127085,0.33351113975221214,0.1544016827176511,0.4400288187777674,0.5679776588030937,0.919999999999991,1
0.45160525800596707,0.33362145895636747,0.15464005097572825,0.47839759677370597,0.5695527944346438,0.9466666666666619,1
0.4516486353401132,0.33351219573437785,0.154398910442264,0.47208407013485504,0.5719151901180705,0.9466666666666619,1
0.4516033691047561,0.3336202063818601,0.1546427192210193,0.435509468844415,0.5601025961731402,0.9466666666666619,1
0.4516501812997566,0.3335136134202889,0.15439630139242766,0.4504404041649492,0.5679776588030941,0.9466666666666619,1
0.45160214558792283,0.3336186471620874,0.1546453105783891,0.48308655927911653,0.5687655343827668,0.9333333333333123,1
0.4516510999346769,0.33351529653773754,0.15439368838266376,0.4690204763836669,0.5679776588030933,0.9333333333333123,1
0.4516015169075134,0.3336168532387763,0.1546479835310406,0.4342289301057,0.5664025231715438,0.9333333333333123,1
0.45165145121516886,0.3335171917120161,0.15439091712735908,0.44617747372289174,0.5671903987512171,0.9333333333333194,1
0.4516014326257694,0.3336148635652444,0.15465089276381105,0.48804711063559814,0.565615263119667,0.9333333333333123,1
0.4516512769272557,0.33351927139839477,0.1543878274247017,0.4638147382520225,0.565615263119667,0.9333333333333229,1
0.45160185887966275,0.3336126964823104,0.15465421020349523,0.4321511451369232,0.5671903987512174,0.9333333333333194,1
0.45165060360068016,0.33352152484238734,0.1543842274802243,0.46262678983916955,0.566402523171544,0.9333333333333229,1
0.4516027760100491,0.33361035634114666,0.15465815894619217,0.4827378513633983,0.5656152631196673,0.9333333333333229,1
0.45164944436975996,0.3335239532412929,0.1543798458526417,0.43086768423197996,0.5664025231715432,0.9333333333333265,1
0.45160417717077905,0.3336078369973146,0.15466308561793846,0.45098854116042086,0.566402523171544,0.9333333333333229,1
0.45164779992532106,0.3335265672864597,0.1543742160970052,0.4905904521532273,0.564827387539994,0.9333333333333265,1
0.4516060677946236,0.33360512344810966,0.15466965519696413,0.4623541455523807,0.5664025231715434,0.9333333333333123,1
0.4516456586415856,0.3335293861964404,0.15436632611791196,0.4217457579709697,0.565615263119667,0.9333333333333123,1
0.4516084658738177,0.33360219223020543,0.15467953194443912,0.48003153461572334,0.5656152631196675,0.9333333333333123,1
0.45164299587632334,0.3335324378243016,0.15435315992924525,0.49171517254586194,0.5648273875399937,0.9333333333333194,1
0.4516114031038,0.3335990108420599,0.15469896213316026,0.4591354718486364,0.5624649918565671,0.9466666666666477,1
0.4516397723443034,0.3335357596958695,0.15431873224627685,0.4212653733691423,0.5640401274881169,0.9466666666666548,1
0.45161492704814865,0.33359553623190097,0.15479220095502466,0.46842277729185705,0.5616777318046907,0.9466666666666548,1
0.45163593133846913,0.3335394010309406,0.15528550207295272,0.4980448194652775,0.564827387539994,0.9466666666666583,1
0.45161910463120813,0.33359171220831507,0.15456283183702008,0.4506105700719618,0.5624649918565666,0.9333333333333336,1
0.4516313943930745,0.33354342598651654,0.15443101967343248,0.43656639178211876,0.5664025231715438,0.9333333333333265,1
0.45162402748846037,0.3335874654259089,0.15462231155950645,0.4780390212912622,0.564827387539994,0.9333333333333265,1
0.4516260547003632,0.33354791859867294,0.15442113440466704,0.48090382375591856,0.5624649918565666,0.9333333333333336,1
0.45162982006792424,0.33358269930962403,0.15458269537608454,0.4312768920028297,0.5632528674362406,0.9333333333333194,1
0.4516197671188814,0.3335529902632749,0.15525547203672013,0.4553814327073405,0.5624649918565666,0.9333333333333229,1
0.4516366520012014,0.333577284811737,0.15483268550167217,0.4952481136564527,0.5632528674362406,0.9333333333333194,1
0.4516123327752678,0.3335587912142693,0.1542673982544081,0.46703030198346906,0.558527460541591,0.9333333333333265,1
0.4516447573949553,0.3335710460673668,0.15476165751773135,0.42325379934791485,0.5632528674362401,0.9199999999999875,1
0.45160347470925943,0.33356552858358374,0.15427846058226619,0.46644869564452934,0.5601025961731404,0.9199999999999875,1
0.45165446584928126,0.33356373746403667,0.1547670263724366,0.4967007128714328,0.5624649918565673,0.9199999999999875,1
0.4515927979762048,0.3335734957920732,0.1542650735789225,0.47054361243482445,0.5624649918565671,0.9199999999999875,1
0.4516662543471548,0.33355500557281903,0.15478583115108524,0.4251942885662029,0.5616777318046905,0.9333333333333194,1
0.45157972132319263,0.3335831224337915,0.15424170958491024,0.45783515973187344,0.5648273875399937,0.9333333333333123,1
0.451680838463647,0.33354432293792263,0.15481362356732703,0.4930613772491236,0.5608898562250174,0.9333333333333123,1
0.45156335354549476,0.3335950634124444,0.1542092130985146,0.45686415710484773,0.5640401274881174,0.9333333333333229,1
0.4516993428837969,0.3335308661680516,0.15485140461004365,0.4309851988818852,0.5601025961731404,0.9333333333333229,1
0.45154225373051643,0.33361036863179816,0.15416527034577227,0.4721510562113874,0.5616777318046905,0.9333333333333265,1
0.451723645977236,0.3335132750253161,0.15490273234263824,0.4854772908813785,0.5569523249100407,0.9333333333333229,1
0.4515139235004215,0.3336308327343456,0.15410488422819557,0.4546205092957765,0.5601025961731404,0.9333333333333265,1
0.4517571498920036,0.3334891316422096,0.15497447568862993,0.4284058976256382,0.5585274605415905,0.9199999999999839,1
0.4514735991312949,0.3336597935221339,0.15401857365334803,0.4674863512441102,0.5577402004897135,0.9199999999999875,1
0.45180675194256587,0.3334536943454762,0.15507994753192733,0.48485377179491335,0.5585274605415905,0.9199999999999839,1
0.45141087608717023,0.33370422118041987,0.153887151355397,0.46325870726117224,0.5569523249100407,0.919999999999991,1
0.4518889764979831,0.3333962842043511,0.15524776528679374,0.4264995751674013,0.5593153361212638,0.9333333333333123,1
0.45129769650042734,0.3337813305339791,0.15366604413290796,0.4576560933023539,0.5530147935950639,0.9333333333333229,1
0.452056003791822,0.3332873446704809,0.15555123071375088,0.4906770004248215,0.559315336121264,0.9333333333333229,1
0.45102320814647784,0.3339458205344882,0.1532264869558599,0.4576933310620256,0.5593153361212638,0.9333333333333229,1
0.4525991947187941,0.33302112120133354,0.15622934249427045,0.4254518180010371,0.557740200489714,0.9199999999999982,1
0.4471649038652097,0.3336763566479885,0.15243178782096423,0.46014618015587333,0.5553778048062868,0.9200000000000017,1
0.4498139137280497,0.32285909346463143,0.16190045507349127,0.48308329220108737,0.5561650648581641,0.9200000000000017,1
0.45510265631376523,0.3160063635763436,0.17894997606896873,0.43421607471023393,0.5585274605415901,0.9199999999999982,1
0.44304892202247376,0.3298474826911074,0.15239595520689536,0.4578049715050194,0.5561650648581634,0.9199999999999982,1
0.44733097869075183,0.33046330279096425,0.16155083998159508,0.48391003254082965,0.559315336121264,0.919999999999991,1
0.44306990477021124,0.33338192938990163,0.1594771975905535,0.45338418351563353,0.5569523249100409,0.9199999999999875,1
0.44341318715376205,0.3321081328217227,0.16317491993203626,0.4370115049968389,0.5545899292266138,0.919999999999991,1
0.4435762087747841,0.33166807618096195,0.15984308622427879,0.47002602588673126,0.5561650648581639,0.9333333333333194,1
0.44211954031139344,0.3335778111042137,0.16390296519147562,0.48730190591866185,0.5569523249100404,0.9333333333333229,1
0.44490523453142344,0.3330855344708201,0.15911875343621917,0.4435986970195276,0.5553778048062871,0.9333333333333194,1
0.443238035329485,0.3314993080080852,0.16254129639817755,0.4538169493412437,0.553802669174737,0.9333333333333265,1
0.4402757103645205,0.33407482329539406,0.1591034392359833,0.4980622491334959,0.5545899292266138,0.9199999999999768,1
0.444664475469745,0.33321586774719936,0.15725601666527855,0.4415653578458854,0.5538026691747372,0.9199999999999839,1
0.44283288698711126,0.33385305139795285,0.15915009971335797,0.4384568715386911,0.5545899292266138,0.9199999999999768,1
0.44411284752875624,0.33331595281810056,0.157683998188355,0.4734431569658818,0.5545899292266138,0.9199999999999875,1
0.4430952264883479,0.3337936622062871,0.1577628909762649,0.4811498119807095,0.553802669174737,0.9333333333333229,1
0.4439558247724193,0.3333561241224444,0.15844675048447482,0.4177978448880394,0.5538026691747372,0.9333333333333229,1
0.4432012393432989,0.33376438928995156,0.15689257061198453,0.4737318260126419,0.5522275335431873,0.9333333333333229,1
0.4438786204613562,0.33337843336133,0.1559063285332506,0.4918973782399864,0.5538026691747372,0.9333333333333265,1
0.44326049429155134,0.3337469384279546,0.1574369498564861,0.46491938800667726,0.5545899292266133,0.9199999999999839,1
0.4438313423856178,0.3333922425992446,0.15984150565908867,0.41773391457346953,0.5553778048062868,0.9199999999999875,1
0.443299368845654,0.3337360408272141,0.15918043114371377,0.46961624600563123,0.5538026691747372,0.9199999999999875,1
0.44379859120994464,0.33340065952985554,0.15805966918530523,0.48382101006826644,0.550652397911637,0.9199999999999875,1
0.44332752926628,0.3337298833790092,0.15589309735587864,0.4659900099071378,0.5530147935950639,0.9333333333333229,1
0.44377394445253354,0.33340460397997684,0.15823980705547108,0.4319946860390269,0.5522275335431867,0.9333333333333336,1
0.44334945107097357,0.3337282847305941,0.1584953037505385,0.4574527480070705,0.5530147935950634,0.9333333333333229,1
0.44375414544055997,0.33340349644712486,0.15758663517198662,0.483334839670994,0.550652397911637,0.9333333333333371,1
0.44336760926939156,0.3337328049959316,0.16035470384769884,0.4636737190145957,0.5522275335431869,0.9333333333333194,1
0.44373721896733437,0.33339424731366696,0.15800275200117442,0.4289452793694008,0.5498651378597607,0.9333333333333194,1
0.4433836786987446,0.33374932688985887,0.15708036414919863,0.45693444643637643,0.5427773352816839,0.9333333333333123,1
0.44372162845513813,0.3333650256948626,0.15638993996690675,0.4825935697219636,0.5467148665966605,0.9333333333333229,1
0.4433992183490639,0.33380507942755644,0.154364288088015,0.467623656639014,0.550652397911637,0.9199999999999875,1
0.44370559179589875,0.33323312044175035,0.15646801477765415,0.4344690922205983,0.5498651378597604,0.9199999999999875,1
0.44341654264184027,0.33451407557350143,0.16029717622727407,0.44610883326728806,0.5475027421763342,0.9199999999999875,1
0.44368570123211276,0.33397734516322974,0.15804508689522118,0.4843632520925174,0.5490772622800869,0.919999999999991,1
0.4434413193022403,0.3334666186361237,0.15708365474139424,0.4664815393440499,0.5467148665966605,0.919999999999991,1
0.44365122997043444,0.3335939058482274,0.156393441454299,0.4345606688168928,0.5490772622800874,0.9199999999999982,1
0.4434974682948829,0.3335706980725279,0.1559673366238084,0.4470234086437599,0.5467148665966607,0.9199999999999875,1
0.4435324124554227,0.33354520397636256,0.15857332076163422,0.48650130815223064,0.5482900022282106,0.9199999999999982,1
0.4440043113835865,0.3335983759466715,0.15959482562780092,0.4600489627605968,0.5482900022282106,0.9333333333333087,1
0.4444003252614293,0.3335278091063453,0.15928862329223348,0.4351723073055628,0.550652397911637,0.9333333333333123,1
0.44312926883487525,0.33360997774857637,0.1585585085988847,0.4782191256134399,0.550652397911637,0.9333333333333087,1
0.4439169536196326,0.33351978342687233,0.15842840185146667,0.4850894649897387,0.5482900022282106,0.9333333333333194,1
0.44320020175426345,0.3336156489244785,0.15914822754954466,0.443437128009285,0.5482900022282101,0.9199999999999875,1
0.4439565397949955,0.3335157388651325,0.15544224121827377,0.43092143405393524,0.5443524709132338,0.9199999999999875,1
0.4430018896611959,0.33361852667497416,0.15755064064914343,0.49293292735034966,0.5475027421763342,0.9199999999999875,1
0.44539997573581414,0.3335137240963426,0.15668589447807624,0.4800626553542968,0.5443524709132338,0.9199999999999875,1
0.4442004103842456,0.3336198864251531,0.1563885268785849,0.4440763663300996,0.547502742176334,0.9333333333333229,1
0.4433683721100918,0.33351287304951266,0.15805430700028383,0.42799856876436143,0.5475027421763338,0.9333333333333194,1
0.44363638791138754,0.3336203338787802,0.15716226208902856,0.48769779852488926,0.547502742176334,0.9333333333333194,1
0.4435218849832203,0.33351275258836066,0.15713545259840356,0.4800901128897568,0.5475027421763338,0.9333333333333229,1
0.44356844204310525,0.3336201835661993,0.15691787256538348,0.4395144879230012,0.5467148665966607,0.9199999999999875,1
0.4435565247901197,0.3335131325221088,0.15586760048822573,0.4517004025570658,0.5467148665966605,0.9199999999999982,1
0.44355079398956654,0.33361960360921994,0.15804549766785303,0.49448828125388367,0.5443524709132338,0.919999999999991,1
0.4435636971307897,0.3335138921593818,0.15824590501869712,0.4422862221699836,0.5482900022282106,0.9199999999999982,1
0.44355136336660494,0.33361867681761476,0.1564872407144388,0.44882904160449955,0.5419900752298071,0.9199999999999875,1
0.4435561107034279,0.33351498062010443,0.15652370385386244,0.483141109924,0.5459276065447837,0.9199999999999982,1
0.443566938164303,0.3336174253435197,0.15618588121645965,0.4727787462121617,0.5435652108613572,0.9199999999999875,1
0.44352903946996475,0.33351640362005475,0.15691255963821132,0.42377246643373756,0.5451397309651108,0.9199999999999982,1
0.4436150889915766,0.33361581418290404,0.15721161826354768,0.4744042976939965,0.5443524709132334,0.9199999999999875,1
0.4434280403944206,0.33351822943084997,0.15676094230628573,0.49165949939142395,0.5427773352816841,0.9199999999999982,1
0.44397778076745686,0.3336137345633269,0.15600230905107831,0.46956138961772453,0.5435652108613575,0.919999999999991,1
0.44439997302258144,0.33352061911388337,0.15544418461359621,0.4214276162655383,0.5419900752298069,0.919999999999991,1
0.4432895972428176,0.33361095450271594,0.1556836808876974,0.4456310532092248,0.5443524709132338,0.9199999999999733,1
0.4437311788775167,0.3335239050705161,0.1549855722559626,0.492618899773441,0.5435652108613568,0.9199999999999768,1
0.44342044734248465,0.3336069935595309,0.15508816116063778,0.4796151990248011,0.5427773352816841,0.9199999999999768,1
0.44367075698236674,0.33352879515930633,0.1562235061860045,0.4343828145217798,0.5404149395982573,0.9199999999999768,1
0.4434567613861147,0.33360077828089607,0.15576510419199102,0.44748503533438794,0.5435652108613568,0.9199999999999875,1
0.4436456165631194,0.3335369828508671,0.15616670683662082,0.48848890978924864,0.5419900752298074,0.9199999999999875,1
0.44347583631730264,0.3335894913914812,0.15738977353252692,0.47055993838700927,0.5404149395982573,0.9199999999999875,1
0.4436301704993638,0.33355350815741724,0.1591916260766265,0.4364509331989151,0.5419900752298071,0.9199999999999875,1
0.4434889667712895,0.3335631241601094,0.15844059337720812,0.43690986702483353,0.5412021996501336,0.9199999999999839,1
0.44361858352371136,0.33360180556519053,0.15829649782566108,0.48962716646943844,0.5443524709132338,0.9199999999999875,1
0.44349949534229016,0.33344648086513284,0.15571709517833204,0.4712830004313118,0.5419900752298074,0.9199999999999768,1
0.4436087919543501,0.33446297261773184,0.1577457839262496,0.4372136146215475,0.5419900752298069,0.919999999999991,1
0.4435087726426942,0.33397014115734014,0.15485566016433017,0.4364065618515774,0.5404149395982573,0.9199999999999768,1
0.44359986834209747,0.33334502002334687,0.1577215303199347,0.4859130569456524,0.540414939598257,0.9199999999999875,1
0.44351746262063857,0.33374171822378546,0.15600859513068127,0.47738492949507716,0.5396276795463807,0.9199999999999768,1
0.44359131908599786,0.3334092963345535,0.15632129599079247,0.43928851643938926,0.5356901482314037,0.9199999999999875,1
0.44352594553681524,0.33371811673496965,0.15665022554477492,0.42782486213088516,0.5396276795463807,0.9199999999999768,1
0.4435828409232717,0.3334114855318394,0.1565602542716762,0.48910310791765665,0.5396276795463802,0.9199999999999768,1
0.4435344716841855,0.33373781316468976,0.15627460293498058,0.4680532142190769,0.5388398039667072,0.9199999999999768,1
0.443574220094896,0.3333415145023052,0.15674060972030296,0.4438400972814994,0.5396276795463805,0.9199999999999839,1
0.4435432299137471,0.33472840708236706,0.15674186152939595,0.45648913110688566,0.5372646683351575,0.9199999999999875,1
0.443565284141042,0.3336058304733157,0.15755333023541085,0.4929368550482483,0.541202199650134,0.9199999999999982,1
0.4435523827786489,0.33361234482169366,0.15670120236026702,0.44569073392330666,0.5419900752298074,0.919999999999991,1
0.4435558752570382,0.33348837174401225,0.15854822388949652,0.43846451574045964,0.540414939598257,0.9199999999999982,1
0.44356208764867916,0.3336691770558491,0.15596073506102176,0.4826592899582236,0.5396276795463805,0.9199999999999875,1
0.4435458326941172,0.3334359071343874,0.15580761912426705,0.4823805324891256,0.5364774082832803,0.9199999999999875,1
0.44357251222868904,0.3337406760247775,0.15479536358623025,0.43280970624244147,0.5396276795463807,0.9199999999999875,1
0.44353497823336013,0.3332973498047378,0.156252286967547,0.4460268922999906,0.5364774082832803,0.919999999999991,1
0.4435838489894765,0.3342974325489214,0.15683697555155507,0.49038467509237016,0.5372646683351573,0.9199999999999839,1
0.4435231010319665,0.3342087258555986,0.15648069218485733,0.47317012314813406,0.5364774082832803,0.9199999999999839,1
0.4435963318762471,0.3333865651135229,0.15743372648846288,0.4467389983811633,0.5380525439148306,0.9199999999999768,1
0.4435099384225347,0.3336504341846539,0.15757137256858483,0.4273066644366408,0.5380525439148306,0.9199999999999875,1
0.44361025915242536,0.33352768494148854,0.1556083210551364,0.46825634997752186,0.5372646683351573,0.9199999999999839,1
0.443495147917001,0.33357549023670524,0.1567479407371497,0.4881954220259178,0.5372646683351571,0.9199999999999875,1
0.4436260286301763,0.3335836029258412,0.1588537938245112,0.4493672715096124,0.5349022726517311,0.9199999999999875,1
0.4434782617473692,0.3335198897623577,0.15957636450751633,0.43877955261571905,0.5364774082832805,0.9199999999999875,1
0.44364419782672454,0.3336581456069207,0.1587363325851301,0.47908241933167384,0.53175200138863,0.9333333333333265,1
0.44345860509769547,0.3333741424588774,0.15718936738363215,0.47850378016517353,0.5380525439148306,0.9333333333333229,1
0.4436655984618938,0.33437746354328424,0.1555239141530208,0.43610210739506317,0.5341150125998543,0.9333333333333229,1
0.4434351302292123,0.3341107470005874,0.15564770083078272,0.43864767380108843,0.5349022726517302,0.9333333333333265,1
0.44369158653208945,0.33333539790507505,0.15657384946174574,0.4871067705655099,0.5349022726517306,0.919999999999991,1
0.44340602109260946,0.33372389646152273,0.1548976696513802,0.4737161613928538,0.532539876968304,0.9199999999999982,1
0.4437247047412502,0.33344098589220256,0.1551802010533575,0.43840743095038087,0.5341150125998545,0.919999999999991,1
0.4433675003911566,0.3336756741712864,0.15722597073442118,0.4334489557004198,0.5325398769683044,0.9200000000000017,1
0.44377104024718167,0.3334659145357981,0.15565388251900314,0.48093048343604883,0.5341150125998536,0.9199999999999875,1
0.4433085419818936,0.33366387072381287,0.15551246645332195,0.4793415297299481,0.5333271370201801,0.9199999999999875,1
0.4438545412412997,0.33346799952587913,0.15462890649993322,0.4441566009820545,0.5246648143383509,0.9199999999999875,1
0.443156372223784,0.33367140873952544,0.15531523241451928,0.43623549174549076,0.529389605705204,0.9199999999999875,1
0.44470749350098976,0.33344745136201864,0.15630933709719086,0.4946089834235995,0.5309647413367536,0.9333333333333194,1
0.44358860314542903,0.3337163543582373,0.1566470499127134,0.4669781987717752,0.5309647413367534,0.9333333333333123,1
0.44372970847592563,0.3333321040599455,0.15640634018458066,0.43025999610397125,0.5301774812848773,0.9333333333333123,1
0.4432982006484588,0.33457804689335624,0.1582446415324099,0.46781825539302463,0.5317520013886309,0.9333333333333229,1
0.44388213115746306,0.33385353646039606,0.15764141114046554,0.4905288329694597,0.5270272100217771,0.9199999999999875,1
0.4431630858064444,0.3334639788626,0.1574766695266614,0.4638179787197624,0.534115012599854,0.919999999999991,1
0.4440267940443749,0.3336195902304765,0.1574694516553074,0.42729546184352557,0.5317520013886307,0.919999999999991,1
0.4429925423869684,0.3335353390993786,0.15470569328221306,0.45768475962969635,0.5317520013886304,0.919999999999991,1
0.444241891462601,0.33358771824934685,0.155563680939857,0.49926957050181403,0.5317520013886304,0.9333333333333194,1
0.4427030932052928,0.33354557056102496,0.1560789256068742,0.46848609213141185,0.5286023456533272,0.9333333333333229,1
0.44466409976968707,0.33360480618621785,0.15723562998563723,0.447046390151503,0.5278144700736539,0.9333333333333194,1
0.4420051584929005,0.33345142318952903,0.15454602631427716,0.4201614351060905,0.5293896057052042,0.9333333333333265,1
0.446150517007578,0.334317676698464,0.15623916491231793,0.4897975157653944,0.5293896057052038,0.9333333333333194,1
0.4321228694148161,0.3331587661356961,0.15527629517247726,0.47574432960040275,0.532539876968304,0.9333333333333229,1
0.41641196019192833,0.31681878969904653,0.19356607086703115,0.4641590890879371,0.5309647413367536,0.9333333333333229,1
0.40812789821087075,0.3067877698839661,0.22339194776475807,0.42182290846544557,0.5301774812848771,0.9333333333333229,1
0.43780364527727467,0.32260816770142187,0.16659645495566455,0.48001007206667373,0.5301774812848771,0.9199999999999875,1
0.49221313735399874,0.32688422131710415,0.1296613487293654,0.4661138563260518,0.5301774812848771,0.9199999999999875,1
0.4978007040494078,0.32775236697568255,0.1329400900348574,0.45140565964562507,0.5301774812848773,0.9199999999999875,1
0.5049711351500865,0.33095914313603325,0.12654341766026977,0.46292205218888105,0.533327137020181,0.9199999999999875,1
0.5066574280106706,0.3338229144427273,0.12452197034091039,0.5732639107579598,0.5317520013886307,0.9199999999999875,1
0.5021476252038153,0.33340139050575923,0.12840401148252645,0.38815878409067794,0.5349022726517306,0.9199999999999875,1
0.4988945498373005,0.3336960256820426,0.130542291015328,0.40059632147509405,0.5349022726517306,0.9199999999999839,1
0.5011072902408229,0.33344327975696003,0.13249456839079682,0.4492563482983511,0.5341150125998536,0.9199999999999875,1
0.4984990178358925,0.33373330097011444,0.13182713253994233,0.4556703863084361,0.5341150125998538,0.9199999999999875,1
0.5002708886901059,0.33269973399111796,0.1324397520628402,0.48981315716814505,0.5333271370201805,0.919999999999991,1
0.49956447951685445,0.33216795408799127,0.13185362997317407,0.44254377823431573,0.5333271370201803,0.9199999999999875,1
0.5005679981149187,0.3336427799333261,0.13242660052490735,0.4380032831298115,0.5317520013886304,0.9199999999999982,1
0.4979754350805027,0.3330815337421579,0.13186085851300466,0.4780739849086701,0.5333271370201803,0.9199999999999768,1
0.4999380744710849,0.3320845204074043,0.1324222706269722,0.4801371026768842,0.5317520013886304,0.9199999999999839,1
0.49985117879706914,0.333193859973877,0.1318636435146131,0.4357518067590855,0.5317520013886307,0.9199999999999768,1
0.4978359406206202,0.33380993542623505,0.13242037137918278,0.48178681713469174,0.5270272100217775,0.9199999999999839,1
0.49527967320135313,0.3328987218827275,0.1318650003535688,0.4850815688009177,0.5293896057052038,0.9199999999999875,1
0.49901809842600564,0.3328497411519955,0.13241936784342245,0.4405396724055154,0.5317520013886302,0.9199999999999875,1
0.4999625484760283,0.33381961883089806,0.1318657599064954,0.44866796049015467,0.5301774812848773,0.9199999999999875,1
0.5003823715804577,0.3334435277432814,0.13241878622274095,0.4989105170813275,0.5301774812848773,0.919999999999991,1
0.49855018443133825,0.33273768991769037,0.13186620521631037,0.47534476596060377,0.5278144700736539,0.9199999999999768,1
0.4980798416943237,0.33317237768943025,0.13241844989152324,0.45229485272558945,0.532539876968304,0.9199999999999875,1
0.49870532691938907,0.33396435946716463,0.13186645126908636,0.41724123021195664,0.5278144700736539,0.9199999999999839,1
0.4969374777946788,0.3325881680914662,0.1324182807930568,0.47673281737977236,0.5293896057052035,0.9199999999999875,1
0.4976292981862493,0.33316116410631613,0.13186655328837305,0.4816728758727091,0.5309647413367536,0.9199999999999875,1
0.4995991644043999,0.3337053107227978,0.13241823825705085,0.46777716411688913,0.5286023456533272,0.9199999999999982,1
0.4971683200695693,0.3332991499163675,0.1318665423849414,0.4271657872629586,0.5293896057052038,0.9199999999999875,1
0.4990602628627311,0.33113908122652425,0.13241829764563906,0.4558813528854209,0.5246648143383509,0.9200000000000053,1
0.4987830905729337,0.3333017051763213,0.13186643867678233,0.4876099643542283,0.5286023456533272,0.9333333333333229,1
0.4969985148180584,0.3315445958455465,0.13241844209625625,0.4594659441289038,0.5238769387586776,0.9333333333333229,1
0.4972699315341549,0.3317598343279087,0.13186625660873597,0.43282204751780984,0.5286023456533274,0.9333333333333229,1
0.4987989188764085,0.33386523414669156,0.13241865901361477,0.46186011204114963,0.5270272100217771,0.9333333333333265,1
0.49964619249346376,0.33223944090705865,0.131866007321351,0.4834380230870397,0.5254520743902272,0.9199999999999875,1
0.4996065021118631,0.33387799296209275,0.13241893843061453,0.4574191205843497,0.5293896057052038,0.9199999999999982,1
0.4994195327815056,0.3333865287213422,0.13186569981388424,0.43148798223555407,0.526239949969901,0.9199999999999982,1
0.4991658085046438,0.33279321689181085,0.13241927216162758,0.4679101746643524,0.5270272100217769,0.9199999999999982,1
0.497713487557801,0.3331159069445564,0.13186534157699015,0.49025133024726203,0.5246648143383504,0.9199999999999875,1
0.5005474693021362,0.3340260407545268,0.13241965331740368,0.4497431207568434,0.5286023456533272,0.919999999999991,1
0.49651668605960025,0.3325139511409804,0.1318649389740259,0.4293315190442738,0.5191521473918242,0.9199999999999875,1
0.49561203856897096,0.33326330267012927,0.13242007599823447,0.4752703157241538,0.5262399499699001,0.9199999999999875,1
0.49634794858271425,0.33353205203174163,0.13186449749334656,0.4876364256727688,0.5246648143383509,0.9333333333333123,1
0.4976890610872225,0.3337565134100376,0.13242053508243423,0.44970810933437994,0.525452074390227,0.9333333333333194,1
0.4941770910930587,0.33289290849930997,0.13186402192871688,0.43526121028240683,0.525452074390227,0.9333333333333123,1
0.49481381908812894,0.3328759202328234,0.13242102607012501,0.47691867366825547,0.5223024186549238,0.9333333333333229,1
0.49575300481996365,0.33379245110814043,0.1318635165163617,0.4819591257727133,0.5262399499699003,0.9199999999999875,1
0.49957207020766903,0.33343493491805537,0.1324215449616059,0.4481325356168892,0.5223024186549236,0.919999999999991,1
0.4971739231918389,0.3336588409059734,0.13186298504402155,0.4346746518478342,0.5246648143383504,0.9199999999999875,1
0.5003730808766754,0.3334932565289349,0.1324220881586704,0.4793989969604153,0.5238769387586769,0.919999999999991,1
0.4983812585878155,0.3336331152763059,0.13186243094100808,0.4786869937044451,0.5238769387586774,0.9333333333333194,1
0.498126873719941,0.33349260692286314,0.1324226523817541,0.4459129315819697,0.5230896787067997,0.9333333333333123,1
0.4968804458348387,0.3336856308150376,0.1318618573550408,0.4363789592941147,0.5238769387586778,0.9333333333333123,1
0.49840207884751003,0.33251958057292,0.13242323459811173,0.4703465518303825,0.5230896787068006,0.9333333333333229,1
0.49752224684137575,0.3334022853810364,0.13186126721992725,0.4788758099524631,0.5215145430752509,0.9466666666666619,1
0.49857300622966716,0.33365756244087763,0.1324238319574943,0.43642623088298066,0.5246648143383504,0.946666666666669,1
0.4974887290224922,0.333493014285554,0.13186066331724283,0.45450331403738137,0.5207272830233739,0.9466666666666619,1
0.4965263564871851,0.33363537804712357,0.13242444173244983,0.4850885768983312,0.5223024186549236,0.946666666666669,1
0.49782740463990854,0.3334969643353045,0.13186004833468634,0.46479379186236897,0.5215145430752507,0.9333333333333229,1
0.4980700720930623,0.3336402087295791,0.1324250612606887,0.43019545896471006,0.5230896787068003,0.9333333333333336,1
0.49635976563892126,0.3334858093054305,0.13185942492361508,0.4710642787267692,0.5215145430752507,0.9333333333333229,1
0.5000637055510321,0.33365776428183225,0.13242568788701303,0.4804971172364935,0.5191521473918242,0.9333333333333371,1
0.4973924452590682,0.3334598298170179,0.13185879575831,0.4711831361991731,0.5183648873399472,0.9199999999999875,1
0.4990173912181796,0.33369732205439734,0.13242631890215412,0.4243357517934461,0.5191521473918238,0.919999999999991,1
0.4976893754392894,0.3333934859180582,0.13185816359980002,0.45419275061644093,0.5112770847618712,0.9199999999999875,1
0.5001537055415453,0.33383514659417723,0.13242695147545402,0.48437135951533195,0.5191521473918238,0.9199999999999875,1
0.49755739507773733,0.3328342185352824,0.13185753136760098,0.47271267035162806,0.5191521473918238,0.9199999999999839,1
0.4975657897927578,0.3329294208304036,0.1324275825776527,0.43259041353043054,0.5191521473918238,0.9199999999999875,1
0.49622496583377573,0.33373539444413824,0.13185690222360114,0.4469133541037014,0.5191521473918242,0.9199999999999875,1
0.49591983554000374,0.33350415421788077,0.13242820888895557,0.48302598994689466,0.5183648873399472,0.9199999999999875,1
0.4975993562925196,0.33356320046331767,0.13185627967364205,0.4693886921315737,0.5191521473918238,0.9199999999999875,1
0.49931405460151057,0.33365736375313526,0.13242882668592,0.4344127313327582,0.5207272830233743,0.9199999999999875,1
0.4990747065566744,0.33250537545237024,0.13185566769438328,0.4519601623406025,0.5167897517083976,0.9199999999999875,1
0.4987399876528131,0.3334890435731172,0.1324294316982106,0.4861280304761136,0.5152146160768468,0.9199999999999875,1
0.4990485237471435,0.3326201035581161,0.13185507089607923,0.47165783123499766,0.5175770117602737,0.9333333333333123,1
0.5001080836147729,0.3333394477954166,0.13243001892249395,0.4298021036081398,0.5160018761287241,0.9333333333333229,1
0.4998988226564499,0.33369690835781796,0.13185449473659916,0.4506992224053034,0.5175770117602739,0.9333333333333123,1
0.49906003259449677,0.33347139659296665,0.1324305823749211,0.49027902638066745,0.5144273560249705,0.9333333333333229,1
0.5001980228214785,0.33364202378055163,0.13185394580928406,0.46917097343362363,0.5160018761287238,0.9199999999999768,1
0.49911869112875273,0.33350405831624375,0.13243111475450126,0.437011688790567,0.5144273560249703,0.9199999999999839,1
0.49888423069545784,0.33361956375618584,0.13185343223878798,0.4549152630951448,0.5152146160768477,0.9199999999999768,1
0.4974669883514613,0.33352078983707834,0.13243160697501577,0.48777235648662964,0.5175770117602737,0.9199999999999839,1
0.49851594844893876,0.33360644360409386,0.13185296423777348,0.4651423160128185,0.515214616076847,0.9199999999999768,1
0.49728881555723226,0.33353145358706543,0.1324320474990252,0.43352712636175983,0.5152146160768468,0.9199999999999768,1
0.4987314335275929,0.3335975435824139,0.1318525549085507,0.4706429515936336,0.5104898247099937,0.9199999999999768,1
0.49949128265187204,0.3335390344518005,0.1324324213667607,0.4864278781353724,0.5144273560249711,0.9199999999999839,1
0.4983094607466584,0.33359098166339557,0.13185222142741893,0.45936505073740375,0.5112770847618707,0.9199999999999875,1
0.5005308474747546,0.3335447882639701,0.13243270874143387,0.4297705245777203,0.5160018761287238,0.9199999999999982,1
0.4977514267348737,0.33358588325552857,0.1318519868449468,0.46937017586411756,0.5144273560249709,0.919999999999991,1
0.49916993516825636,0.33354934457594565,0.13243288266325864,0.48457234054051807,0.5112770847618703,0.9199999999999982,1
0.5001304698906539,0.33358178337406147,0.13185188291226152,0.4629913853296079,0.5144273560249707,0.919999999999991,1
0.4994572445095946,0.333553053682092,0.13243290545976255,0.43538418822795283,0.5128522203934204,0.9199999999999982,1
0.49789764554990235,0.33357841430119534,0.13185195468625888,0.44754111292300874,0.5128522203934206,0.919999999999991,1
0.4974767554507761,0.33355612202245777,0.13243272277317308,0.4784668208115055,0.5120643448137471,0.9199999999999982,1
0.4972314046808603,0.33357561644487577,0.13185226836795488,0.4664288820807987,0.5128522203934202,0.9199999999999768,1
0.49987255495222227,0.33355867222709823,0.13243225313923201,0.440688573485758,0.5097019491303204,0.9199999999999768,1
0.4980421649924254,0.333573297390074,0.1318529253566469,0.45890328066205305,0.5104898247099944,0.9199999999999733,1
0.497732709829272,0.3335607709576731,0.13243136873217254,0.47881363750701217,0.5104898247099937,0.9199999999999768,1
0.49797266248260186,0.3335714135503195,0.13185408909748147,0.4665290309382997,0.5112770847618703,0.9066666666666556,1
0.49957927260930823,0.33356243987482115,0.13242985718779277,0.43793052291031004,0.5112770847618707,0.9066666666666627,1
0.49973370774021775,0.333569965516904,0.13185604058569944,0.4430201819308739,0.5089146890784445,0.9066666666666627,1
0.49904890457658735,0.3335636541866932,0.13242733884577973,0.4855653868907074,0.5112770847618707,0.9066666666666627,1
0.499429028234049,0.3335690062469502,0.13185930538959167,0.4718877691961463,0.5104898247099937,0.9066666666666627,1
0.49865814871772124,0.33356432603807673,0.13242306510017426,0.4387918520898649,0.5120643448137475,0.9066666666666627,1
0.4985299752990071,0.33356866933009754,0.13186498675207536,0.4381497028158378,0.5104898247099939,0.9066666666666627,1
0.49867900756206407,0.3335642588044916,0.13241534127833765,0.48092765918796415,0.5104898247099937,0.9066666666666627,1
0.49606842139368224,0.33356924246589764,0.13187582568060058,0.47265673241781436,0.5081268134987705,0.9199999999999839,1
0.49675752075971263,0.3335630268586567,0.1323994305780416,0.4446770510471852,0.5097019491303206,0.9199999999999875,1
0.4979182460861836,0.33357137098375456,0.1319007637549358,0.44963131735379425,0.511277084761871,0.9199999999999839,1
0.49886464578039313,0.33355961397815065,0.13235623178821188,0.4861767395498609,0.5081268134987708,0.919999999999991,1
0.4959751368706497,0.3335767434345709,0.13198838573539712,0.4631523567543157,0.5089146890784443,0.9333333333333229,1
0.49735197044549473,0.33355099430992247,0.13138391912085712,0.4379526281660341,0.5089146890784441,0.9333333333333229,1
0.4952195989785796,0.3335914157810812,0.13070791729627335,0.4648136146559587,0.5089146890784443,0.9333333333333229,1
0.49525840675529126,0.33244186263204356,0.13177509794661002,0.48996412389994537,0.5089146890784438,0.9333333333333229,1
0.4936363484209646,0.3336646046518798,0.13277468025912154,0.4504119283496369,0.5081268134987708,0.9066666666666627,1
0.49487363884134894,0.3325330694216076,0.13245162978357178,0.4352413409128983,0.5089146890784436,0.9066666666666627,1
0.4916500548153345,0.3333954490939688,0.1317789977075151,0.49194821379416687,0.5065522933950173,0.9066666666666627,1
0.49224863952143516,0.33365818889643944,0.13248630853194138,0.4830112417250068,0.5057644178153441,0.9066666666666663,1
0.49173812306848763,0.3334985038052483,0.1318030247884831,0.44317872562309973,0.5073395534468935,0.9333333333333229,1
0.4921917306231056,0.3336235462787983,0.13247950701810157,0.45734998754996725,0.5081268134987708,0.9333333333333265,1
0.49177568116417625,0.3335157096908006,0.13180681820940815,0.44927368692346525,0.5073395534468942,0.9333333333333229,1
0.4921648528676533,0.333613545397148,0.1324768496099798,0.462102544776041,0.5049771577634674,0.9333333333333265,1
0.491796139424031,0.3335220153624282,0.131808809796512,0.4399996411609166,0.5065522933950175,0.9199999999999875,1
0.4921485481502733,0.3336093913627409,0.13247533354644764,0.46294317940247004,0.5049771577634672,0.9199999999999982,1
0.4918095983968529,0.33352480593145195,0.13180995751532232,0.4817301111520871,0.5057644178153441,0.9199999999999875,1
0.4921371282868612,0.33360751897275226,0.13247448189014127,0.4542732573336084,0.5034020221319175,0.9199999999999982,1
0.49181950381265815,0.33352603090795746,0.13181056628873172,0.44641497188180174,0.5065522933950175,0.919999999999991,1
0.49212838106137985,0.33360676727286853,0.13247407513421489,0.4831103177169135,0.505764417815344,0.9199999999999982,1
0.4918273434799838,0.3335264263848691,0.13181080322148203,0.46942603939475624,0.5041892821837941,0.9199999999999982,1
0.49212126732057027,0.3336066464715468,0.13247398223131085,0.44202406387038773,0.5065522933950173,0.9199999999999982,1
0.4918338662790253,0.3335263310236187,0.13181077303209648,0.4476806608445231,0.5034020221319172,0.9199999999999875,1
0.49211523294929427,0.3336069149583909,0.1324741183247377,0.488015952817853,0.507339553446894,0.9199999999999875,1
0.49183949155607576,0.3335259217375798,0.1318105452905628,0.4569565037043395,0.5049771577634675,0.9199999999999875,1
0.4921099543493832,0.33360744032050615,0.13247442577494317,0.44227164732248897,0.5049771577634672,0.9199999999999875,1
0.49184447330936,0.3335252995047914,0.13181016822606356,0.46491692679943564,0.5041892821837938,0.9199999999999875,1
0.4921052291394978,0.3336081443008153,0.13247486383878465,0.48246842791512323,0.5049771577634675,0.9199999999999875,1
0.4918489749558437,0.333524525827941,0.13180967658531978,0.44304617211553243,0.5041892821837941,0.9199999999999839,1
0.4921009237838603,0.3336089779706145,0.1324754025988108,0.4472910410196335,0.5018268865003674,0.9199999999999875,1
0.49185310678897365,0.3335236400506106,0.1318090963815507,0.4807283719145704,0.5034020221319174,0.9199999999999839,1
0.49209694630034007,0.3336099093957384,0.13247601920447194,0.47411192062502794,0.4994644908169409,0.9199999999999875,1
0.49185694619560494,0.3335226683069772,0.13180844790419038,0.4493441314589727,0.5034020221319172,0.9199999999999839,1
0.49209323105986713,0.33361091703414103,0.13247669543323182,0.4378471075141272,0.5018268865003674,0.919999999999991,1
0.4918605492397473,0.33352162846534217,0.1318077477206504,0.47239044002594177,0.5034020221319174,0.9066666666666556,1
0.49208972985040467,0.33361198598466,0.13247741602424012,0.4773586520590223,0.5018268865003672,0.9066666666666627,1
0.4918639576332961,0.3335205330092835,0.13180701008568618,0.4495797517034536,0.49395182387041403,0.9066666666666556,1
0.49208640638359386,0.33361310574966124,0.1324781674643603,0.43156205532847036,0.5010396264484906,0.9066666666666627,1
0.49186720310576193,0.3335193907925921,0.13180624800923607,0.4695903592478483,0.49946449081694055,0.9066666666666556,1
0.49208323278886956,0.333614268845809,0.13247893702608016,0.47672961014170095,0.5026147620800402,0.9066666666666521,1
0.49187031023934563,0.3335182081482943,0.13180547414688942,0.44369430123409226,0.49946449081694055,0.9066666666666521,1
0.4920801873041809,0.33361546991186736,0.13247971191872226,0.4446997511242705,0.5010396264484906,0.9066666666666627,1
0.49187329836246385,0.3335169896115332,0.13180470163447894,0.47960460757180834,0.49788935518539046,0.9199999999999839,1
0.49207725271393765,0.3336167051191721,0.1324804784415094,0.4705923574826586,0.5002517508688175,0.9199999999999875,1
0.4918761828454521,0.3335157384032258,0.13180394497437864,0.4340710591801776,0.4986766152372676,0.9199999999999875,1
0.49207441526893325,0.33361797177265246,0.13248122102893556,0.4636321539870951,0.49946449081694055,0.919999999999991,1
0.4918789760048145,0.3335144567608397,0.13180322109101567,0.48665450133426763,0.49946449081694066,0.9199999999999768,1
0.49207166392647483,0.33361926803535535,0.1324819210563007,0.45869138128801695,0.49788935518539046,0.9199999999999875,1
0.49188168774371666,0.33351314616874306,0.13180255071028135,0.4339783928681155,0.4994644908169409,0.9199999999999768,1
0.49206898980927843,0.3336205927351335,0.13248255521831964,0.474592461277204,0.497889355185391,0.919999999999991,1
0.4918843260097726,0.3335118075209401,0.1318019602951674,0.48254927977710527,0.4939518238704139,0.9199999999999733,1
0.4920663858180282,0.33362194522729655,0.13248309318601603,0.45702983709691025,0.4963142195538408,0.9199999999999768,1
0.49188689712264155,0.3335104412372319,0.13180148491848387,0.4304953274218914,0.497889355185391,0.9199999999999733,1
0.492063846355094,0.3336233252962244,0.13248349404204596,0.47172207639525643,0.495526959501964,0.9199999999999768,1
0.49188940600593434,0.333509047346614,0.13180117273831393,0.48387221973240624,0.4963142195538408,0.9199999999999875,1
0.4920613671313605,0.333624733084676,0.13248370059540232,0.44372247034997564,0.4963142195538405,0.9199999999999875,1
0.4918918563462221,0.3335076255471426,0.1318010923077989,0.44650964067695387,0.49552695950196435,0.9199999999999875,1
0.49205894503769065,0.3336261690431923,0.13248362986339557,0.4878136334251863,0.497889355185391,0.9199999999999875,1
0.4918942506940478,0.3335061752485525,0.13180134513675446,0.4687029028679253,0.49158942818698725,0.9199999999999875,1
0.4920565780691274,0.33362763389438,0.13248315624951512,0.4359638282061772,0.4971020951335139,0.9199999999999875,1
0.49189659051628165,0.3335046956019704,0.13180208858216946,0.458278654283648,0.4971020951335141,0.9199999999999839,1
0.4920542652946854,0.33362912860845456,0.13248207983991295,0.48476882407683874,0.4971020951335139,0.9199999999999875,1
0.49189887620504225,0.33350318551974867,0.13180358063413317,0.46144675342226316,0.4971020951335141,0.9199999999999768,1
0.4920520068692566,0.33363065438749173,0.1324800617093942,0.4380193019785081,0.4963142195538406,0.9199999999999875,1
0.49190110704505474,0.33350164368757557,0.13180627577649406,0.44939982399680845,0.4963142195538406,0.9199999999999839,1
0.4920498040872586,0.33363221265657694,0.1324764776437869,0.48356389349399986,0.495526959501964,0.9199999999999875,1
0.49190328113835824,0.3335000685703935,0.13181105600708082,0.4564421529972687,0.4947390839222907,0.9066666666666521,1
0.49204765948058227,0.33363380506053913,0.13247003804760638,0.4461346327387256,0.4947390839222904,0.9066666666666556,1
0.49190539528230226,0.3334984584132535,0.13181988804185885,0.46860041567824773,0.49552695950196435,0.9066666666666521,1
0.4920455769664841,0.33363543346529856,0.1324575790081527,0.4809428311406303,0.49473908392229093,0.9066666666666556,1
0.4919074447934641,0.33349681123795444,0.13183823239436715,0.43559389618058875,0.49316456381853746,0.9199999999999875,1
0.4920435620546817,0.33363709996306745,0.13242870949629526,0.45794371473262013,0.49710209513351356,0.9199999999999875,1
0.49190942326610665,0.3334951248361611,0.13188901419315952,0.4818694353160253,0.49552695950196446,0.9199999999999875,1
0.4920416221274751,0.3336388068807541,0.1323176400198084,0.4772796457573094,0.49395182387041436,0.919999999999991,1
0.4919113222485395,0.33349339675964534,0.13236187906642383,0.4361862921580677,0.4939518238704139,0.9199999999999875,1
0.49203976681280703,0.3336405567909032,0.13311110511664864,0.4480360672849529,0.49237668823886427,0.9199999999999982,1
0.49191313081358556,0.3334916243083577,0.13156840982812146,0.4825448525774787,0.49395182387041436,0.9199999999999875,1
0.4920380084786842,0.3336423525243787,0.13263825179049987,0.47051681874962054,0.49080155260731373,0.919999999999991,1
0.4919148349892072,0.3334898045172702,0.13167946303032768,0.4486658976025555,0.4931645638185371,0.9199999999999839,1
0.4920363628895787,0.33364419718365795,0.13258748636932205,0.4382086445467391,0.49237668823886427,0.9199999999999875,1
0.4919164170005549,0.33348793414337213,0.13170832288483203,0.469177894613423,0.49316456381853746,0.9199999999999768,1
0.49203485008345793,0.3336460941549996,0.13256913554239552,0.4768879834699481,0.49237668823886427,0.919999999999991,1
0.49191785425260703,0.3334860096550284,0.13172081708927785,0.44824223424890486,0.4908015526073143,0.9066666666666521,1
0.492033495555357,0.333648047116673,0.13256022315790972,0.4425176573757982,0.4947390839222907,0.9066666666666556,1
0.49191911794870247,0.33348402722731074,0.13172740375319025,0.4757557219082435,0.49237668823886427,0.9066666666666521,1
0.4920323318757427,0.3336500600385845,0.132555201016622,0.46504964437031726,0.4923766882388638,0.9066666666666521,1
0.49192017118698805,0.3334819827493381,0.13173136149573544,0.4398379817345456,0.4884391569238874,0.9199999999999768,1
0.4920314009394374,0.33365213716546005,0.13255195152382881,0.457094341751215,0.4931645638185369,0.9199999999999839,1
0.49192096629059406,0.333479871853852,0.13173418023244182,0.48026799070202786,0.4900142925554377,0.9199999999999839,1
0.49203075715183686,0.3336542829702063,0.13254932327691832,0.4553125336986314,0.4892270325035608,0.9199999999999875,1
0.4919214409833249,0.33347768998659394,0.13173685249213307,0.43538977621900615,0.49080155260731395,0.9199999999999875,1
0.4920304720477484,0.33365650205427777,0.13254634789070158,0.4727511392300387,0.4900142925554374,0.9199999999999982,1
0.49192151277333174,0.3334754325461965,0.1317404524341136,0.4754170245698316,0.49001429255543727,0.9199999999999875,1
0.49203064117116685,0.3336587989541424,0.13254168239178715,0.43970058891525493,0.4884391569238873,0.9199999999999982,1
0.4919210704575916,0.3334730951493974,0.13174684442201678,0.4523361457460163,0.4908015526073143,0.9066666666666521,1
0.4920313946586764,0.3336611777799217,0.13253248590939254,0.48400819227170866,0.4900142925554374,0.9066666666666556,1
0.4919199608098148,0.33347067412197884,0.1317607748940462,0.45257122416117146,0.4892270325035608,0.9066666666666521,1
0.4920329141620782,0.33366364154878825,0.13250993710850312,0.447664814758088,0.4876518968720107,0.9066666666666627,1
0.4919179668152923,0.33346816740513985,0.13180121372347242,0.4904065553642412,0.4876518968720107,0.9199999999999768,1
0.492035461205936,0.3336661909487483,0.1324219714160519,0.473292324546195,0.4900142925554374,0.9199999999999875,1
0.4919147701898082,0.333465576249531,0.13212992659387607,0.43290976988414986,0.48765189687201116,0.9199999999999875,1
0.49203942752806296,0.3336688220027473,0.13332791758508306,0.47250352318734024,0.4884391569238873,0.9199999999999875,1
0.4919098825406492,0.3334629084612529,0.13148529882394305,0.48422872157678615,0.4884391569238874,0.9199999999999768,1
0.4920454311457097,0.3336715215157907,0.13271917909486708,0.46620145887214276,0.4876518968720107,0.9199999999999768,1
0.4919025081732401,0.33346018485818474,0.13159587455015626,0.4265409874378767,0.48843915692388773,0.9199999999999768,1
0.49205451753820767,0.3336742578017574,0.13267465456961036,0.45582827754373445,0.48843915692388773,0.9199999999999839,1
0.49189123989094613,0.333457452787216,0.13161710844577207,0.4846222649275308,0.4900142925554377,0.919999999999991,1
0.4920686364467286,0.3336769606407753,0.13266484081331043,0.47006766967305585,0.49001429255543727,0.9200000000000017,1
0.4918732789862572,0.3334548164341655,0.13162010322854734,0.4397581587825668,0.48607676124046095,0.9199999999999982,1
0.49209198602654014,0.33367947438144313,0.13266657728334053,0.43670041154977646,0.4868640212923373,0.9200000000000017,1
0.49184196357340976,0.33345251135308906,0.13161462710688304,0.4789879417062242,0.48686402129233775,0.9199999999999768,1
0.49213595673879373,0.3336814357078911,0.13267538081826757,0.4726724332577108,0.4876518968720107,0.9199999999999875,1
0.4917756714788014,0.33345111262543514,0.13160252980669268,0.4396138549247044,0.4852895011885846,0.9199999999999839,1
0.4922487440021881,0.33368190256388924,0.1326910586902198,0.4506900434631557,0.48686402129233763,0.9199999999999875,1
0.4915300502364337,0.3334522350591629,0.13158262823537165,0.48488659700183084,0.4868640212923372,0.9199999999999875,1
0.49359773166028176,0.3336779328960653,0.13364873082411222,0.4641595359589539,0.48450162560891075,0.9199999999999875,1
0.4944631526013644,0.33346171537432623,0.13155003870327425,0.43290793810771844,0.4774144385586312,0.9199999999999839,1
0.49265559219539523,0.3336563742428539,0.13275974853430234,0.4592436616138687,0.48292648997736065,0.919999999999991,1
0.49269471815349536,0.33351637507106874,0.13148887580147706,0.4916298675514992,0.48450162560891075,0.9199999999999875,1
0.4940614613988453,0.33344580445251004,0.1328545770791375,0.45831467114468977,0.4797768342420572,0.919999999999991,1
0.49433773165566586,0.33236955676759006,0.13131143515238464,0.4312876350273743,0.48450162560891075,0.919999999999991,1
0.4984491629053537,0.33400652030269623,0.1334141852367658,0.46841765954768166,0.4829264899773609,0.9199999999999982,1
0.4932811251364433,0.3313947527241999,0.13315888136827814,0.47354520084834084,0.48371436555703407,0.9199999999999875,1
0.49732231024272927,0.3333415251702359,0.13219459681440582,0.44359794659596535,0.48371436555703407,0.9199999999999839,1
0.4996768571890191,0.33047644377314445,0.13019102635017865,0.45092053262197085,0.48135196987360784,0.9199999999999768,1
0.4979189407824923,0.3302457035250622,0.13082013143458127,0.47327210991618474,0.48371436555703407,0.9199999999999875,1
0.5011011262704081,0.32889900549079976,0.1297173814914102,0.44273445482580887,0.4813519698736075,0.9199999999999839,1
0.5050790004484157,0.3304656351777856,0.12969830948462563,0.46371933281969147,0.48371436555703407,0.9199999999999875,1
0.5060892541846964,0.3289235006686635,0.1271123320748046,0.5089337481287639,0.48292648997736054,0.9199999999999839,1
0.5029396134022763,0.32936608699590914,0.12929007928972802,0.45278105382220507,0.48292648997736065,0.919999999999991,1
0.5056173450701331,0.32757432484425414,0.1281242257685981,0.4265047906630354,0.4797768342420573,0.9199999999999768,1
0.5051731270408744,0.3287409774068165,0.1320179411915936,0.4744604390363002,0.4797768342420571,0.9199999999999768,1
0.49407469243043667,0.3243660170152538,0.13567916658564821,0.4936001524129272,0.48056409429393454,0.9199999999999768,1
