wrist_ACC_1,wrist_ACC_2,wrist_ACC_3,wrist_BVP_1,wrist_EDA_1,wrist_TEMP_1,label
0.7148183979905051,0.34431421798942113,0.28237054923162497,0.5892324230970035,0.02519951935253309,0.4137931034482669,1
0.7132919967633229,0.35524050210980246,0.2898260276834194,0.6022305637459595,0.023399201922589985,0.4137931034482669,1
0.772878030125719,0.3438855481940005,0.500554797151132,0.5550793028117279,0.02519951935253273,0.4137931034482776,1
0.7063272492843242,0.46549879701360997,0.6168185526024405,0.6906878451169491,0.018899463633447328,0.4137931034482669,1
0.8276423893376557,0.3808645445181796,0.4187707626599818,0.4551802342302743,0.01799965668038056,0.4137931034482669,1
0.7300312684860065,0.28404245192720223,0.5621160387416757,0.6462533840892418,0.016199339250437567,0.4137931034482669,1
0.5356598218227139,0.4361933357102308,0.8049580623555194,0.6629247569218516,0.02249939496952305,0.41379310344827047,1
0.5614637443228776,0.3540353247285552,0.883989704202078,0.46479718066367953,0.02429971239946646,0.41379310344827047,1
0.7070563508353823,0.43500102998989254,0.6232605500001939,0.6280442668493137,0.024299712399466378,0.41379310344827047,1
0.8176693157841006,0.4022756871691074,0.48850511718676415,0.7420576754890368,0.023399201922589707,0.41379310344827047,1
0.7582844858363127,0.42631609851152,0.4452231365709519,0.5526704439707549,0.01799965668038056,0.4137931034482847,1
0.7836218206462986,0.4341546918552458,0.40278743530128125,0.4408491267462057,0.014399725344304476,0.4137931034482776,1
0.774450007973073,0.4277822819182488,0.5019993628995312,0.5744349905818418,0.009899987055161763,0.4137931034482776,1
0.7749975539686613,0.4686192526542907,0.4564321151839332,0.5656371692932922,0.011699600961294576,0.4137931034482776,1
0.793157683627868,0.4520527371479996,0.49863911579904163,0.6935470403932253,0.011699600961294826,0.4137931034482776,1
0.753899559979164,0.5207560529207306,0.4811409912837626,0.6070169087159373,0.013499918391238097,0.4137931034482776,1
0.7482243055058312,0.5305036309845238,0.4361489999941748,0.5732638977973639,0.012599407914361288,0.4137931034482776,1
0.8098521101534217,0.433182897741433,0.4743118879417012,0.5778973920344898,0.013499918391237847,0.4137931034482776,1
0.7781057084608081,0.4479149584176074,0.4560733616423373,0.6166866873955574,0.011699600961294687,0.4137931034482847,1
0.7689232410238771,0.49342606175083886,0.439360299192101,0.5685579596156591,0.014399725344304615,0.4137931034482776,1
0.7701373294830287,0.48566809040173303,0.4956970682627089,0.6013530246034693,0.013499918391237736,0.4137931034482776,1
0.7783624564551026,0.4888291478719115,0.5320169772707402,0.598435755629771,0.011699600961294965,0.4137931034482776,1
0.7527633397766851,0.49097837046046106,0.5424906211145495,0.594389589601016,0.012599407914361399,0.4310344827586228,1
0.7723106630380574,0.4235720739901588,0.5631139661457083,0.6152727528887105,0.013499918391238097,0.4310344827586228,1
0.7735659561449009,0.43806021244772814,0.5027100881807256,0.6493988377309486,0.014399725344304365,0.4310344827586228,1
0.7746202260942165,0.4875901437668794,0.45035522424558333,0.7125836308380751,0.008999476578285454,0.4310344827586228,1
0.7738592340490538,0.44139322025517086,0.5178453247239775,0.5007555063355409,0.00899947657828526,0.41379310344827047,1
0.76643657651131,0.43391922821313283,0.5161831544738422,0.5016130739843845,0.008999476578284954,0.4137931034482598,1
0.76206042312782,0.43172791466948174,0.5289079717735244,0.5587127586728136,0.008099669625218547,0.4137931034482598,1
0.7753566739042332,0.3845869173459578,0.5320085744253019,0.576841843699121,0.010799794008228392,0.4137931034482598,1
0.7553330156496059,0.35588961599177626,0.5754931485656932,0.5914919533063311,0.010799794008228336,0.4482758620689573,1
0.7650637576309485,0.3552191488375044,0.578949867528708,0.6356603624266515,0.012599407914361233,0.4482758620689573,1
0.7298826769235183,0.33264427468444335,0.6127876226101366,0.5607136477201264,0.011699600961294881,0.4482758620689573,1
0.747317617568085,0.3380743727355956,0.5800834183467383,0.5168964762703177,0.01169960096129502,0.4482758620689573,1
0.7473571469231888,0.340128347524266,0.5705396320333107,0.6150773581320249,0.010799794008228225,0.4310344827586263,1
0.7556167945191823,0.33978666963403675,0.570527094965902,0.6760748861813068,0.013499918391237986,0.43103448275861567,1
0.738682910968582,0.3312215723442735,0.5933077693345805,0.5773378445037903,0.01169960096129491,0.43103448275861567,1
0.7474788469966509,0.3320776999775197,0.5839499023695178,0.5876142386769025,0.011699600961295131,0.43103448275861567,1
0.7379116874629457,0.32937797018985226,0.5971991442672651,0.5431616324124156,0.011699600961294798,0.41379310344827047,1
0.7457258404588016,0.3310100857985686,0.5896459979642762,0.6364306691315809,0.012599407914361482,0.41379310344827047,1
0.7395776490312451,0.32968358533109904,0.5961613226702377,0.6532635662368187,0.009899987055161513,0.41379310344827047,1
0.745358759309716,0.3308351940677905,0.5905624631966052,0.5773720074520025,0.009899987055161763,0.41379310344827047,1
0.7399316628630073,0.3298054200941124,0.596328223424999,0.5650335382022533,0.01079979400822828,0.41379310344829534,1
0.7450247921060562,0.33074119452676765,0.5924996801407983,0.5592843456414749,0.009899987055161902,0.4137931034482847,1
0.7402923252829374,0.32988362086494305,0.5979247097305124,0.593580508134297,0.010799794008228086,0.4137931034482847,1
0.7441828060519722,0.33067013934606737,0.5909165090433292,0.5908610326513641,0.008999476578285232,0.4137931034482847,1
0.7396369919539207,0.32996026058883765,0.597369299005617,0.5848233975039725,0.009899987055161874,0.4310344827586228,1
0.7437490037474854,0.33053611166751784,0.5929456356700318,0.594378912564178,0.009899987055161569,0.4310344827586228,1
0.7378963286367228,0.3288517103930545,0.6017652722740635,0.5992665225173265,0.009899987055161763,0.43103448275861567,1
0.7443893309284146,0.3308025267527328,0.598135142816989,0.5815737147177307,0.009899987055161819,0.4310344827586228,1
0.7397862738072747,0.3298227983766022,0.5996232072067567,0.5951327238718384,0.008999476578285176,0.4310344827586263,1
0.7440605493170294,0.33079452143877813,0.5951204187554401,0.5955384908774349,0.008999476578285204,0.43103448275861567,1
0.7389738108731458,0.32966799539413527,0.60079382967047,0.5870094073031121,0.008999476578285315,0.43103448275861567,1
0.7425207442142654,0.33171073934237555,0.6003345293766024,0.5881843116128919,0.009899987055161957,0.43103448275861567,1
0.739355639539149,0.33153504320580296,0.6039171427109943,0.5992915051586731,0.008999476578285204,0.4310344827586121,1
0.7418727059335719,0.3302049221942964,0.5984594202538587,0.5844174067276979,0.008999476578285343,0.43103448275861567,1
0.7405020080025001,0.33145111291592594,0.6034212490643736,0.5897298139538869,0.007199862672152002,0.43103448275861567,1
0.7426209382824506,0.3301181386033405,0.5986748305569003,0.596594302525888,0.008999476578285093,0.43103448275861567,1
0.7394920193952284,0.33040526928336267,0.6032875548989688,0.5881687253078328,0.007199862672152224,0.43103448275863343,1
0.7425986792769459,0.3301950022112966,0.5987694024803117,0.5856865929309769,0.008999476578285065,0.4310344827586228,1
0.7398832093114718,0.3304072197126032,0.6032178917951123,0.5991713409078768,0.00449973828914238,0.4310344827586228,1
0.7422937919349946,0.33014187242435394,0.5988174290521592,0.5874886016616409,0.007199862672152002,0.4310344827586228,1
0.7404779572416658,0.33053438338151775,0.6032056120117644,0.5863900646095334,0.008099669625218686,0.4310344827586228,1
0.7411755983367383,0.32980689273124686,0.5984918635367485,0.5966524272536116,0.007199862672152196,0.4310344827586228,1
0.740952038671964,0.3327452368979352,0.6009896709552427,0.5916383713144735,0.008099669625218797,0.4310344827586228,1
0.7462634491784025,0.34058744389676904,0.5890291185089702,0.583985693023007,0.008099669625219075,0.4310344827586228,1
0.7487861824358679,0.34679578803728434,0.5862308852084485,0.5951872714685922,0.007199862672152085,0.41379310344827047,1
0.7512014131795323,0.35313423315899783,0.5715707707839484,0.5910041198224479,0.00809966962521888,0.4137931034482598,1
0.7540754642023968,0.35944810774385505,0.5690635780555953,0.580048417248934,0.007199862672152224,0.4137931034482598,1
0.7599814741502549,0.3659839406479968,0.558071326354532,0.5984971638396642,0.0063000557190858175,0.4137931034482598,1
0.7575714758756845,0.36684267471161525,0.5550629697782008,0.5984159740633397,0.007199862672152141,0.43103448275861567,1
0.7593395228995932,0.3636513230398735,0.5498885256783349,0.5902046136988299,0.008099669625218742,0.4310344827586263,1
0.7589997198519458,0.36620483780941476,0.55289776470853,0.595908659819855,0.007199862672152169,0.4310344827586263,1
0.7601301316472326,0.3667732966710576,0.5598439238606663,0.5877071193157742,0.007199862672152085,0.4310344827586228,1
0.7490054942239497,0.35129822734689115,0.5676351212452448,0.5857205009591598,0.007199862672152224,0.44827586206895376,1
0.7535395583248902,0.34614633377641146,0.562507306119528,0.5918600844444094,0.006300055719085623,0.4482758620689431,1
0.7532757577336593,0.34797196683924064,0.5655900417365941,0.5914733825441105,0.007199862672152224,0.4482758620689431,1
0.7511714328630312,0.3470583522075727,0.5654896491660582,0.5851341190087204,0.006300055719085623,0.4482758620689431,1
0.7499066149799565,0.3455272093871157,0.569158900696038,0.5971950940711693,0.0053995452422092305,0.4310344827586121,1
0.7510185249562682,0.34284442440607615,0.5719114721633103,0.591312769731718,0.006300055719085734,0.4310344827586121,1
0.7462465509349339,0.3385292811320948,0.5820261527270566,0.588580919550236,0.0035999313360763063,0.4310344827586121,1
0.7459853042756237,0.3348749096105557,0.5821884618520953,0.5941995769870406,0.006300055719085651,0.4310344827586121,1
0.7427848273702249,0.331587979402448,0.5861238134628827,0.5937400268556471,0.0053995452422092305,0.4310344827586228,1
0.7459325303060977,0.3345060066092676,0.5849148797721645,0.5846689085701612,0.007199862672152474,0.4310344827586121,1
0.743060897699082,0.3360697318591711,0.5849298231392603,0.5937195180520662,0.0063000557190857065,0.4310344827586121,1
0.7452960592976491,0.3315162148974849,0.5798285986516677,0.5920243687687123,0.006300055719085901,0.4310344827586121,1
0.7446286621493786,0.3323449916073452,0.5824721203397929,0.58681042183676,0.0071998626721518355,0.4137931034482598,1
0.7445726240510291,0.33438876246171834,0.5793046646435502,0.5938834578490197,0.0063000557190854845,0.41379310344825626,1
0.7473269125385809,0.3338712985432698,0.5824437670483341,0.5936741544307196,0.005399545242208981,0.41379310344825626,1
0.7474097428224189,0.33683229314641794,0.5786142976282322,0.5849329206425208,0.005399545242208981,0.41379310344825626,1
0.7437989562565905,0.33462526892029104,0.5821465661146699,0.5942367999780434,0.0053995452422091195,0.4310344827586121,1
0.7435601529219995,0.3331842554406692,0.5800329384291671,0.5941664994836253,0.005399545242209147,0.43103448275860146,1
0.7429716564134229,0.33063202465375735,0.5837647385410775,0.5872405587593419,0.0035999313360759733,0.4310344827585979,1
0.743881910209376,0.3306179762312915,0.5795312331000914,0.5907837267143344,0.005399545242209147,0.43103448275860146,1
0.7455330818194449,0.33359600330965494,0.5821935828125688,0.5954410480195452,0.004499738289142519,0.4310344827586121,1
0.7493050298156148,0.33907219642400577,0.5790188553592718,0.5872023748765186,0.007199862672152224,0.4310344827586121,1
0.7467194757613902,0.3363215082053269,0.582661412210411,0.5899124459691386,0.006300055719085651,0.4310344827586121,1
0.7458489473596932,0.3372913274370925,0.578594703981111,0.5944065463637863,0.0053995452422091195,0.4310344827586121,1
0.747255078432259,0.33908486272273747,0.5819144677284843,0.5902673861119707,0.005399545242209175,0.4310344827586263,1
0.7516104439894957,0.3379593070731347,0.5790493686168976,0.5878330012768431,0.005399545242209369,0.43103448275861567,1
0.7497622420342971,0.33874085259762854,0.5799597492232162,0.5944888220506889,0.004499738289142574,0.43103448275861567,1
0.7513162851677978,0.3390810274131327,0.5711942409927723,0.5889267452943088,0.005399545242209314,0.43103448275861567,1
0.7498969118460563,0.3388823911766214,0.5754996913386784,0.5882216854347223,0.004499738289142158,0.4137931034482598,1
0.751246154366968,0.3389830149509262,0.5715075564248113,0.5958934703678268,0.006300055719085956,0.4137931034482598,1
0.7499186499679444,0.33899255171908677,0.5753560465640153,0.5911550340557298,0.005399545242208814,0.4137931034482598,1
0.7513059546076273,0.33884139146936487,0.5715986820928773,0.58576119304641,0.005399545242209036,0.4137931034482598,1
0.749322662821575,0.33900842868264175,0.5752669895936819,0.5934692058661526,0.004499738289142713,0.4137931034482847,1
0.7505232373164274,0.3349439507070496,0.572673674698299,0.5890104248710691,0.005399545242208925,0.4137931034482776,1
0.7480478704290985,0.3345897539917305,0.5781942409711519,0.5884934205718703,0.005399545242208897,0.4137931034482776,1
0.7486050776282108,0.3356042249597113,0.5728974040688234,0.592686664771208,0.004499738289142519,0.4137931034482776,1
0.7497776579630053,0.33609208899249055,0.5758512953066611,0.5916276179902339,0.004499738289142519,0.4137931034482669,1
0.7507809211348218,0.33970187263132323,0.5732735613770692,0.5844155284170764,1.1102230246251565e-16,0.4137931034482669,1
0.7455543171744649,0.3311625768274188,0.5821723835189114,0.5952714385753324,0.003599931336076112,0.4137931034482669,1
0.7487744337606359,0.3334194639925354,0.5783704487103767,0.59456741904731,0.004499738289142796,0.4137931034482669,1
0.7502331593711007,0.33925125109583026,0.5817654439702744,0.5917786435543351,0.003599931336076223,0.4137931034482776,1
0.7510994419507497,0.3376331528910982,0.5777212697639988,0.59089669252043,0.005399545242209508,0.4137931034482669,1
0.7487706348579336,0.3327347398673654,0.5818168570884985,0.5926759397646985,0.00449973828914238,0.4137931034482669,1
0.7466118233305445,0.3333638090497316,0.5782592821172811,0.5868992330695947,0.004499738289142574,0.4137931034482669,1
0.7452200553089268,0.3344832432841305,0.582522870375655,0.5938046628265031,0.0053995452422091195,0.43103448275860146,1
0.7485435567747507,0.3392354886964325,0.5781044124021386,0.5888147417368232,0.004499738289142574,0.43103448275860856,1
0.7505129135481025,0.3387179226521051,0.582646502200452,0.5891863618693098,0.004499738289142435,0.43103448275860856,1
0.7503664565358443,0.33906021798102426,0.5779961284192305,0.593368910124526,0.004499738289142741,0.43103448275860856,1
0.750862377375804,0.33940534312996545,0.5824266675953939,0.5928646571123326,0.00449973828914263,0.4310344827586263,1
0.7502638191693856,0.34351100180390387,0.5763710956736603,0.5867855539525961,0.004499738289142519,0.43103448275861567,1
0.7497543955310311,0.3376899967442557,0.5809066922504498,0.598242353221468,0.0017996139061329242,0.43103448275861567,1
0.7489723580972512,0.3406867916073336,0.5783339403425839,0.5860896510741184,0.00449973828914263,0.43103448275861567,1
0.751486864608462,0.3402117970886417,0.5825491937312669,0.5917123097989554,0.0035999313360759455,0.41379310344824916,1
0.7474577434319689,0.33836979146704416,0.5781382878770154,0.5916077116187213,0.004499738289142519,0.41379310344824916,1
0.7486543782878701,0.34040207734159245,0.5836602696527894,0.590602387353461,0.004499738289142519,0.41379310344824916,1
0.7428217908867772,0.3318208987496907,0.5817876203904773,0.5838574297477924,0.004499738289142685,0.41379310344824916,1
0.7804523435539672,0.32858415595470936,0.5145300460573,0.6023369841423359,0.004499738289142519,0.4310344827586121,1
0.7779714216059705,0.4498141501492356,0.41758087933621485,0.5832269674518543,0.003599931336076112,0.43103448275860146,1
0.7485105265597017,0.39226339568523977,0.4815195276375485,0.591782006342574,0.004499738289142408,0.43103448275860146,1
0.7754494343371516,0.44189281148345483,0.4913504726237915,0.5770327871053663,0.004499738289142713,0.43103448275860146,1
0.7682981456707917,0.463479091601614,0.467792656809526,0.6353649030425517,0.003599931336076112,0.4482758620689502,1
0.7932236014781449,0.4527761934825682,0.44073253686581954,0.6003106436628664,0.00449973828914238,0.4482758620689573,1
0.7652975703428988,0.4157028463934422,0.46372339775125393,0.5741488359646975,0.0035999313360760565,0.4482758620689573,1
0.7647465602683905,0.4122194209004618,0.45511435265755484,0.5049785833700573,0.004499738289142574,0.4482758620689573,1
0.7871661222035933,0.4470235540348644,0.45635157056163556,0.6739725298966861,0.0035999313360759455,0.4137931034482918,1
0.7703542559655796,0.40854167248848094,0.45352531472206525,0.6715366033851397,0.00449973828914263,0.41379310344828113,1
0.7663660371638731,0.4029975206164979,0.47982329620708875,0.5055199115981972,0.00359993133607589,0.41379310344828113,1
0.7681749100804034,0.4266655033911708,0.4385999971267709,0.5327060054909712,0.0035999313360760565,0.41379310344828113,1
0.765162694247868,0.4432630696376274,0.39079355788710046,0.5702951700272327,0.001799613906132952,0.4310344827586121,1
0.7720286937101044,0.40740783538475456,0.4343058062343187,0.6716346722577258,0.0017996139061330907,0.4310344827586121,1
0.78336573220197,0.40483003425348923,0.5208158851905271,0.5566086728774283,0.0,0.4310344827586121,1
0.7593469009987607,0.39426025822991884,0.5552064765671039,0.6170556319954205,0.003599931336076112,0.4310344827586121,1
0.7726135556627067,0.4405392275220259,0.4900429529396617,0.5840498239290632,0.0017996139061327021,0.4137931034482847,1
0.7709911756725862,0.4576388630679216,0.4353488309180608,0.5748578227198203,0.0027001243830095945,0.4137931034482776,1
0.774355881359682,0.45777520426937607,0.469415266271375,0.6217654881980725,0.0017996139061328686,0.4137931034482776,1
0.7658672669466031,0.4361094759823492,0.5201070661929698,0.6224427741606612,0.0017996139061328686,0.41379310344827047,1
0.7824366567799725,0.43885859166676316,0.5124245980832574,0.5350296463840327,0.0035999313360760565,0.41379310344828113,1
0.7675153743877969,0.41612707107227254,0.5116623139916178,0.6047338697001636,0.00270012438300965,0.4137931034482847,1
0.7728132106936205,0.44116448212241915,0.45143657016259997,0.5189735053828517,0.005399545242209175,0.4137931034482847,1
0.7797897987098039,0.4212853137984139,0.4506471678529419,0.731242748018772,0.0035999313360759178,0.4137931034482847,1
0.776543823790335,0.42686305144173525,0.4523491909019539,0.5333977247661541,0.0035999313360763063,0.4137931034482776,1
0.8142472745455052,0.41881836508705084,0.5198034080035308,0.5345217263138272,0.0035999313360761953,0.4137931034482669,1
0.7227711258298197,0.5141311107377221,0.5583815589343724,0.5857471443148264,0.00359993133607564,0.4137931034482669,1
0.7861639988126194,0.43826465419477906,0.5909651138041117,0.6235957979893156,0.0044997382891421855,0.4137931034482669,1
0.6236203401096205,0.4229870993163091,0.8011140037372817,0.5845976339620892,0.006300055719085623,0.43103448275860856,1
0.45637451059678036,0.39015890332780645,0.8746089435235983,0.6152872615486762,0.015299532297370938,0.43103448275860856,1
0.6366122940593619,0.37347602881038383,0.8038173198778233,0.6036277916631814,0.012599407914361427,0.43103448275860856,1
0.6253948983587796,0.3956872606608203,0.7752899928424222,0.6308127832169785,0.010799794008228447,0.43103448275860856,1
0.6804907869949561,0.38370492909715076,0.763741936399771,0.5198386798335451,0.00899947657828537,0.4310344827586228,1
0.5931179032920988,0.3786031300246865,0.7867171282637422,0.5856386950559137,0.013499918391238042,0.4310344827586121,1
0.619967381235506,0.37090363292483003,0.7991070868698904,0.6024000576777667,0.011699600961294687,0.4310344827586121,1
0.6119455166983696,0.38596919087897935,0.7822628185141847,0.5913573227511754,0.011699600961295076,0.4310344827586121,1
0.6120671557526309,0.3689889580718664,0.8090804890070806,0.6744688594782648,0.010799794008228336,0.3965517241379395,1
0.5801127271388833,0.37740502954205923,0.7900947356007146,0.6313110332262596,0.012599407914361288,0.3965517241379395,1
0.7118641465320059,0.36925795565495323,0.7097851934064593,0.41004635282574814,0.009899987055161763,0.3965517241379395,1
0.7422476472867907,0.36107106546706214,0.6088613718885227,0.6695213229817045,0.008099669625218658,0.3965517241379395,1
0.8007487102686652,0.4044561511033501,0.5364383820686568,0.6331647073743998,0.0063000557190858175,0.39655172413794304,1
0.6990969958147456,0.5576495438787542,0.6652968068139085,0.5321899287823476,0.005399545242208703,0.39655172413793593,1
0.49113927770645005,0.33111583833676506,0.8416847995587353,0.5018357716995477,0.03959924469683715,0.39655172413793593,1
0.4962381289791657,0.3603507504940462,0.8875483180672252,0.6017214635614099,0.02249939496952333,0.39655172413793593,1
0.44132665253622344,0.3461568444462957,0.865948898915891,0.6688015238078079,0.02069978106339021,0.39655172413791817,1
0.43290822420856784,0.3033978439395014,0.8886114956067321,0.6419939634079272,0.022499394969523412,0.39655172413791817,1
0.44151317855107425,0.2898206245860704,0.8541682073088371,0.5873668998051735,0.023399201922589652,0.39655172413791817,1
0.43012915002993124,0.24670137840138784,0.8926044008305833,0.49491925544802895,0.023399201922589874,0.39655172413791817,1
0.6520990907105257,0.3899635067248838,0.7415491573827837,0.5534967245153468,0.026099326305599385,0.3965517241379395,1
0.741055395211174,0.26771536378860483,0.5885040087723439,0.6550565273122949,0.021599588016456783,0.39655172413792883,1
0.6391782294749386,0.20055106893000052,0.7005141638331892,0.6029972292006817,0.022499394969523245,0.39655172413792883,1
0.671750983357787,0.24812512243032775,0.6866537526855638,0.7122052103622094,0.019799270586513734,0.39655172413792883,1
0.6656143429724668,0.24526766735808575,0.6800174557694502,0.6223138467227076,0.017999656680380866,0.4137931034482918,1
0.6979352365117584,0.26466391613790513,0.6607790552599115,0.5660663446076264,0.017099849727314098,0.4137931034482776,1
0.6944156838003824,0.25628040673903163,0.6484386698149802,0.534356504384144,0.01619933925043765,0.4137931034482776,1
0.6861452124704326,0.22566415701432804,0.6488743969000607,0.3794055258872411,0.017099849727314043,0.4137931034482776,1
0.6098019856223925,0.16397284199832507,0.6878531069181176,0.6354504458297302,0.016199339250437567,0.39655172413792883,1
0.5672416230369883,0.13626300232799277,0.7101972295629372,0.5930829665112392,0.01619933925043765,0.39655172413791817,1
0.5198380246943536,0.11931325576269208,0.7298088170643681,0.6029049270150224,0.01349991839123782,0.3965517241379253,1
0.5440264872455165,0.13069623430333316,0.7316213928485995,0.5773428384840381,0.013499918391237903,0.39655172413791817,1
0.513280798265918,0.12378981395401628,0.7425436482498138,0.6681127450374373,0.012599407914361233,0.39655172413791817,1
0.5303093597171906,0.13054591094014073,0.7372155969886157,0.6111263917477072,0.012599407914361233,0.39655172413791817,1
0.5423476997416375,0.14983432613113068,0.729839210047734,0.5735216997534256,0.013499918391237847,0.39655172413791817,1
0.6470005691026502,0.20083928693382003,0.6805387001436827,0.5765783056148699,0.013499918391237986,0.39655172413791817,1
0.6918198782580387,0.2622700127764743,0.6557473970753518,0.5900861173907065,0.013499918391238042,0.39655172413791817,1
0.7123948041703907,0.2664934986323715,0.6361008051689834,0.6098331191047779,0.013499918391238042,0.39655172413791817,1
0.6966716186922632,0.2758290621539474,0.6386166906281932,0.5823844657782965,0.014399725344304393,0.39655172413791817,1
0.7202770777303376,0.26971440947591074,0.63647345954017,0.607702692482837,0.013499918391238208,0.39655172413791817,1
0.6860705191563794,0.28250832853655783,0.6466707429504949,0.5992301734321905,0.012599407914361371,0.3965517241379253,1
0.7362126768226269,0.2308151310688955,0.6224805743299893,0.602720535713943,0.011699600961294881,0.3965517241379253,1
0.9002349448218265,0.3325041345162796,0.42645354599687324,0.6072837102282674,0.013499918391237847,0.3965517241379253,1
0.6033509575268916,0.6952881485825456,0.4271304194930804,0.6172134085847027,0.022499394969523134,0.3965517241379253,1
0.5307459511384813,0.82492366249093,0.32669502492574265,0.6057319021605493,0.015299532297370994,0.4137931034482776,1
0.5200664814863558,0.8798422091133458,0.2680256074873669,0.7740063173815235,0.015299532297370882,0.4137931034482669,1
0.5125119262515322,0.8588131960269875,0.28046422424984685,0.6214119823620492,0.0206997810633901,0.4137931034482669,1
0.5035968565890591,0.8607784528977718,0.2785601823428381,0.3513416522496983,0.0206997810633901,0.4137931034482669,1
0.5320709757462552,0.8441275202406742,0.30708941604059764,0.5901512512704244,0.01799965668038056,0.39655172413791817,1
0.6375950378484676,0.8009204923601321,0.32083301521528074,0.5750915093063164,0.023399201922589652,0.39655172413791817,1
0.599586460643259,0.6432031166787203,0.5596786059137951,0.5775910443556006,0.012599407914361621,0.39655172413791817,1
0.5452933095212229,0.35498182933716016,0.94305406884348,0.5877074067808382,0.011699600961294992,0.39655172413791817,1
0.4566739750209571,0.2923068726610797,0.8601626772747564,0.603207700586173,0.020699781063389988,0.4137931034482598,1
0.4318127044873043,0.25759649422883374,0.877238270404255,0.602723000272747,0.025199519352533034,0.4137931034482527,1
0.43609980258101066,0.26972455373744575,0.8473774459870338,0.6493241435959706,0.028799450688608924,0.4137931034482527,1
0.46872049602688093,0.26732914265710717,0.8589608088992069,0.6466870481423376,0.02879945068860884,0.4137931034482527,1
0.4853410219987567,0.2664353170586215,0.8359064046475908,0.6019227284317337,0.02969925764167536,0.41379310344827047,1
0.4833956383281681,0.2643910604817407,0.841976548784201,0.5612931484418971,0.02879945068860923,0.41379310344827047,1
0.4936425910872528,0.26422130767519414,0.8315367382130154,0.4543018330428603,0.028799450688608924,0.41379310344827047,1
0.49795730209526323,0.26757941725299783,0.8365152558173619,0.49291782019106845,0.027899643735542462,0.41379310344827047,1
0.5017491451172417,0.26715089555855004,0.82616514894098,0.5969843563683366,0.029699257641675775,0.39655172413792883,1
0.5021063020020808,0.26694099978495484,0.8358493143599495,0.6068125049134707,0.02879945068860898,0.3965517241379253,1
0.5003304062516438,0.2644967122906112,0.8277179932051089,0.5979498091030989,0.027899643735542434,0.3965517241379253,1
0.4967603806975545,0.2609575161047194,0.8332035998335122,0.5969701416014475,0.027899643735542184,0.3965517241379253,1
0.4978911445450972,0.2598816052895873,0.8268912474297057,0.6168005184859119,0.02879945068860909,0.4137931034482669,1
0.5005916561180352,0.26150747066132474,0.8349766417869848,0.5973115672768028,0.027899643735542656,0.4137931034482669,1
0.5017880509442052,0.2631224967978049,0.8255593784746151,0.5848246611858261,0.028799450688608924,0.4137931034482669,1
0.5017848350510483,0.2684296426067475,0.8327087247419125,0.6126952994767276,0.027899643735542518,0.4137931034482669,1
0.5048355016603522,0.2697164396225725,0.8285533251896045,0.6054285704745554,0.02699913325866593,0.3965517241379395,1
0.5097607316236638,0.27023276167339755,0.8322636839920708,0.5872276095124991,0.0287994506886092,0.39655172413792883,1
0.5093794431034488,0.27123814021238407,0.8260070727847963,0.6067226354287403,0.02699913325866593,0.39655172413792883,1
0.5116814937842558,0.26989842076269466,0.8304648310520295,0.59603694996541,0.02789964373554238,0.39655172413792883,1
0.5106980584040474,0.2690089874054698,0.8243297806520244,0.5804108014747141,0.02879945068860909,0.4137931034482776,1
0.5156596576177407,0.26902555998886135,0.8307500266060838,0.594722814443098,0.027899643735542656,0.4137931034482776,1
0.5134325185831442,0.26958140170267114,0.8239229909783288,0.5942074783099741,0.026999133258666125,0.4137931034482776,1
0.5135501469624818,0.2699179107957207,0.8276770819555175,0.5782495494653882,0.026999133258666125,0.4137931034482776,1
0.5118150981175924,0.2691993461662716,0.8251515816251291,0.6000478354327511,0.026999133258665875,0.4137931034482776,1
0.5151613906580963,0.26894836703093383,0.8293155658098115,0.6045889772022206,0.027899643735542323,0.4137931034482598,1
0.5130924244695194,0.2673045020839344,0.8248850267173125,0.5854819636468168,0.027899643735542323,0.4137931034482669,1
0.5154894725215322,0.2657357142631477,0.8286907524128881,0.5970555957258314,0.026999133258665958,0.4137931034482669,1
0.5120295279731519,0.2624900099472579,0.823636667360271,0.6024447727486638,0.027899643735542462,0.4137931034482669,1
0.5148418257302216,0.26068721337623774,0.82530419457551,0.5739105662889015,0.028799450688609035,0.4137931034482669,1
0.5095357449068031,0.26190836273644236,0.8233563301987921,0.5920402871225098,0.024299712399466378,0.4137931034482669,1
0.5150424952755278,0.2675447488573893,0.8275122349909092,0.596022283370954,0.02609932630559958,0.4137931034482669,1
0.5116859149451825,0.26902618306164894,0.8257945269446298,0.5835333009709173,0.02789964373554238,0.4137931034482847,1
0.5183222114836155,0.2715705554698875,0.8299946487570704,0.597232647692456,0.02609932630559955,0.4137931034482776,1
0.50896259362159,0.2725680572798493,0.8261610364695604,0.5976333079197311,0.027899643735542545,0.4137931034482776,1
0.5236252020308495,0.27898769139431123,0.8308964427677805,0.5862917050733876,0.026999133258666125,0.4137931034482776,1
0.5045409731545463,0.2731788265822912,0.8250794137727353,0.5956633815845134,0.02699913325866607,0.41379310344827047,1
0.532121865986613,0.27603830080813696,0.8324384205027184,0.5973470218884003,0.027899643735542656,0.41379310344827047,1
0.48749174134242046,0.25874495312065127,0.823746454500111,0.5783627990525071,0.027899643735542323,0.41379310344827047,1
0.6505442361017174,0.29593379989158264,0.8906388699774401,0.5989532365915294,0.02789964373554263,0.41379310344827047,1
0.7150472015598304,0.5966971084857777,0.6430041514641663,0.5811006080918434,0.026999133258665958,0.43103448275864054,1
0.6017056990531351,0.7193534128312671,0.5319571490101425,0.5940675971791557,0.024299712399466378,0.43103448275863343,1
0.6648010610263577,0.8052368666606751,0.5877564323892291,0.6014492530300126,0.016199339250437345,0.43103448275863343,1
0.5933313810136187,0.8513964431836202,0.5592394359066557,0.6785043332705217,0.01889946363344705,0.43103448275863343,1
0.6468735009632772,0.8364706649613592,0.6031406041829446,0.5912450759491029,0.016199339250437622,0.41379310344825626,1
0.5865306608232548,0.7540929495847689,0.5948191561381825,0.40355237476778205,0.015299532297370938,0.41379310344825626,1
0.6484729312867461,0.6089784409140583,0.6723627710865858,0.6288754538627053,0.015299532297370994,0.41379310344825626,1
0.6545430970278427,0.46770250340498715,0.8757290840376033,0.6025076012763015,0.017099849727313987,0.41379310344825626,1
0.4772671180449262,0.31500319057469733,0.880337206927327,0.6249620935892374,0.024299712399466267,0.4310344827586263,1
0.445550632016816,0.28717258034071813,0.8702201693132693,0.5829143286965793,0.030599064594742043,0.43103448275861567,1
0.4200156302822865,0.27899313406896464,0.8580264435776745,0.6614709804273148,0.03329918897775172,0.43103448275861567,1
0.42692354464118815,0.2830740632882652,0.8671020832475119,0.6496369805505546,0.0359993133607617,0.43103448275861567,1
0.46154701839698786,0.2684521598714441,0.8497116428055,0.727831335268743,0.03689912031382783,0.4310344827586121,1
0.5046326912642438,0.2812155199126999,0.8392176077801243,0.5856402117686036,0.03779892726689457,0.43103448275861567,1
0.4943013106673941,0.2815843413371818,0.8392497615688226,0.49406938721451876,0.03509950640769491,0.43103448275861567,1
0.5054119099173016,0.2815103545033275,0.839157039345555,0.4871235785044145,0.0350995064076948,0.43103448275861567,1
0.4998022702709179,0.2815878476792094,0.8372919891458067,0.4495965911987836,0.035099506407694686,0.4310344827586263,1
0.5031249237866411,0.284838028123339,0.8327442775892253,0.39613949726657804,0.033299188977751554,0.43103448275861567,1
0.5134245025199526,0.27682063923249667,0.8294534836742167,0.6409781116328681,0.03419899593081782,0.43103448275861567,1
0.5191724227997319,0.2735506497569309,0.8267452614626337,0.6973051798919838,0.03509950640769477,0.43103448275861567,1
0.5173141893543289,0.27344591050131895,0.8241579176587672,0.620627679016155,0.0350995064076948,0.43103448275860146,1
0.5167541726973358,0.2712073651053487,0.8280195861650557,0.6138106727296824,0.034198995930818404,0.43103448275860146,1
0.5091762889587479,0.2688346104106357,0.8285903395659889,0.5954476397048476,0.03509950640769488,0.43103448275860146,1
0.5118764538082508,0.27453960355060814,0.8278377676791606,0.5817046486191859,0.0350995064076948,0.43103448275860146,1
0.5139783772525952,0.2763075238348077,0.8273658974045541,0.6113520061931198,0.03419899593081807,0.4310344827586263,1
0.5165805150267174,0.28968155765880166,0.8334290420325853,0.6193988382719422,0.03599931336076162,0.43103448275861567,1
0.5194049833634804,0.29274480711324113,0.8333697268058409,0.5925150702872133,0.032399382024685064,0.43103448275861567,1
0.521765830241322,0.2979064055953081,0.8331626683995357,0.5989568890008994,0.03509950640769502,0.43103448275861567,1
0.5206340852005433,0.3041760204084272,0.8340307581231453,0.6152256745251157,0.03419899593081813,0.43103448275861567,1
0.5277852747863103,0.310930497443886,0.8317238752027081,0.592622714726732,0.03419899593081829,0.4310344827586228,1
0.531501774173051,0.31147396562989216,0.8366715779271361,0.584967823246263,0.0341989959308181,0.4310344827586228,1
0.5236989624148363,0.30655083545796,0.8273687236340231,0.6041540747390655,0.034198995930818016,0.4310344827586228,1
0.5271133624277653,0.3044520125037513,0.8306469801309921,0.5993342412546262,0.03419899593081813,0.4482758620689573,1
0.5309352538363773,0.3108411397230106,0.8334073920888788,0.5727765800330031,0.03419899593081821,0.4482758620689502,1
0.5263366043769608,0.30744266066383186,0.8298365969539316,0.5882450877248989,0.0350995064076948,0.4482758620689502,1
0.5250511888178937,0.2949558458804702,0.8283581805981235,0.6120464622914805,0.03419899593081821,0.4482758620689502,1
0.5233712228139645,0.2979302888827457,0.8305867836577296,0.5882186574291319,0.034198995930818404,0.44827586206895376,1
0.5206308524105949,0.293661890342372,0.8307163989953437,0.5867228355050765,0.03419899593081832,0.44827586206895376,1
0.5195242983725151,0.2904881227667149,0.8291848526899899,0.6054969965991689,0.033299188977752,0.44827586206895376,1
0.5231069993556408,0.28848590615074937,0.829383232549361,0.5785813637550873,0.03419899593081829,0.44827586206895376,1
0.5233699960710861,0.294007766979157,0.8300960793669574,0.5906761582085059,0.03419899593081832,0.43103448275863343,1
0.5291058721259732,0.2956078217098521,0.8295315194582205,0.5982954572115928,0.034198995930818654,0.4310344827586228,1
0.5311840177932744,0.29575659499792795,0.8271415488287037,0.5793629548415037,0.03419899593081829,0.4310344827586228,1
0.5339112134398933,0.295523709176715,0.8241299875196568,0.5908383966791597,0.03329918897775194,0.4310344827586228,1
0.5339682356500215,0.2957508155463665,0.8220399435733332,0.6084277982673204,0.034198995930817905,0.4310344827585979,1
0.5349818351788957,0.29446672511701255,0.8231690129115835,0.581072148211292,0.03419899593081813,0.43103448275859435,1
0.53474750186188,0.29571880963513253,0.8226526022866691,0.5969567750700465,0.03509950640769477,0.43103448275859435,1
0.534583767208006,0.29558450831711236,0.8234219879615106,0.5931071822772456,0.0341989959308181,0.43103448275859435,1
0.5366785076171219,0.2956805149230405,0.8231947055713748,0.5807311496023181,0.03239938202468498,0.41379310344827047,1
0.5352851431311283,0.2956292712312425,0.823317922490066,0.5989443520488615,0.035099506407694686,0.4137931034482598,1
0.5364801131941157,0.2945389680215371,0.8230296828238004,0.5880240165730768,0.03329918897775147,0.4137931034482598,1
0.5339575306935764,0.2957214675416495,0.8215383757436306,0.5831090787344726,0.0341989959308181,0.4137931034482598,1
0.5358602860207947,0.2954232493107945,0.8226183850887347,0.6049709603778128,0.035099506407695075,0.4482758620689502,1
0.540661289857343,0.2967862658821573,0.823204134384539,0.5878598129740477,0.033299188977751915,0.4482758620689502,1
0.5420529892915789,0.2991698922604452,0.8223833973653857,0.5788331614261294,0.03329918897775183,0.44827586206893955,1
0.5420412051300072,0.3023400622200556,0.8209139207229043,0.6000964392726368,0.033299188977751665,0.4482758620689502,1
0.5418928649329977,0.3031124406320207,0.8221737311670214,0.5983067667205848,0.0350995064076948,0.44827586206895376,1
0.5421509428104374,0.3030565989405747,0.8220372542187374,0.5766780239897434,0.030599064594742292,0.4482758620689431,1
0.5417614295452886,0.3033563035521981,0.8213750936837155,0.592494695133494,0.03239938202468534,0.4482758620689431,1
0.5423581502275082,0.29879356167772864,0.8204918182669841,0.5995368523434407,0.031499575071618796,0.4482758620689431,1
0.5413257178354831,0.29967084156022905,0.8212389401950642,0.580943614893866,0.03239938202468498,0.46551724137928474,1
0.5448310115466146,0.2997211263088775,0.8181855310377502,0.5821246939003496,0.03509950640769499,0.46551724137928474,1
0.5440517942541395,0.2945804038266816,0.8202494921796302,0.6024530824393178,0.034198995930817905,0.46551724137928474,1
0.5413249645788607,0.2963557394538242,0.8210403308072483,0.5891595806026348,0.03509950640769463,0.46551724137928474,1
0.5423476116643159,0.29502826264953297,0.8208640412751051,0.5800834580419661,0.03419899593081832,0.46551724137929185,1
0.5418869252580049,0.2962713805043389,0.8216481393688949,0.5948188410365101,0.033299188977751554,0.46551724137928474,1
0.5404474421737298,0.29484771995631603,0.8212786558816416,0.6015631127378913,0.03509950640769452,0.46551724137928474,1
0.5412603136259744,0.29752860763252065,0.8214948773580306,0.5838027179018301,0.03059906459474193,0.46551724137928474,1
0.5424549765911271,0.2964121222733212,0.8213718445973677,0.5868311471762456,0.03509950640769463,0.4482758620689573,1
0.5416223029087867,0.2960695852484079,0.8214237102018479,0.5985350120514585,0.0359993133607617,0.4482758620689573,1
0.5423196623610665,0.2981870828321084,0.8214379276436135,0.5908517863754524,0.03239938202468526,0.4482758620689573,1
0.5416982448892145,0.30131015139534084,0.8213464429910897,0.5797854514524924,0.035099506407694825,0.4482758620689573,1
0.5422705583081453,0.3020689825226862,0.8215648065284776,0.5971876396795236,0.03419899593081832,0.4482758620689644,1
0.54173203355726,0.2995575291287216,0.8208898815478235,0.5953102664480022,0.035099506407695075,0.44827586206895376,1
0.5432496335996027,0.300436984726016,0.8208486145415625,0.5826622424018958,0.0350995064076946,0.44827586206895376,1
0.5417485320953109,0.2998287884517633,0.8216090743435608,0.589278332167263,0.033299188977751804,0.44827586206895376,1
0.5422360135632334,0.3001270879896658,0.8212958106483419,0.5993115571738525,0.0341989959308181,0.4482758620689502,1
0.5417544366898767,0.29835887271157696,0.821499111997387,0.5833432961948924,0.033299188977751804,0.44827586206895376,1
0.5422347123443024,0.30173934970378646,0.8213462504191801,0.5863689389695459,0.03419899593081832,0.44827586206895376,1
0.5417508277401033,0.298134077731886,0.8214741261458076,0.5990687806343451,0.03419899593081829,0.44827586206895376,1
0.5422444911813449,0.29865976336451056,0.8213537018502473,0.5907565019342634,0.033299188977751804,0.4655172413793167,1
0.541731474919196,0.2997188478282887,0.8214851859387825,0.5809255864866464,0.033299188977751665,0.4655172413793096,1
0.542283185386867,0.30089793599650316,0.821313669741244,0.5977229500346014,0.030599064594742015,0.4655172413793096,1
0.5416365469344211,0.3034268326231411,0.8215958019227996,0.5932906997140374,0.03419899593081829,0.4655172413793096,1
0.5437526845645506,0.30342330725760247,0.8205812220242383,0.5820613648631789,0.0350995064076948,0.44827586206893955,1
0.5435725917294237,0.304908348382272,0.8212945781011007,0.5918526378399328,0.03509950640769477,0.44827586206893955,1
0.5417213663989904,0.3037490745371574,0.8209947064399312,0.5989943110402054,0.03509950640769477,0.44827586206893955,1
0.545604545070705,0.3048281084811718,0.8208560139007639,0.5825304335561109,0.03419899593081821,0.44827586206893955,1
0.5439966355095777,0.29778496400581506,0.8210802817778301,0.5905260782470403,0.03419899593081821,0.46551724137929895,1
0.5412171346816506,0.2961800728083303,0.8208181209624549,0.5983582515771981,0.036899120313828,0.46551724137929185,1
0.5426178651607815,0.295189418925969,0.8212296305693871,0.5852886525687799,0.03419899593081813,0.46551724137929185,1
0.541409551834848,0.2961315043302594,0.8206572488273558,0.5873249344756364,0.034198995930818404,0.46551724137929185,1
0.5425800128539382,0.2951056261946176,0.8206151289871998,0.5980400170036498,0.033299188977751554,0.46551724137929895,1
0.5413858572408426,0.29623738278795886,0.8196504923403423,0.5859671493833195,0.035999313360761176,0.4655172413793096,1
0.5426425572435809,0.29497573217561235,0.8219269344549416,0.5868445941194689,0.02969925764167547,0.4655172413793096,1
0.5412891255452692,0.2964072553683378,0.8207992367993999,0.5984328913573123,0.035099506407694686,0.4655172413793096,1
0.5427779123758121,0.2947242790110804,0.8220663408350325,0.587664962609282,0.03509950640769488,0.4482758620689573,1
0.5411002162349008,0.2989263619769217,0.8207293655102177,0.5871980117818318,0.034198995930817905,0.4482758620689502,1
0.5430602271505248,0.3019796141479214,0.8221202679990331,0.5992832381415599,0.035099506407694686,0.4482758620689502,1
0.5405763889164658,0.304328019044409,0.8207536686293453,0.5877755683919217,0.03509950640769491,0.4482758620689502,1
0.5460341098974272,0.30079110322591285,0.8212752385586567,0.5861802928806442,0.0350995064076948,0.46551724137929895,1
0.5489494556363824,0.3052775688284477,0.8162539275963905,0.6005691461666698,0.03509950640769488,0.46551724137929895,1
0.554311677155618,0.29937650476182776,0.8177654911382299,0.5837062376784411,0.034198995930818266,0.46551724137929895,1
0.547758497532639,0.29690188219186364,0.8135647193685218,0.5905159192820392,0.03419899593081813,0.46551724137929895,1
0.5539790945705607,0.2935295466021024,0.8181256138934424,0.5981537244441089,0.0350995064076946,0.4482758620689502,1
0.5465586849553778,0.3065313579642749,0.8192599341308747,0.5891241310155249,0.033299188977751804,0.44827586206893955,1
0.5344252789126409,0.3164824793938885,0.8258183151142887,0.5818991039117746,0.03599931336076134,0.44827586206893955,1
0.5157292446794762,0.3109098177209163,0.8573391856091418,0.6087214995984482,0.03599931336076129,0.44827586206893955,1
0.4529522232164692,0.36099782446983103,0.9079973813284986,0.5993148896638572,0.0377989272668941,0.44827586206896797,1
0.43263227583921804,0.5513354200605723,0.8427830086143748,0.6888324298125946,0.036899120313827916,0.4482758620689751,1
0.44949105619139873,0.3558594548944981,0.8573509150523977,0.7987616391804524,0.03419899593081813,0.4482758620689751,1
0.4731298789587746,0.296972149229209,0.8832590348985903,0.6382771071632708,0.032399382024685175,0.4482758620689751,1
0.4765271853805711,0.33092677686087907,0.871260248038386,0.2624284314108516,0.03329918897775172,0.4310344827586263,1
0.4631811854725991,0.3826182086307821,0.8763427459673866,0.4349567353091844,0.03419899593081821,0.43103448275861567,1
0.5002316305458849,0.3393843067429987,0.8426380317225434,0.5991914304137033,0.03239938202468487,0.43103448275861567,1
0.47625889320893866,0.32500447479662176,0.8774898833112936,0.4783982916116547,0.033299188977751554,0.43103448275861567,1
0.4926408868405765,0.3357215779475976,0.8476878217710984,0.6605325302025322,0.03509950640769488,0.4482758620689502,1
0.5529605937737712,0.3207280324246129,0.8318518679215021,0.6528270831471795,0.03419899593081807,0.4482758620689502,1
0.5233641694309664,0.322093705298202,0.8307892801585631,0.8336346120291198,0.03509950640769491,0.4482758620689502,1
0.5381541765223118,0.3082942321683979,0.8314332109771829,0.5336590793516776,0.0350995064076948,0.4482758620689502,1
0.5457775488563432,0.3124832735859129,0.8200465334374638,0.32383221631197273,0.035099506407694964,0.4482758620689644,1
0.5519634527747082,0.3045624894852642,0.8205038923311215,0.5669099690868471,0.035099506407694825,0.44827586206895376,1
0.5508200742942353,0.31550630535313917,0.8163078502345319,0.66327922457473,0.035999313360761176,0.44827586206895376,1
0.5639180679668758,0.31188295907869934,0.815824409407411,0.612513130260808,0.03599931336076134,0.44827586206895376,1
0.5636404055410096,0.323167710347123,0.8130927715010847,0.6079962378556837,0.0350995064076948,0.46551724137930606,1
0.5674231188885289,0.31378886470782663,0.8141605099324135,0.6287618635244798,0.033299188977751665,0.46551724137930606,1
0.561850192350992,0.32087931585033724,0.8138988257357573,0.5997963237704134,0.035099506407694686,0.46551724137930606,1
0.5680172050194308,0.31273837630444756,0.8160212183756146,0.5977620114940754,0.03239938202468509,0.46551724137930606,1
0.5641971859737023,0.3231405117800821,0.8123839795678328,0.6100999603036711,0.0350995064076951,0.48275862068966546,1
0.5670111142285225,0.31833657319537334,0.8159587311156868,0.5849886520039516,0.034198995930817794,0.4827586206896548,1
0.558153832272165,0.3251518401488762,0.8132062729168321,0.597935098163439,0.03329918897775147,0.4827586206896548,1
0.5618763484665065,0.31701256039773873,0.8169225756813956,0.6030744960802176,0.03329918897775183,0.4827586206896548,1
0.553143139484548,0.32115575825867615,0.8170262914839705,0.5839228462020071,0.03329918897775172,0.44827586206895376,1
0.5594977775003276,0.309552001841656,0.8179747073974607,0.5944852078815203,0.035999313360761426,0.44827586206895376,1
0.5558407587877643,0.3167312046741453,0.8133883279467695,0.6031177660521572,0.033299188977751665,0.44827586206895376,1
0.5600272381885429,0.30896205482395406,0.8166902028450522,0.5772498865194015,0.03329918897775172,0.44827586206895376,1
0.5556038770168479,0.3159350019406888,0.812579266366974,0.598118887826187,0.03149957507161863,0.4482758620689644,1
0.5617857408514292,0.3088803073809391,0.8165651490827998,0.6009083678010696,0.03329918897775172,0.44827586206895376,1
0.5560328216067598,0.3172971970587098,0.813932827902773,0.5862066352969283,0.033299188977751804,0.44827586206895376,1
0.5689725173766157,0.31035264166663884,0.8156713917211678,0.5870280656385783,0.032399382024685286,0.44827586206895376,1
0.5607524170528182,0.31823202016590846,0.8129015967260448,0.5934596910651446,0.03239938202468534,0.46551724137930606,1
0.5698345057346703,0.3073513012872002,0.8163575641091176,0.5799495475375893,0.033299188977751804,0.46551724137929895,1
0.561720752873268,0.31909906215024614,0.8123393630415441,0.6022078242429159,0.03149957507161863,0.46551724137929895,1
0.570925666568282,0.30616578949740214,0.8157169753707771,0.5872577202153911,0.03239938202468526,0.46551724137929895,1
0.5605289533831075,0.32065926304422787,0.8128414743269861,0.5897277994890093,0.03329918897775175,0.48275862068965125,1
0.5724505747993163,0.3040722706466997,0.8152767252716318,0.5988588392385271,0.0323993820246854,0.4827586206896406,1
0.5568668423949563,0.32073309901830044,0.8089683549873383,0.589026120640864,0.032399382024685175,0.4827586206896477,1
0.5774141073990692,0.29474923553657817,0.8168204963000218,0.5842592601024594,0.03149957507161871,0.4827586206896406,1
0.5477402535784461,0.331616201268205,0.8095875844389032,0.6059571537682055,0.03329918897775164,0.44827586206895376,1
0.6010916778966598,0.2525367550914554,0.8084339219893474,0.5809667308060105,0.032399382024685286,0.44827586206895376,1
0.6778999400413288,0.30637419018623796,0.6586351572442455,0.5913304751086091,0.032399382024685175,0.44827586206895376,1
0.7355702200990748,0.4515765766443493,0.7396444487943024,0.5993681138908763,0.02969925764167558,0.44827586206895376,1
0.6945389473105854,0.4519537248316722,0.7533384799952809,0.6022088213971883,0.02069978106339021,0.4827586206896477,1
0.4921475351379241,0.32307283702087014,0.7947021255965172,0.6534709742818049,0.022499394969523412,0.4827586206896335,1
0.5156062580716201,0.3057954899357347,0.8713243109160753,0.7746898506739495,0.026099326305599274,0.4827586206896406,1
0.5140662859889502,0.3394781467275101,0.8502461816888922,0.4751237129957151,0.02789964373554274,0.4827586206896335,1
0.5195955889903257,0.3037082424934194,0.8458000409479334,0.44854934146919373,0.02969925764167558,0.4482758620689573,1
0.5067906461339997,0.3050235312194427,0.8348945651669688,0.6452906629724523,0.02969925764167569,0.4482758620689573,1
0.5029354710889118,0.27379601276428034,0.8451391592868083,0.5080709062979196,0.029699257641675497,0.4482758620689573,1
0.46909196093921146,0.23744743170606813,0.8319951264553386,0.5438638795204644,0.02969925764167569,0.4482758620689573,1
0.4291188973364309,0.1711814280378519,0.8205753999381281,0.7196835979968201,0.028799450688608924,0.4655172413793167,1
0.40407041685299866,0.1650148247941391,0.8202501470206294,0.34958419209253533,0.030599064594742015,0.46551724137930606,1
0.40239392124836715,0.16081851285506904,0.8239991676136234,0.5933088266678571,0.026999133258665847,0.46551724137930606,1
0.44781016246220484,0.20554109341281063,0.8266400568933148,0.6566293600412247,0.030599064594742015,0.46551724137930606,1
0.49480308349315455,0.25415106157565726,0.8294225105813915,0.6057169294209026,0.02879945068860898,0.46551724137930606,1
0.5470685301622102,0.30198863980527346,0.8228014613620735,0.6114195082236346,0.02969925764167558,0.46551724137930606,1
0.5498686827526132,0.3038481695271455,0.8205935030870454,0.5931706376900721,0.030599064594742292,0.46551724137930606,1
0.5146625258115534,0.3185677566801244,0.8536506734812201,0.5965570453569692,0.028799450688609035,0.46551724137930606,1
0.4647086487384124,0.2957320108153998,0.8515649820098217,0.6285027113828344,0.028799450688608702,0.44827586206896797,1
0.4292575795894049,0.2812118123382834,0.857522595125628,0.5728562821068921,0.02879945068860912,0.4482758620689573,1
0.4757615611629743,0.27438218297174954,0.857354243197745,0.6256654112513277,0.02969925764167544,0.4482758620689573,1
0.476981849048817,0.2803983564715334,0.844234757307483,0.6278934898632982,0.029699257641675553,0.4482758620689573,1
0.49510230595324467,0.268958224433783,0.8408634623155792,0.6936602924752704,0.02969925764167544,0.4482758620689644,1
0.4898926314149529,0.2733475164358282,0.8367917174079905,0.6823455377522784,0.030599064594742292,0.4482758620689644,1
0.49501242947320245,0.26538267928712034,0.8353894724280317,0.2905491192649884,0.029699257641675553,0.4482758620689644,1
0.48893952832993726,0.27307067240000393,0.8356604509407248,0.4732085828268279,0.029699257641675553,0.4482758620689644,1
0.4978221753565606,0.2664066981203151,0.8357995813134561,0.8753709653988271,0.029699257641675664,0.4655172413793238,1
0.4892437515001733,0.27364912023144167,0.8346297882565297,0.7828405754409522,0.030599064594742098,0.4655172413793096,1
0.5240123785864411,0.27231448095910643,0.8257158928390185,0.3928522791542296,0.030599064594742126,0.4655172413793096,1
0.5338738859947563,0.2729831723208568,0.8162975277904257,0.4041181708749335,0.02969925764167544,0.4655172413793096,1
0.5343880533553014,0.2679274871063919,0.8164120356121813,0.48552622447355887,0.02789964373554274,0.4482758620689751,1
0.5337127204500147,0.2743835905161809,0.813812639440451,0.6617438918352806,0.028799450688608924,0.4482758620689751,1
0.5309845135530892,0.26825454803578214,0.8174875671938691,0.6122196416393255,0.027899643735542545,0.4482758620689751,1
0.523579829580769,0.26984227184780446,0.8199618799173831,0.6054681129939201,0.029699257641675553,0.4482758620689751,1
0.5255771105241749,0.2712672374708231,0.8218155906730013,0.6622453074585899,0.029699257641675636,0.4482758620689786,1
0.5247281617244187,0.27995280919584337,0.8210720548793579,0.7021361268450378,0.028799450688609285,0.44827586206896797,1
0.5287703092816036,0.27503575329608776,0.8217340063873237,0.8116132497304811,0.02879945068860898,0.44827586206896797,1
0.5265402716663464,0.27620951872848143,0.821108195192052,0.6117379423389369,0.02969925764167558,0.44827586206896797,1
0.5301078026603724,0.2749686553710937,0.8217097510799645,0.33087980449472915,0.02969925764167544,0.4310344827586228,1
0.5251638434140391,0.27692177391506567,0.8211255970173519,0.5436668786564778,0.02879945068860909,0.4310344827586228,1
0.5285375943287022,0.27289459323141163,0.8216988260148557,0.5803380853758503,0.028799450688609174,0.4310344827586228,1
0.5258110835693319,0.2773813198641206,0.8211284988341339,0.40557501434821086,0.026999133258666153,0.4310344827586228,1
0.527757670276833,0.2699465689489615,0.8217080079137822,0.5148647437377929,0.027899643735542518,0.4482758620689786,1
0.5259915767335144,0.2709783827088056,0.8210967970718321,0.7569504351766541,0.02789964373554238,0.44827586206896797,1
0.526847243516563,0.2682113045682213,0.8217976890434717,0.6308930004641299,0.02879945068860884,0.44827586206896797,1
0.5261028352595218,0.271171511668585,0.8206706010439373,0.5531510988378703,0.027899643735542518,0.44827586206896797,1
0.5267084997744003,0.26791484400146576,0.8210573038709155,0.6142985244153183,0.02879945068860884,0.4482758620689644,1
0.5250630401728347,0.2740392353798,0.82140778732266,0.6156863888094188,0.02879945068860898,0.4482758620689644,1
0.5277581676629315,0.2753569529216393,0.821493472296066,0.5842183088097871,0.02879945068860898,0.4482758620689644,1
0.5261763551789533,0.2773853295308546,0.8213000335681311,0.6179609830590814,0.030599064594742126,0.4482758620689644,1
0.527081296438706,0.27527146345200804,0.8215544756540727,0.6115929852033987,0.028799450688608924,0.4482758620689751,1
0.5266529450498381,0.2784022558876243,0.821242474954316,0.581813668346607,0.029699257641675664,0.4482758620689644,1
0.5314030974667917,0.27295331337957046,0.8216448297002006,0.6006680953499793,0.026999133258665958,0.4482758620689644,1
0.5281579258627901,0.277054055285902,0.8209410168883211,0.608672432670367,0.0287994506886092,0.4482758620689644,1
0.5265354475246403,0.26809164306468203,0.8207831408223578,0.5889877651820147,0.028799450688609035,0.4482758620689644,1
0.5281271833029654,0.27120204862926356,0.8216448028514081,0.5903317112658715,0.02879945068860923,0.4482758620689644,1
0.531744715635788,0.26811073904234434,0.8204747423869254,0.6118234364069352,0.028799450688608647,0.4482758620689644,1
0.5302415502488832,0.27134300282503865,0.8181972127570463,0.6058445424146245,0.02879945068860909,0.4482758620689644,1
0.5283159871491265,0.26929322556678836,0.8194246662179092,0.6289632216999114,0.029699257641675664,0.4482758620689822,1
0.5256600696595704,0.27077362932239946,0.8205830032709613,0.6056259603608357,0.02609932630559955,0.4482758620689751,1
0.5272404810818386,0.2684620334963028,0.819897380624947,0.5653713400997945,0.030599064594742015,0.4482758620689751,1
0.5277125452503414,0.2708704108516875,0.821019720866359,0.68352200089625,0.02969925764167547,0.4482758620689751,1
0.5299800120068939,0.2684208868825304,0.8199528256507589,0.770461235329912,0.028799450688609174,0.4482758620689751,1
0.5289587818344317,0.2709096436226395,0.8197994298963168,0.41824779174647897,0.029699257641675553,0.4482758620689751,1
0.5303642256867493,0.2683408746508539,0.8187763628453224,0.35604576141136823,0.02879945068860909,0.4482758620689751,1
0.5314784812691029,0.27237848735335685,0.821454499026226,0.5289127404649456,0.02879945068860898,0.4482758620689751,1
0.5310650356767519,0.2753667433158079,0.8204378403684378,0.5870016608315531,0.028799450688608813,0.43103448275863343,1
0.5318754258547378,0.27922055297618925,0.8213662330472609,0.6366683575588603,0.02699913325866607,0.4310344827586228,1
0.535096090062175,0.277203351615819,0.8213134481255505,0.5690060646111493,0.027899643735542656,0.4310344827586228,1
0.532265920224185,0.27947450904186694,0.8215630472193316,0.5993830921092327,0.026999133258666125,0.4310344827586228,1
0.5344755318492918,0.2771311656946391,0.8212236170172587,0.6100242142306165,0.027899643735542434,0.43103448275860146,1
0.5329751419492106,0.27950145173774565,0.8216773937714592,0.6111632219618955,0.029699257641675664,0.43103448275860856,1
0.5314070054120432,0.27398415157674805,0.8203568319563532,0.5977261186788586,0.026999133258665847,0.43103448275860856,1
0.531122013130471,0.27340740874036973,0.8216263223700117,0.6092946818703925,0.027899643735542434,0.43103448275860856,1
0.5322029409425153,0.2685012853455445,0.8187669634007373,0.6100687022801476,0.026099326305599413,0.4655172413793167,1
0.5336684388245128,0.2708832335867108,0.8148503193421783,0.6609319204095678,0.027899643735542462,0.4655172413793096,1
0.5341159125703608,0.26837807337532,0.8151988990491175,0.734643117448841,0.02699913325866557,0.4655172413793096,1
0.5324449772906719,0.2710197122266149,0.8150626240119769,0.38599398233086246,0.026999133258665764,0.4655172413793096,1
0.5335788850975727,0.26769007103591325,0.8151222578553345,0.47923835937753406,0.028799450688609035,0.4482758620689751,1
0.5337157716848882,0.26661930124705746,0.8144131709213532,0.6215451218940532,0.023399201922589957,0.4482758620689751,1
0.5342858142156423,0.25960354052465806,0.8145652546999362,0.5876784826852076,0.02699913325866607,0.44827586206896797,1
0.5336325718465258,0.26312419617071003,0.8144977423053688,0.6150419049028681,0.027899643735542656,0.4482758620689751,1
0.5342427882143987,0.2667175495348382,0.8148282941553677,0.5995768314056423,0.026999133258665847,0.4482758620689751,1
0.5304992661041754,0.27508693092267494,0.8205924135084369,0.60781822916779,0.02879945068860923,0.4482758620689644,1
0.5285107554872588,0.27691930155618205,0.821921239134475,0.6127003256011211,0.023399201922589763,0.4482758620689644,1
0.5266780205458432,0.28507490177681094,0.8244491192497971,0.6154727550265686,0.02609932630559947,0.4482758620689644,1
0.5230520756857423,0.2838259515336929,0.8290093000505464,0.6581722816773259,0.027899643735542462,0.4137931034482669,1
0.524264846373006,0.28423446007223324,0.8264560474559066,0.7532086886478451,0.026099326305599413,0.41379310344827047,1
0.5191873452056641,0.282053518106152,0.8263832235345312,0.39855230364104977,0.02879945068860898,0.41379310344827047,1
0.5205782357487863,0.28253232283664614,0.8284389532450183,0.3386875591240224,0.027899643735542184,0.41379310344827047,1
0.525674232030407,0.2875064822508442,0.8256067335274107,0.8623903020781156,0.02789964373554238,0.4482758620689644,1
0.5623317759370772,0.2873331706502893,0.8077574711399592,0.7931507039420846,0.02789964373554263,0.44827586206895376,1
0.5733046225957057,0.2857229595930503,0.800248737412997,0.3945634754346954,0.024299712399466378,0.44827586206895376,1
0.5746266049560707,0.2910713433965879,0.7957369420791187,0.3045503144634895,0.027899643735542518,0.44827586206895376,1
0.5837203475714345,0.29412472196188777,0.7943380408848386,0.6603461267527468,0.02699913325866607,0.44827586206895376,1
0.5795761534703996,0.29691983949512013,0.7984403071354598,0.7244115596704992,0.026999133258666208,0.44827586206895376,1
0.5822980046399504,0.2943252876721589,0.7935408181944478,0.5919341567946272,0.025199519352533006,0.44827586206895376,1
0.5815164823138763,0.29703185556262035,0.7943575860348542,0.5732115167190583,0.026099326305599357,0.44827586206895376,1
0.5816901320350484,0.2941654088587976,0.7934981852731753,0.5755237130595918,0.025199519352532923,0.4482758620689644,1
0.5815501601947268,0.29722361267899833,0.795845161703875,0.6170142357897158,0.026099326305599663,0.44827586206895376,1
0.5826357032578444,0.29393847649628513,0.7935589141843113,0.5200546827235127,0.026999133258666014,0.44827586206895376,1
0.5816098977635091,0.29749518284315757,0.7942320513033101,0.5918522130804892,0.02609932630559969,0.44827586206895376,1
0.5825664970818916,0.2936073975777961,0.7934893861445298,0.5739521073209947,0.026999133258665736,0.4482758620689573,1
0.5817207597999217,0.29790799727980793,0.7942373419638906,0.6315696823845717,0.02879945068860898,0.44827586206895376,1
0.582205001434535,0.2930797021688562,0.7934913086877807,0.6098717465835837,0.027899643735542434,0.44827586206895376,1
0.5797455516709453,0.2985971159064237,0.7942284176152707,0.5886788624686501,0.027899643735542434,0.44827586206895376,1
0.5829032545788684,0.2922022222747904,0.7935107092274145,0.581251927808634,0.02699913325866604,0.4310344827586228,1
0.5810190361709169,0.2986327892063917,0.7946659866028071,0.6223041795354279,0.026099326305599413,0.4310344827586121,1
0.5855718926881507,0.26958965363116955,0.8179553698404813,0.5957929153363336,0.026999133258665958,0.4310344827586121,1
0.5057214881546993,0.3344498261072971,0.804808601738732,0.6070653918219711,0.025199519352532812,0.4310344827586121,1
0.4955961485121671,0.3274044490460093,0.863940970035779,0.6168341091266198,0.02879945068860912,0.4482758620689502,1
0.5109609553459632,0.27642570785760523,0.8409098476649322,0.7211586778237052,0.028799450688609174,0.4482758620689502,1
0.5159638458015314,0.286276641960248,0.8286732548422944,0.7132348632019542,0.02969925764167569,0.4482758620689502,1
0.5345749595978497,0.2839053791757163,0.8227758461766802,0.4842861321912695,0.029699257641675497,0.4482758620689502,1
0.5581328481103613,0.2929041958182359,0.810516218417171,0.6084946168709412,0.028799450688609285,0.43103448275861567,1
0.5665468710277416,0.28395542955598074,0.8022179409780619,0.5364338205464905,0.02969925764167583,0.43103448275860856,1
0.5699310519636778,0.2908769622112496,0.8014859678838093,0.49875685655597796,0.027899643735542712,0.43103448275860856,1
0.5638159165194105,0.28858382767461954,0.8041997193139094,0.519341946864206,0.026999133258666125,0.43103448275860856,1
0.5635578205307654,0.29472320734303603,0.8046059125619175,0.5668633738741482,0.02879945068860873,0.43103448275860146,1
0.5562196909859582,0.2891820703079997,0.8111672067042761,0.622925333141889,0.0287994506886092,0.43103448275860146,1
0.5458128209805793,0.2904082608177269,0.8136724496830954,0.591501408613826,0.027899643735542434,0.43103448275860146,1
0.5425536677810632,0.2867165482160908,0.8169612091410519,0.6135185579420258,0.02429971239946621,0.43103448275860146,1
0.5467004171003633,0.29245889613861664,0.8160867662284512,0.6270947477806366,0.028799450688609174,0.4482758620689644,1
0.5499632827271035,0.29264515963592863,0.8149366049523736,0.6376604635035665,0.02789964373554224,0.44827586206895376,1
0.550352125798387,0.29593146406065446,0.8149724494852189,0.6100966314543931,0.027899643735542184,0.44827586206895376,1
0.5492202404303967,0.29485819441026806,0.814424669646169,0.5046971279859737,0.028799450688609007,0.44827586206895376,1
0.5493504401068441,0.29644029667612637,0.8145138138748126,0.5522970166039901,0.028799450688608924,0.44827586206895376,1
0.550491967737931,0.29486955404075166,0.8146032469060334,0.5224938936379363,0.02969925764167569,0.44827586206895376,1
0.5518032037074656,0.2963862065587767,0.8144057990593605,0.5314580778129996,0.027899643735542545,0.44827586206895376,1
0.5529221906668538,0.294926534891392,0.8146803414539328,0.6071510410462064,0.026999133258666125,0.44827586206895376,1
0.5519218601306619,0.2963349082607326,0.8143451860896327,0.6493945141028089,0.02879945068860912,0.46551724137930606,1
0.5512552446269969,0.29496994756618966,0.8147312558437769,0.5986747224062526,0.026999133258666125,0.46551724137929185,1
0.550550966564968,0.29629981431860564,0.8143002783613946,0.6206499054679333,0.027899643735542462,0.46551724137929185,1
0.5505630072588779,0.29499682026947405,0.8147723840224474,0.5928243241254649,0.027899643735542712,0.46551724137929185,1
0.5498692205468619,0.2962809412169373,0.8142614718408204,0.5938129503135748,0.027899643735542518,0.4482758620689502,1
0.5499855292149942,0.2950078897354537,0.8148098944125151,0.5988567659705882,0.02879945068860923,0.4482758620689573,1
0.5503128498140041,0.29627756535429284,0.8142244851592266,0.6090565529344238,0.02789964373554263,0.4482758620689573,1
0.550827051060931,0.29500356853257653,0.8148469800192858,0.578676243493439,0.029699257641675553,0.44827586206895376,1
0.5500998773207164,0.2962897173062731,0.8141867634844525,0.608727026137291,0.02879945068860909,0.4655172413793238,1
0.5507911438680044,0.29498330649893423,0.8148858329393707,0.5975864445878445,0.028799450688609174,0.4655172413793167,1
0.5508707220814235,0.29631853356278026,0.8141462935359058,0.5896750890559491,0.026999133258665847,0.4655172413793167,1
0.5531467615934829,0.29494530054254803,0.8149284237603862,0.5901203828435793,0.027899643735542518,0.4655172413793167,1
0.5544023179292716,0.2963665936972696,0.814101033609223,0.6120631322462766,0.028799450688609035,0.44827586206895376,1
0.5537193287922975,0.29488603892110665,0.8149769739291028,0.5780078929092394,0.02429971239946646,0.44827586206895376,1
0.5496517258681811,0.29643856453779965,0.814048465016395,0.5957914591600719,0.02699913325866607,0.44827586206895376,1
0.551348060558111,0.2947993770548223,0.8150344403015934,0.6000898684743867,0.028799450688609174,0.44827586206895376,1
0.5527325227184996,0.29654254398424307,0.8139850098940563,0.6001073961213508,0.02789964373554263,0.44827586206895376,1
0.5565039469181012,0.2946745432675456,0.8151052735860546,0.5718722211429648,0.02969925764167558,0.4482758620689431,1
0.5544828109907229,0.29669311194752435,0.8139049801956033,0.6060247291875928,0.02519951935253273,0.4482758620689431,1
0.5543122025367901,0.2944912664858248,0.8151969520428626,0.5908771827040469,0.02699913325866604,0.4482758620689431,1
0.5556612405255854,0.2969195875778231,0.8137982251858018,0.5902703754875741,0.02879945068860909,0.4482758620689573,1
0.5557146926514207,0.2942045730935262,0.8153237954792247,0.5789226572282856,0.026999133258665875,0.44827586206896797,1
0.5549947865689042,0.29729757534566825,0.8136435054214798,0.6101832115947813,0.02969925764167544,0.44827586206896797,1
0.5520772603737427,0.29366608527320587,0.8155196275590741,0.5761689269694306,0.025199519352532923,0.44827586206896797,1
0.550837996860887,0.2982221484913724,0.8133804826144218,0.594683942228107,0.02879945068860884,0.4310344827586263,1
0.5521731851162636,0.28856642552131706,0.8159184348403206,0.5877378420066637,0.02969925764167544,0.43103448275861567,1
0.5496284307571047,0.28947265376967357,0.812439485983383,0.6074119348100238,0.027899643735542323,0.43103448275861567,1
0.5594504252209593,0.29102050827317644,0.8126734702874283,0.5717830899207657,0.027899643735542545,0.43103448275861567,1
0.5543434296227908,0.29850492528345074,0.8083138543247346,0.6395610716108836,0.027899643735542323,0.43103448275860146,1
0.5664513689248099,0.2885785900054003,0.8100133239024696,0.7106687556010379,0.03059906459474221,0.43103448275860146,1
0.5636527269035263,0.2992917425104804,0.8021272556786938,0.7615452113389178,0.028799450688609174,0.43103448275860146,1
0.5661584011595895,0.2725990002341419,0.8327520337577567,0.22284662008289513,0.029699257641675664,0.43103448275860146,1
0.4780950502039866,0.3351527460138485,0.8194826510760433,0.5098305324830124,0.02699913325866568,0.44827586206896797,1
0.49795428447404444,0.2948976997237738,0.8775961938413837,0.7891513009333392,0.029699257641675636,0.4482758620689573,1
0.4724152512098744,0.26299077460453746,0.845737815910164,0.6890127512371529,0.02969925764167558,0.4482758620689573,1
0.4394714165805149,0.25477454236762,0.8487205232810183,0.5466183694953012,0.03059906459474221,0.4482758620689573,1
0.42827237806246105,0.22064092107498978,0.8480336830469302,0.3513677016172265,0.03059906459474182,0.4482758620689751,1
0.4058913175846985,0.22015389871662133,0.849316822247694,0.6242257639045687,0.030599064594742015,0.4482758620689786,1
0.371381103678979,0.18185577858506985,0.8468060580932665,0.5817713514918796,0.030599064594742015,0.4482758620689786,1
0.3643015129437389,0.1854910408686541,0.8339715706316806,0.5892135812717134,0.03149957507161863,0.4482758620689786,1
0.4020748705298077,0.2032737203087983,0.8573447225386457,0.46876121774627133,0.03239938202468509,0.4482758620689822,1
0.43173376934005925,0.2440223189317383,0.845823251558833,0.604295162481027,0.032399382024685175,0.4482758620689751,1
0.4184747118069305,0.2871282619158165,0.8678622815989471,0.753380061102672,0.02879945068860873,0.4482758620689751,1
0.424303696293841,0.27938724240803414,0.8681111011257274,0.6842121076094939,0.03239938202468498,0.4482758620689751,1
0.44236131131019896,0.26931470439478034,0.8630294037677843,0.6143561164899694,0.03419899593081813,0.44827586206895376,1
0.4631847600757528,0.2671964737468283,0.8462844003827665,0.387285604566108,0.03419899593081821,0.44827586206895376,1
0.4838726951703072,0.2675114077696647,0.8460529724985775,0.8645874593600802,0.031499575071618546,0.44827586206895376,1
0.4818086050579174,0.27620129980647756,0.8439740742809685,0.5201625414256197,0.030599064594742126,0.44827586206895376,1
0.48550106826904116,0.2712555074452281,0.8433674097924759,0.45524146178921054,0.02969925764167569,0.43103448275861567,1
0.48875343027363416,0.27892058636063055,0.8416386826011821,0.3479098218328689,0.030599064594742292,0.43103448275860856,1
0.4923482684546735,0.27630351712100953,0.8406381304649719,0.4467414075378999,0.02969925764167544,0.43103448275860856,1
0.4927964638888086,0.2804329673987469,0.8409856795366957,0.8130797537769157,0.02969925764167558,0.43103448275860856,1
0.49504254376065165,0.27613677410105786,0.8402733841451857,0.6434978600303751,0.029699257641675553,0.43103448275861567,1
0.49257691402658066,0.2806534846585387,0.8384676446739161,0.6294857097148601,0.02879945068860898,0.43103448275861567,1
0.49584021055465766,0.27492509475569227,0.8362635643917633,0.6025333669421552,0.029699257641675553,0.43103448275861567,1
0.49341688240365783,0.27299771048000765,0.8355194818737115,0.6116855606339477,0.029699257641675553,0.43103448275861567,1
0.5019213978510576,0.27047647962840915,0.8347052706266012,0.5877368708614372,0.028799450688609285,0.4482758620689786,1
0.5022441389059924,0.2814996193910204,0.8360404531343768,0.6404630995450998,0.030599064594741765,0.44827586206896797,1
0.5026986953748518,0.27616880530723853,0.8339487103253342,0.5740842369111039,0.029699257641675247,0.44827586206896797,1
0.4977401305641812,0.27315719458737353,0.8356352223047676,0.6191512808314766,0.030599064594742015,0.44827586206896797,1
0.4880239896060299,0.256559217342803,0.8359392735848383,0.6125629410937516,0.029699257641675664,0.44827586206895376,1
0.4810272762125014,0.2553341715732278,0.8357874570902242,0.6092592689791123,0.029699257641675747,0.44827586206895376,1
0.4791069292812535,0.24632213170324047,0.8344900755806841,0.581988600822437,0.02969925764167558,0.44827586206895376,1
0.4757009641857721,0.24568617181703548,0.8355585734345908,0.6223849532776129,0.029699257641675664,0.44827586206895376,1
0.4793319080918864,0.24113171280583623,0.8343980452112251,0.5744873792866205,0.03059906459474221,0.44827586206895376,1
0.4823324297745868,0.24922162871329054,0.8355674904504184,0.5959453921561398,0.02969925764167569,0.4482758620689431,1
0.4878668814093393,0.25064705180464963,0.836705577005028,0.5947756537324691,0.03059906459474221,0.4482758620689431,1
0.48413755705698325,0.2547689898421531,0.8290164532240729,0.6054858137514905,0.02969925764167569,0.4482758620689431,1
0.48710111321572336,0.24757529725720584,0.8345206507706614,0.5790997501378362,0.02969925764167583,0.4482758620689751,1
0.4895075233738688,0.26734886387968226,0.8335315247928872,0.6142925513206118,0.03149957507161863,0.4482758620689573,1
0.48703594227754177,0.24935643759464032,0.8603138185457644,0.6263659101313874,0.029699257641675553,0.4482758620689573,1
0.5212631058290511,0.38550857559110857,0.8262987626124666,0.8123449682267253,0.028799450688608924,0.4482758620689644,1
0.5724511013998139,0.27517550079237174,0.7677123350168937,0.6734287423748891,0.02879945068860909,0.44827586206896797,1
0.5758025919119232,0.23323570760984977,0.8018893828764587,0.22914038010423515,0.02699913325866607,0.4482758620689573,1
0.5114296341056042,0.255014903362745,0.8208926433080169,0.3146361062009041,0.02609932630559922,0.4482758620689644,1
0.5238824942848337,0.23473989608365484,0.8100866104029802,0.8509147658659115,0.021599588016456728,0.4482758620689573,1
0.5132263654061848,0.23302554999382705,0.8106835004011094,0.5206618056254801,0.026099326305599274,0.4482758620689573,1
0.5179581498570012,0.23484075787483896,0.8109075921900635,0.5835593587112647,0.02789964373554263,0.4482758620689573,1
0.5218600039588498,0.24490284130293874,0.8151214157657662,0.7067883090528231,0.026999133258665875,0.4482758620689573,1
0.5198671183467343,0.245551378251131,0.8113310953260786,0.7129423449938579,0.02969925764167547,0.4482758620689573,1
0.5360240212886026,0.256689288415508,0.813443030927142,0.4228175717150341,0.023399201922589846,0.4482758620689644,1
0.5377759128819006,0.2513677876646907,0.8072112793203374,0.3960116199383602,0.027899643735542656,0.44827586206895376,1
0.5297161806772174,0.252708495685218,0.8108387836410227,0.5765357406289389,0.027899643735542268,0.4482758620689573,1
0.5366384149440497,0.25128538805010636,0.8087298504932623,0.6578987686694017,0.026999133258666125,0.44827586206895376,1
0.5313456949371722,0.25595237474365523,0.8140529865230532,0.6700697220784229,0.028799450688609035,0.44827586206896797,1
0.5356306451940391,0.25227036420764615,0.809533496342442,0.6229262661809222,0.027899643735542518,0.4482758620689751,1
0.5348286168981192,0.2547480656245735,0.8118575231918654,0.596367229158675,0.027899643735542323,0.44827586206896797,1
0.5345537305763322,0.2514013313386024,0.8076335157948669,0.5677530614377317,0.026999133258665764,0.44827586206896797,1
0.5333259946651892,0.25318834265011303,0.8108561711537497,0.5986536100839669,0.026999133258665875,0.4482758620689573,1
0.5335029522978665,0.25154519624195254,0.8103041507587226,0.6061098172171907,0.026999133258665875,0.4482758620689502,1
0.5329568498523407,0.2530433613243528,0.8085110663780717,0.5863583621244829,0.023399201922589513,0.4482758620689502,1
0.5335340455911335,0.24986563887628233,0.8080888841938003,0.5989775151546368,0.026099326305599302,0.4482758620689502,1
0.5327927975769697,0.2524230757394763,0.8097685267421708,0.5949455580084387,0.027899643735542462,0.44827586206895376,1
0.5326168023185123,0.2520421191227453,0.8093624301408894,0.589049426063751,0.026999133258666014,0.44827586206895376,1
0.5336471429085533,0.2526009625468135,0.8108651268154732,0.6022882966072308,0.027899643735542545,0.44827586206895376,1
0.5341637492182121,0.25210349522068415,0.8092399315604071,0.5960320406512041,0.027899643735542656,0.44827586206895376,1
0.5338267091569606,0.25252250745491145,0.8079042825643172,0.585325958020686,0.026999133258665736,0.4482758620689644,1
0.5340839142026993,0.25453825021624055,0.8100064302363919,0.603802546764266,0.026999133258666014,0.44827586206895376,1
0.5338871440235354,0.2546908582168672,0.80861512834279,0.5802279699544355,0.025199519352532868,0.44827586206895376,1
0.5340306325839176,0.25176082016036366,0.8087349167976847,0.5967094354858405,0.027899643735542573,0.44827586206895376,1
0.5339377829742351,0.25273678621603646,0.8095536685179757,0.5954279599860041,0.026999133258665847,0.46551724137929895,1
0.5339795958994322,0.2519988078542873,0.8101215505648605,0.5871627332626798,0.02699913325866607,0.46551724137929895,1
0.5339925395625482,0.25260356150672253,0.8092570899670948,0.5919471068201162,0.027899643735542518,0.46551724137929895,1
0.5339161447611106,0.2520950128363537,0.8072066606425166,0.5973025267614337,0.02699913325866593,0.46551724137929895,1
0.5340737611501734,0.25252369897964844,0.8093606775629635,0.5766443779103319,0.02789964373554263,0.44827586206896797,1
0.533797716602335,0.2521646931961954,0.8084584102962946,0.6047537196118996,0.02879945068860873,0.4482758620689573,1
0.5342794646365745,0.252561895187447,0.8089884174318223,0.5855190638491451,0.026999133258665875,0.4482758620689573,1
0.533332555918258,0.25868339559833964,0.8100752587745932,0.5903479324691451,0.027899643735542323,0.4482758620689573,1
0.5362646679963173,0.262256482711389,0.8115705840357159,0.589912401202451,0.026999133258665847,0.4310344827586121,1
0.5285488806333287,0.2559503873992305,0.816045143181949,0.600530615086232,0.026999133258666014,0.4310344827586121,1
0.4838861829962333,0.25056034717922887,0.833428890575107,0.577618210937181,0.02789964373554238,0.4310344827586121,1
0.4838346690128147,0.25413368794898095,0.8345453307284032,0.6234888225987265,0.026099326305599357,0.4310344827586121,1
0.494699369743986,0.2609930936250344,0.835488458940371,0.6269814964256253,0.026999133258666014,0.431034482758637,1
0.491870698165861,0.2620623133408245,0.8331549807235714,0.766409879657052,0.026099326305599607,0.4310344827586263,1
0.4935334331395962,0.26222209607102365,0.8344156555092272,0.45974250657691934,0.026999133258666014,0.4310344827586263,1
0.4904095636151697,0.26202158360170646,0.8350118844557717,0.17828493339857743,0.02609932630559947,0.4310344827586263,1
0.48452903735057495,0.2606988607013887,0.8380609981238201,0.785137280786546,0.026099326305599274,0.4482758620689573,1
0.4869351307895532,0.2619054971065644,0.8379842684082448,0.6133929225237968,0.026999133258665958,0.4482758620689573,1
0.49003354228145923,0.2616175571458039,0.8349938029379245,0.650039403319329,0.025199519352532923,0.4482758620689573,1
0.4873234190529082,0.2582393152513194,0.8351894129270716,0.6052382563300795,0.02609932630559955,0.4482758620689573,1
0.489512072436351,0.25869349133155295,0.835246503463017,0.5859938676059007,0.024299712399466294,0.43103448275863343,1
0.4916576515729696,0.261748317323625,0.8351420245755314,0.5940116869434496,0.026099326305599413,0.4310344827586228,1
0.49398092081309125,0.2601254735032177,0.8350350628356884,0.5943327291370781,0.022499394969523023,0.4310344827586228,1
0.4935378580390404,0.2632059152422428,0.8332842416410968,0.5936679254439542,0.02609932630559922,0.4310344827586228,1
0.49758743166739056,0.26812518869181645,0.8341799442036546,0.5820408549230757,0.026099326305599385,0.4655172413793096,1
0.49841803156440345,0.26730203321902657,0.8338139897184378,0.5886661462869235,0.02249939496952344,0.4655172413793096,1
0.4991667837703857,0.2621076621890485,0.829084617001663,0.5961762065094958,0.02429971239946635,0.4655172413793096,1
0.5019959774278785,0.26208169752963495,0.8279494431480788,0.5821340808212015,0.025199519352533034,0.4655172413793096,1
0.5019407438304488,0.26087339104402074,0.8285927199100478,0.597416719010441,0.024299712399466294,0.4310344827586228,1
0.5016874145275603,0.2612039955384292,0.8280328349358421,0.5977318090692143,0.02609932630559947,0.4310344827586121,1
0.5022925157791478,0.2598027711728637,0.8285591244679433,0.5839553064897739,0.025199519352533034,0.4310344827586121,1
0.49960701786126327,0.25905630041019756,0.8280520027349441,0.5950631180779882,0.02429971239946649,0.4310344827586121,1
0.5004422221372006,0.2585865730249457,0.8285457859316737,0.5891512273518567,0.025199519352532812,0.44827586206895376,1
0.5004947255161968,0.26094507434524816,0.8280625568167069,0.5851843973639634,0.02429971239946649,0.44827586206895376,1
0.5011796099341256,0.2597414004168944,0.82853664908168,0.5989866825930307,0.026099326305599108,0.44827586206895376,1
0.5012263611012926,0.26135479838153514,0.8280710280134318,0.5874929372190171,0.02519951935253295,0.44827586206895376,1
0.5021556421209935,0.260625996086614,0.8285283274266135,0.585619671524932,0.02519951935253295,0.4482758620689751,1
0.5016580268821165,0.2614185546201854,0.828079658178922,0.5994793500018234,0.02519951935253284,0.4482758620689644,1
0.5020950782412125,0.26042769781308184,0.828518867033484,0.5872766560424744,0.02519951935253284,0.4482758620689644,1
0.5016636425703525,0.2657712072617881,0.8280906714742406,0.5927221378679308,0.02609932630559955,0.4482758620689644,1
0.5021070727016201,0.2669513833167444,0.8285051468775889,0.5966731000335825,0.02609932630559955,0.4310344827586263,1
0.5016440276396106,0.2630127150037836,0.8281091744440903,0.5845680164673668,0.026999133258665875,0.4310344827586228,1
0.502130752121959,0.2632848114817521,0.8284776053920879,0.5932746566258839,0.02429971239946649,0.4310344827586228,1
0.5016177263414102,0.2616463308718697,0.8281562222387671,0.5952973271288359,0.025199519352532812,0.4310344827586228,1
0.5021590741660772,0.26165058822510123,0.8283756825097781,0.5821168935983255,0.024299712399466183,0.4482758620689786,1
0.5015876009053702,0.26247120262235424,0.828591335869528,0.5982984450869958,0.025199519352533034,0.44827586206896797,1
0.5021909822805721,0.26058319022969834,0.8291108633860611,0.5919235870982531,0.02609932630559955,0.44827586206896797,1
0.5015538169796808,0.26143208369086335,0.8278549962531838,0.5876502570127401,0.02429971239946649,0.44827586206896797,1
0.5022268113044754,0.26045571028060815,0.8286792812026196,0.5970102701413308,0.024299712399466405,0.4482758620689502,1
0.5015157135130769,0.2603367041856603,0.827950836390567,0.5940485355876113,0.025199519352533034,0.44827586206895376,1
0.5022674741256934,0.26068872858027436,0.8286412155053064,0.5823445138395653,0.025199519352532923,0.44827586206895376,1
0.5014721480252213,0.26136838413797314,0.8279658695623634,0.59693240443148,0.02519951935253295,0.44827586206895376,1
0.5023143525994029,0.2605722778052024,0.8286399166063185,0.5887717470544173,0.026099326305599274,0.4482758620689644,1
0.5014214647824696,0.2614423626247135,0.8279552458610966,0.5876412549833459,0.024299712399466294,0.44827586206895376,1
0.5023694356211761,0.26051000614939435,0.8286667150743203,0.594352976504526,0.02519951935253248,0.44827586206895376,1
0.5013612514516351,0.2614993750965544,0.8278881206432573,0.590468302344992,0.024299712399466072,0.44827586206895376,1
0.5024356943655488,0.2604584064053636,0.8294682641952551,0.5859143437308805,0.026099326305599413,0.4137931034482598,1
0.5012877695715481,0.26153730872143954,0.8280845678479932,0.5997643921291663,0.025199519352533034,0.4137931034482598,1
0.5025179723558595,0.26048364623705333,0.8285954522255661,0.5825652268683276,0.025199519352532923,0.4137931034482598,1
0.5011944811670777,0.26274942065869084,0.8279721715872775,0.5932003679868686,0.025199519352532812,0.4137931034482598,1
0.502625639100406,0.2601206068335915,0.8286627656184,0.5929762291037505,0.02429971239946621,0.4310344827586263,1
0.5010666701322013,0.2618617527708112,0.8279043931508988,0.5856330252581629,0.026999133258665958,0.43103448275861567,1
0.5027855202848,0.2600772476127475,0.8287505960314763,0.5927055037702388,0.025199519352532812,0.43103448275861567,1
0.5008404494139158,0.2619661318629342,0.8277570022813091,0.5959125449904198,0.025199519352532923,0.43103448275861567,1
0.5032887732534828,0.25993879376328477,0.8292389628696344,0.5817207485242771,0.024299712399466183,0.43103448275861567,1
0.5016437607949712,0.26213746524979975,0.8284278737305889,0.5985953131193122,0.025199519352533034,0.4310344827586228,1
0.5027906934313827,0.25972709327484667,0.828582171963357,0.5885628722498669,0.024299712399466267,0.4310344827586228,1
0.5007710502766631,0.26240797524850074,0.827895554104925,0.5885404448372012,0.025199519352532618,0.4310344827586228,1
0.5031217217839283,0.2593434954198671,0.8288090509613512,0.592044207168288,0.026099326305599413,0.4310344827586121,1
0.5009532598276198,0.26339491924507963,0.8276811598585292,0.5938763984990133,0.02519951935253295,0.43103448275860146,1
0.5044089878604217,0.2606266891187777,0.82907262781589,0.5805822358149763,0.025199519352532812,0.43103448275860146,1
0.49911998311425654,0.2632383741029266,0.8273037256761921,0.6018128534430672,0.02519951935253295,0.43103448275860146,1
0.5060833071158728,0.258164423795316,0.8297192289599545,0.5828037375920597,0.02609932630559958,0.4482758620689573,1
0.5043338611667054,0.2653263869507394,0.8256367599870971,0.5945268916682277,0.02609932630559958,0.4482758620689644,1
0.520443643581627,0.2547931057833711,0.829751285972713,0.5904942589132535,0.02519951935253323,0.4482758620689573,1
0.5310819757717538,0.2596365945765008,0.8435254277643431,0.5928519917401782,0.023399201922589763,0.4482758620689573,1
0.531142791544694,0.2867963273217067,0.7740842515842806,0.5796949901438342,0.025199519352532923,0.4310344827586263,1
0.5484872008845676,0.3651534202673122,0.8276668132521405,0.6028908030877141,0.024299712399466655,0.43103448275861567,1
0.5492710088542399,0.27494862343320914,0.8101906722430474,0.5469357345939305,0.026999133258666014,0.43103448275861567,1
0.5510626133571714,0.24011636257840113,0.8001919549584875,0.6716599518884466,0.027899643735542656,0.43103448275861567,1
0.5111822922653286,0.25432291631976656,0.8148226366401347,0.7243097551940252,0.029699257641675275,0.43103448275860146,1
0.5079352882578402,0.24112062616094646,0.8242483819826779,0.5530916740128171,0.03239938202468509,0.4310344827585979,1
0.4898125407881571,0.24894292202633345,0.8278261425646553,0.646752874850481,0.03059906459474221,0.4310344827585979,1
0.4829776595115807,0.23173769047571915,0.8289820220834123,0.5981749705096603,0.031499575071618546,0.4310344827585979,1
0.46428634520915535,0.22694768041617594,0.8346037735516492,0.48163370935075017,0.03059906459474221,0.4137931034482669,1
0.42947753933998634,0.20608931931223634,0.8362087321867251,0.517294026732094,0.029699257641675664,0.41379310344825626,1
0.3971378550123735,0.17502936970484106,0.8255293845072038,0.598648981003832,0.030599064594742126,0.41379310344825626,1
0.4130234099362191,0.1919984327966182,0.8322284596835023,0.5236541667758386,0.030599064594742098,0.41379310344825626,1
0.4435386351152002,0.2554874102475288,0.8508111284090945,0.5404228977536009,0.031499575071618935,0.43103448275860146,1
0.4482989975673857,0.2968583001841316,0.8668348909437673,0.5984445690603677,0.033299188977752026,0.43103448275860856,1
0.4495422365579132,0.3187423491181438,0.8682961097513555,0.5594889212706466,0.032399382024685286,0.43103448275860146,1
0.4520212622637507,0.32896235893887227,0.8732907837713488,0.6571499449380462,0.033299188977751665,0.43103448275860146,1
0.45126833110781706,0.3373717928877805,0.8755084050478819,0.7100200053450326,0.032399382024685286,0.4482758620689573,1
0.4555220538932325,0.32803484590503185,0.8683960387998653,0.486494975753369,0.033299188977752,0.4482758620689502,1
0.45256419396726144,0.3205719646807296,0.8694879436316785,0.5214053636573662,0.03329918897775183,0.4482758620689502,1
0.4570759881434015,0.3138669287203667,0.8659857599270699,0.5642002861523971,0.033299188977751804,0.4482758620689502,1
0.4470689588685553,0.3055632494850793,0.8653674776557284,0.6029564159215366,0.03239938202468498,0.43103448275860146,1
0.4465381180781612,0.31570103800316207,0.8723895828845469,0.5761227813922899,0.03239938202468537,0.43103448275860146,1
0.4452662771571215,0.31495747094914767,0.8706456869175854,0.6312727561793898,0.03419899593081799,0.43103448275860146,1
0.4444181048884147,0.3042911259264597,0.8666274616342484,0.6101850303853619,0.032399382024685064,0.43103448275860146,1
0.44868156559444555,0.3125051258113304,0.8695263893846304,0.6091472587965333,0.0323993820246854,0.44827586206895376,1
0.4556937097490544,0.30954152868829854,0.8657952504375244,0.6364064031914974,0.03419899593081799,0.4482758620689431,1
0.46067376433572366,0.31594213593997,0.86526759082309,0.5746390520799997,0.02879945068860873,0.4482758620689431,1
0.4637310874675361,0.3195185718110969,0.8648229641630183,0.5762862391499811,0.03509950640769477,0.4482758620689431,1
0.46091924669434237,0.32146080357122986,0.8670118103469735,0.6186267707612685,0.030599064594742015,0.43103448275860856,1
0.45735554237804465,0.3163593771215384,0.8653940330949209,0.5810794210453651,0.03509950640769499,0.43103448275860856,1
0.45340526036027234,0.313897182555474,0.8663741274439751,0.6049100390171075,0.03329918897775172,0.43103448275860856,1
0.4534109288569931,0.3085922664828296,0.8664770141010378,0.6076473685536893,0.03419899593081829,0.4310344827586121,1
0.45099352826355754,0.31369708524431256,0.8680131295659047,0.5805096717959295,0.033299188977751804,0.44827586206896797,1
0.4536697677513183,0.31414181661322615,0.8676867101318455,0.5968193569175007,0.033299188977751804,0.4482758620689573,1
0.4559642110614519,0.3214314358744742,0.867012964689307,0.5960677080980875,0.034198995930818016,0.4482758620689573,1
0.45785673289543627,0.3236693360408386,0.8687204356159561,0.5716791081083809,0.03419899593081821,0.4482758620689573,1
0.45818413698986193,0.32421754411150305,0.8691147808129812,0.614256592336227,0.03419899593081799,0.4482758620689502,1
0.4545672828773292,0.3160044345841906,0.8687170909649073,0.5951102035934155,0.03329918897775175,0.44827586206895376,1
0.4465308185361033,0.31513825269986206,0.87027020019511,0.5807351777618648,0.03419899593081818,0.44827586206895376,1
0.44716010962573627,0.31020293994726594,0.8676489110329204,0.6075639810409404,0.03509950640769477,0.44827586206895376,1
0.44724454711927997,0.31696870771391894,0.8704493954977276,0.5926041383170841,0.035099506407694686,0.4482758620689822,1
0.44870494058010857,0.30795031141086915,0.866812174675184,0.5755591304976108,0.03419899593081832,0.4482758620689751,1
0.45240550136481067,0.31263987439781327,0.8678157052993221,0.5994916184288502,0.03419899593081799,0.4482758620689751,1
0.4581666331611903,0.31903174352744246,0.866576094466537,0.5782517468858964,0.03329918897775161,0.4482758620689751,1
0.4608839150611509,0.3260759810391677,0.8679224334287854,0.5727199800570312,0.0350995064076948,0.4482758620689431,1
0.4622561525859119,0.32048420102854863,0.8658657918616965,0.6013837426168527,0.03419899593081829,0.4482758620689431,1
0.4616141811163841,0.325349491075017,0.8667602013481293,0.6029714004694062,0.035099506407694964,0.4482758620689431,1
0.4572097206626375,0.31362754157799594,0.866452076238855,0.5888026159518861,0.0350995064076948,0.4482758620689431,1
0.4546620414478749,0.31352883652624486,0.8661712258134704,0.6078739093184952,0.033299188977751554,0.46551724137929185,1
0.463429909256974,0.3227077291593071,0.8667526685271868,0.5821580607383041,0.03599931336076151,0.4655172413792812,1
0.46510361755285495,0.3317311645296978,0.8685446381309192,0.5751289546167736,0.0350995064076946,0.4655172413792812,1
0.47037700299436636,0.3238654677845981,0.8639060356000159,0.5990653132006221,0.03509950640769488,0.4655172413792812,1
0.47212944961698944,0.31196969382939577,0.8587133609067744,0.592673304787715,0.03509950640769477,0.4482758620689502,1
0.477804612544782,0.31323498220611706,0.859785441289907,0.5957275419556873,0.035099506407694825,0.4482758620689573,1
0.482669464346462,0.31105576947890035,0.8537205583630689,0.6054920445504478,0.03419899593081821,0.4482758620689573,1
0.48399397615065587,0.30473986470095515,0.8555819429355024,0.5694217140245853,0.03509950640769477,0.4482758620689573,1
0.4819235749801298,0.29900096809961463,0.8506821074291074,0.5865550626549776,0.034198995930817905,0.46551724137929895,1
0.48599363507686744,0.2938107583748241,0.8505045568691659,0.5977167297293754,0.036899120313827694,0.46551724137929185,1
0.48718084257100736,0.2945562077472884,0.8490218412589106,0.581588439103254,0.0350995064076946,0.46551724137929185,1
0.4883932465663058,0.29541136333844964,0.8490833648034795,0.587733405534334,0.0350995064076948,0.46551724137929185,1
0.4906133005198281,0.2949723632989441,0.8485786696964683,0.5917654224587825,0.0350995064076948,0.4482758620689431,1
0.49172231667231237,0.2949152699135362,0.8480818053813608,0.5880440451222181,0.03509950640769488,0.4482758620689431,1
0.49476781832233807,0.29180871079948123,0.8462482438132173,0.6082227454799113,0.035999313360761426,0.4482758620689431,1
0.4962327229030392,0.28136428727512264,0.8381648752186925,0.5870138954603346,0.03509950640769477,0.4482758620689431,1
0.4974222385285644,0.2787717763544936,0.8373699950602294,0.5952401960215266,0.0350995064076946,0.4482758620689644,1
0.4986870965138883,0.28690129402740255,0.8403337588454396,0.5905320782111121,0.03599931336076137,0.44827586206895376,1
0.49815473808061095,0.2993404170317082,0.844215864369888,0.5877567137933972,0.03419899593081821,0.44827586206895376,1
0.5011748315139208,0.3127519829040766,0.8470270294979113,0.5957763724206128,0.0350995064076948,0.44827586206895376,1
0.4959440075394308,0.322102904920183,0.8507929944142087,0.5858370177175403,0.03419899593081793,0.4482758620689751,1
0.48861832974124486,0.32076090848721794,0.8555626053530317,0.5937848716948136,0.03509950640769488,0.4482758620689786,1
0.48391621993362116,0.318675650679196,0.8559543721089768,0.5977771856588607,0.03599931336076137,0.4482758620689786,1
0.47833959555699374,0.31855677159511525,0.8584102369606178,0.5911211567371681,0.035999313360761426,0.4482758620689786,1
0.47900771027758215,0.32103488223367244,0.85648960200913,0.5964681275781072,0.0350995064076948,0.44827586206896797,1
0.4867825389923389,0.31762021956816644,0.8563225227365896,0.58199628471552,0.03599931336076151,0.4482758620689573,1
0.4852438904549514,0.31695627164715146,0.8543219103413568,0.5842596699318694,0.03509950640769441,0.4482758620689573,1
0.49372424717371316,0.32206392899906267,0.854376457118917,0.5685982789297852,0.03419899593081807,0.4482758620689573,1
0.49280551049117205,0.31706447665378723,0.8501562772922964,0.5838073377032083,0.03239938202468526,0.4310344827586121,1
0.49560140662187235,0.31912799297980976,0.8514408546184429,0.5731116949734826,0.0350995064076948,0.4310344827586121,1
0.49017226169002137,0.3257737225456154,0.8542050841369752,0.5906957911771288,0.033299188977751915,0.43103448275860856,1
0.49304103823093837,0.329044341950551,0.8557716405289071,0.5998611111673277,0.035099506407694964,0.4310344827586121,1
0.4931407848021064,0.32438531979800755,0.8533213397427127,0.5632543487712739,0.03329918897775183,0.4655172413793096,1
0.4962851897911316,0.3233597870816536,0.8507080555105055,0.6468455527838782,0.03329918897775183,0.46551724137929895,1
0.4996256619038835,0.32425939377651447,0.8493480810750398,0.6548092190124087,0.035099506407694575,0.46551724137929895,1
0.503525087989936,0.3205922328230565,0.84877920803752,0.575737609802317,0.03419899593081821,0.46551724137929895,1
0.5022464372104131,0.32331317264037257,0.8491229974607315,0.5683679635591365,0.03599931336076137,0.4655172413793167,1
0.5040491112831595,0.32276319129800846,0.8484531590855402,0.5787685704758434,0.0341989959308181,0.4655172413793167,1
0.5087028002006477,0.32692462646167686,0.8478954379604832,0.5996949118735982,0.0341989959308181,0.4655172413793167,1
0.5101731773916508,0.32136670910215587,0.8471382672818861,0.580703589687341,0.033299188977751804,0.4655172413793167,1
0.5101002008867015,0.3227262060913749,0.8452195386485178,0.5998126341111688,0.03329918897775205,0.4482758620689786,1
0.51094928265495,0.32535552860109473,0.8453012338244013,0.599072320542585,0.03419899593081782,0.44827586206896797,1
0.5093439493371482,0.3242589753239127,0.8454516201605435,0.5880875119764135,0.03509950640769449,0.44827586206896797,1
0.5102383803254003,0.3263289941206712,0.8476145935550565,0.5980225226854129,0.03419899593081829,0.44827586206896797,1
0.5103543781475781,0.3279405164177689,0.8454870362823389,0.5925356289689472,0.03419899593081821,0.4310344827586228,1
0.5118870557737073,0.3266823598030001,0.8467970374427056,0.5851907336322134,0.03329918897775186,0.4310344827586228,1
0.5089584165752468,0.32248785179292394,0.8473631002981845,0.599289906691043,0.03509950640769488,0.4310344827586228,1
0.5106730860588979,0.32105794269622134,0.8466556493004094,0.5787876037358191,0.030599064594742043,0.4310344827586228,1
0.5091776328967519,0.3225183017098065,0.8492961598847371,0.58329294996462,0.03509950640769491,0.44827586206896797,1
0.5059796393706713,0.3232135361404605,0.8487035827479302,0.594916249638884,0.035999313360761426,0.4482758620689573,1
0.5035505693845659,0.3284189649751175,0.8491826419443431,0.5793346772938404,0.032399382024685175,0.4482758620689573,1
0.5126441602062768,0.3256502238456479,0.8484909388367332,0.5879457955738064,0.03419899593081829,0.4482758620689573,1
0.5150775283354002,0.3220226578566674,0.8441188997198555,0.6016494506536603,0.033299188977751915,0.4655172413793096,1
0.5185049163582307,0.32239296581939914,0.8414546266594576,0.5802540073472863,0.03509950640769463,0.4655172413793167,1
0.5172098784272634,0.3219094195959916,0.8433820438920043,0.595028174865536,0.035099506407694964,0.4655172413793167,1
0.5186513252725987,0.32484889844786113,0.8416974210322118,0.5945948606361338,0.035099506407694686,0.4655172413793167,1
0.5172032503762881,0.32246791382486456,0.8424265458386319,0.5851222376394589,0.03509950640769477,0.4655172413793167,1
0.5186468043059007,0.3215466323857915,0.8417425985224567,0.6004542042390112,0.03599931336076129,0.46551724137930606,1
0.5172080327875059,0.321665303708857,0.8424058890364463,0.5958524657279698,0.03149957507161846,0.4655172413793096,1
0.5186435774893959,0.3216182903986426,0.8417472285394153,0.5772312592237928,0.03509950640769463,0.46551724137930606,1
0.5172094427886649,0.3215947503584954,0.8424147586249091,0.5960055915698929,0.0350995064076948,0.4827586206896548,1
0.5186439046429331,0.3225997031052732,0.8417233722720456,0.5898682651703917,0.034198995930818266,0.4827586206896548,1
0.5172075244814082,0.3218747326157295,0.8424620571530255,0.5812224069897945,0.03509950640769477,0.4827586206896548,1
0.5186472726969025,0.32146349558137716,0.8416100097299534,0.5972757023110378,0.03419899593081807,0.4827586206896548,1
0.5172028261508942,0.3217788285849673,0.8416135115598535,0.5905610826226332,0.0350995064076948,0.48275862068965125,1
0.5186532057333013,0.32149240382062916,0.8417488153603342,0.5818800445477135,0.0350995064076948,0.4827586206896406,1
0.517195732386367,0.32176601101678126,0.8425391041087688,0.6002206295390994,0.035099506407694686,0.4827586206896477,1
0.5186614047097586,0.3214992136231377,0.8404360754400183,0.5870392433831076,0.03329918897775194,0.4827586206896406,1
0.5171864681544736,0.321761835844635,0.8419049356257271,0.582432175148637,0.03599931336076129,0.46551724137930606,1
0.5186717074012535,0.32150219247857004,0.8409702315105418,0.5992915254267565,0.035099506407694686,0.46551724137930606,1
0.5171751425097506,0.32175932730874657,0.8412216129328913,0.5944228974800896,0.035099506407694575,0.46551724137930606,1
0.5186840504042622,0.32150467634743507,0.8420877945741667,0.5813272971917663,0.035099506407694686,0.46551724137930606,1
0.5171617787350334,0.3217564916805684,0.8423043388561426,0.6004944168489668,0.032399382024685175,0.4482758620689751,1
0.5186984469906167,0.32150834730206634,0.8405952026795434,0.5935590973364898,0.03599931336076109,0.4482758620689644,1
0.5171463283572282,0.3217511159664064,0.840811665080251,0.5823985074174863,0.034198995930818016,0.4482758620689644,1
0.5187149825166473,0.3215173405293128,0.8420450348280927,0.5952982029462296,0.035099506407694686,0.4482758620689644,1
0.5171286624191046,0.3217335923360881,0.8421415947577011,0.6001290810670755,0.0350995064076948,0.46551724137929185,1
0.5187338458604653,0.3215587294490711,0.841979600345842,0.5789027117352726,0.035099506407694686,0.46551724137929185,1
0.5171084956318615,0.3216003430616497,0.8406266631895453,0.5922423568719363,0.03509950640769488,0.46551724137929185,1
0.5187555011075318,0.32273924049648495,0.8417215655167505,0.6008207017238635,0.03599931336076165,0.46551724137929185,1
0.5170849890838672,0.32398181095345047,0.8423532223844279,0.5867364579260271,0.03599931336076109,0.4999999999999929,1
0.5187816707818738,0.32226870847217887,0.8418024151838455,0.5823780983962661,0.035099506407694686,0.49999999999998224,1
0.5170540311813113,0.32439502890716954,0.8423638072429116,0.6019609457373514,0.034198995930818016,0.49999999999998224,1
0.5188243390522523,0.32329376588936704,0.841773572271804,0.5905091045243833,0.03419899593081813,0.49999999999998224,1
0.5169663173860761,0.32342865945932586,0.8424003783889029,0.5854605648914821,0.03509950640769463,0.4827586206896406,1
0.520564232293187,0.3281948835373723,0.8417317486165354,0.5962530995348979,0.035099506407694964,0.4827586206896406,1
0.5209021378193055,0.32925791935670856,0.8424473845491742,0.5938815205887996,0.035099506407694825,0.4827586206896406,1
0.5210752071255398,0.33018970893422056,0.8416777405129285,0.5775098130753296,0.03419899593081813,0.4827586206896406,1
0.5202327806675814,0.3303106937905268,0.8425150782869029,0.599169400031952,0.035999313360761453,0.4827586206896406,1
0.5257189242398692,0.330297823626057,0.8415589887521271,0.5962566167303691,0.03509950640769463,0.4827586206896335,1
0.5216631752818806,0.33029261983442204,0.8416431571056515,0.5828719202401075,0.035099506407694575,0.4827586206896335,1
0.5233941271573803,0.33026955254902846,0.8417957274541201,0.5884363454560563,0.0323993820246849,0.4827586206896335,1
0.5207250374381531,0.3304136232908438,0.8419839760546945,0.6001330235430716,0.03599931336076126,0.4827586206896406,1
0.5229523195168164,0.32933056398798266,0.8407697703166707,0.5802182524559764,0.03599931336076154,0.4827586206896406,1
0.5171440144137129,0.32756003389353755,0.8415221750632309,0.5922673060563246,0.035099506407694686,0.4827586206896406,1
0.5204300372347002,0.3242385481333243,0.8386131884062855,0.5975446442540209,0.03689912031382772,0.4827586206896406,1
0.5179353461607841,0.32045018199865694,0.841037544682228,0.5859829437261108,0.035099506407694825,0.4655172413793167,1
0.5218310512194366,0.3230016347863185,0.8374647809428889,0.584886248596044,0.03779892726689446,0.4655172413793096,1
0.5161884097871572,0.32499976903096406,0.8415522910614832,0.6029360104503778,0.03599931336076126,0.4655172413793096,1
0.5210410640098241,0.32752953647250044,0.8411102170336728,0.5850687987607951,0.03599931336076129,0.4655172413793096,1
0.5180888793645294,0.3252899476384745,0.8413104484649412,0.5854698376035067,0.03599931336076126,0.46551724137929185,1
0.5190748633045833,0.32776435209689964,0.8413068657233805,0.5979194210759646,0.036899120313827916,0.46551724137929185,1
0.5175395619569052,0.3303716218189682,0.8431076801279076,0.5981211302469328,0.037798927266894294,0.46551724137929185,1
0.5228856573846753,0.33057553317318,0.8396329186192393,0.5796522020017428,0.03689912031382783,0.46551724137929185,1
0.519525382914656,0.329783055736354,0.8429051770644813,0.5984526487575685,0.03689912031382783,0.4482758620689751,1
0.5249897328232365,0.3310231915073013,0.8405624511028296,0.5957429491908056,0.03599931336076126,0.4482758620689644,1
0.520174924114598,0.3293169164202805,0.8439466199731462,0.5851494080941191,0.0368991203138275,0.4482758620689644,1
0.5237889198686876,0.331590796891315,0.8397827247739372,0.589405148356123,0.03689912031382783,0.4482758620689644,1
0.5188427561681456,0.3285392505125164,0.8438521531334039,0.6051486183059475,0.035999313360761065,0.46551724137930606,1
0.5205316419154493,0.3328332131824945,0.8390043740397379,0.5783800884209568,0.03599931336076151,0.46551724137930606,1
0.5151648309362202,0.3215437194273135,0.8458190325396253,0.5866640110369733,0.036899120313827805,0.46551724137930606,1
0.5208382046822562,0.32748021571596825,0.8427777697600121,0.5983360016850745,0.03599931336076126,0.46551724137930606,1
0.4843579103260557,0.32440207280948546,0.8669350747122562,0.5943157550305477,0.035999313360761176,0.4655172413793096,1
0.5021810367973495,0.35409954757383083,0.8758066454898348,0.5735251198024346,0.03689912031382783,0.46551724137929895,1
0.48687572261330864,0.4084148534103461,0.8955044284218753,0.5989430344354848,0.036899120313828,0.46551724137929895,1
0.747691837925343,0.6055745766093192,0.7334375190936555,0.6122812376002051,0.03599931336076129,0.46551724137929895,1
0.47764616523770514,0.8253351693163595,0.5084986292011688,0.6405455465068842,0.031499575071618546,0.46551724137930606,1
0.43200489396536773,0.9304642838458437,0.5908969608840974,0.6674463325692575,0.023399201922589957,0.46551724137930606,1
0.4913293685542739,0.9903245739247416,0.5339182705183343,0.5933547547048345,0.025199519352532534,0.46551724137930606,1
0.4118240902145431,0.9439749077563421,0.5935498146952418,0.32337113145410956,0.022499394969523245,0.46551724137930606,1
0.4772552451886997,0.9772896110700784,0.5515496230470667,0.5696917810905958,0.024299712399466405,0.4655172413793167,1
0.4971210390603578,0.9389488852017072,0.5547342812889665,0.5793530110502016,0.023399201922589846,0.46551724137930606,1
0.5033756533028549,0.9543223355332251,0.4985156161801844,0.7196080171221924,0.019799270586513568,0.46551724137930606,1
0.4921955208979465,0.9510256451675455,0.47834589224009294,0.691980409500724,0.022499394969523245,0.46551724137930606,1
0.5196626621016138,0.9589826155486327,0.46798953190407583,0.5163462599521909,0.02429971239946649,0.4655172413793096,1
0.49751865255720384,0.9314821451239025,0.4877282718411423,0.6379971135600984,0.021599588016456783,0.4655172413793096,1
0.5316033353491167,0.9389261490788164,0.48284153761329507,0.4906227477631654,0.023399201922589707,0.4655172413793096,1
0.49643712731855744,0.9108258332988646,0.48504908858423584,0.6393890545548921,0.02339920192258957,0.4655172413793096,1
0.5386394613064742,0.8116345964272634,0.5458927128872793,0.5861833700735396,0.0242997123994661,0.48275862068965836,1
0.5419698203815638,0.4867003590087197,0.9133113346453012,0.7190635237122073,0.018899463633447217,0.48275862068965125,1
0.4410983249336029,0.3467371143588704,0.9001151877948785,0.5039388839175777,0.029699257641675664,0.48275862068965125,1
0.48545350403450493,0.3361906874629993,0.8767530259542297,0.5135920645691294,0.03419899593081813,0.48275862068965125,1
0.49425014683836777,0.3140983316191951,0.854033976562415,0.5157851295352287,0.03419899593081807,0.46551724137929895,1
0.5041865695369192,0.3118958726794624,0.8470087275474059,0.7732249575150031,0.035999313360761426,0.46551724137930606,1
0.5033109495552388,0.31130795337468953,0.8474827733887885,0.4952770509027987,0.034198995930818266,0.46551724137930606,1
0.5052509501734025,0.31392369032036305,0.8470829267955167,0.5192341488488786,0.03419899593081813,0.46551724137930606,1
0.501426971702568,0.31257749778246724,0.8481617474815272,0.6567369851966864,0.03419899593081813,0.4655172413793167,1
0.5045608439894274,0.31661815299397467,0.8465297467040898,0.6469425294037126,0.03419899593081818,0.4655172413793096,1
0.5078820515368982,0.318074254334732,0.8445657094121743,0.5859760935968581,0.03149957507161824,0.4655172413793096,1
0.5223830534917483,0.32080632099885054,0.8397223975740364,0.5684330230159937,0.03149957507161852,0.4655172413793096,1
0.5135471976246084,0.31413601817956116,0.8369589491120055,0.557061756317524,0.03599931336076137,0.4482758620689573,1
0.5288419628281811,0.31224076445129717,0.8318956173015821,0.5465311125495081,0.03509950640769488,0.4482758620689573,1
0.5347138776697165,0.31497873873208504,0.8277950466256432,0.586642547086271,0.033299188977751554,0.4482758620689573,1
0.5422756597891143,0.31535015454540005,0.8257887007018234,0.6181528241061991,0.03419899593081821,0.4482758620689573,1
0.5417877827254138,0.3144157482117157,0.8231728103308921,0.599903572358761,0.0341989959308181,0.46551724137930606,1
0.5465514698411014,0.3144947419117943,0.8241787765837975,0.5730115522705859,0.035999313360761426,0.46551724137929185,1
0.5419611646471507,0.3120591124831274,0.8205393582839475,0.6186316429258514,0.03599931336076109,0.46551724137929185,1
0.5478129562608591,0.3123831870531971,0.8221229037424639,0.6174568501966686,0.0341989959308181,0.46551724137929185,1
0.5462842992089285,0.3128646371512923,0.8207475116828808,0.5954528824457942,0.034198995930818016,0.4827586206896548,1
0.5460272210171118,0.31309863528926196,0.8221285005692434,0.6233681684522359,0.03239938202468509,0.48275862068965836,1
0.5440930675251496,0.314288612096591,0.8224892459805584,0.6016105012668386,0.03419899593081813,0.48275862068965836,1
0.5454620982708254,0.3193824192219803,0.8247980716391712,0.5859928753042536,0.03419899593081799,0.48275862068965836,1
0.5452846244952481,0.3221271851615122,0.8219647060590727,0.6028903970232354,0.035099506407694686,0.48275862068965836,1
0.5480210648684911,0.3213350262510214,0.8229336510220514,0.6031671464667627,0.035099506407694686,0.48275862068965125,1
0.5462759073787021,0.32186585879488905,0.8221896065396608,0.5828675230378827,0.0341989959308181,0.48275862068965125,1
0.5498716354790351,0.3214214522447093,0.8244050234124587,0.6014486503489728,0.03509950640769488,0.48275862068965125,1
0.5495756605833803,0.32183078265288956,0.8208437604798873,0.5898771485653003,0.03509950640769499,0.4827586206896335,1
0.5485125783144225,0.3214362797923876,0.8238792519761944,0.5786045498939489,0.03599931336076137,0.4827586206896335,1
0.5495353802471012,0.32182479712068424,0.8216412503018662,0.5908732403637968,0.034198995930818404,0.4827586206896335,1
0.5506564393480005,0.32143866540654803,0.8217101053169563,0.5956838326315061,0.03509950640769477,0.4827586206896335,1
0.5492161947211966,0.32182309024203,0.8210255921118439,0.5771466862835009,0.03329918897775183,0.48275862068965836,1
0.5512105466482803,0.3214417275285204,0.8218382217248887,0.5957749772507641,0.03419899593081846,0.48275862068965125,1
0.5498974389276381,0.32181681425922903,0.8209713623503145,0.5964712234093204,0.035099506407694825,0.48275862068965125,1
0.5522161279359574,0.32145344983715274,0.8218684508867906,0.5796423035674045,0.03509950640769477,0.48275862068965125,1
0.5513515081718756,0.32179630876591425,0.8209514668306268,0.592937421024667,0.03599931336076104,0.4827586206896406,1
0.5512003804113136,0.32148863656579096,0.8218831786619729,0.5982875696099339,0.035099506407694686,0.4827586206896335,1
0.5493400083080029,0.32173420872033587,0.8209395530467587,0.5810044599181589,0.03419899593081813,0.4827586206896335,1
0.5507608883205544,0.3216088616701048,0.8218934981347343,0.5932391700242036,0.035099506407694575,0.4827586206896335,1
0.5491236496712357,0.3214425221281592,0.8209301294073875,0.5974365574114167,0.03599931336076134,0.49999999999998934,1
0.551490079822673,0.3231285050660217,0.8219024622136859,0.5803232926868092,0.03689912031382783,0.49999999999997513,1
0.5513088366128064,0.32780032142586735,0.8209213285985706,0.5884039465567962,0.035099506407694714,0.49999999999997513,1
0.5540597570247456,0.32761318076846174,0.8219113193938004,0.5952229759176558,0.034198995930818266,0.49999999999997513,1
0.5540041227281072,0.3300463797834626,0.8209122359961167,0.5790924726291831,0.035999313360761565,0.4827586206896406,1
0.5566696669474969,0.32914262847175424,0.8219208089656195,0.59256847178612,0.035099506407694964,0.4827586206896406,1
0.5571462341828588,0.33097068000652574,0.8209021879452194,0.596910396266858,0.03599931336076129,0.4827586206896406,1
0.5579608872315334,0.32977687154943947,0.8219315934833278,0.580483790426898,0.0350995064076946,0.4827586206896406,1
0.5562999531739411,0.32987215752466614,0.8208904527011571,0.5942759207688363,0.035099506407694964,0.4827586206896406,1
0.5575002393252013,0.3225854068587313,0.8219445588115277,0.5974738190091934,0.03599931336076151,0.4827586206896335,1
0.5562080134376663,0.32270033712623003,0.8208758645483365,0.5789910125316591,0.036899120313828,0.4827586206896335,1
0.5549253545718875,0.3219231872750037,0.8219613659544087,0.5892440019795692,0.03599931336076126,0.4827586206896335,1
0.5516737857240226,0.32356926103193495,0.8208558531487784,0.5998583868722069,0.03419899593081782,0.46551724137929185,1
0.5510364332527928,0.3218052155714941,0.8219863850581633,0.5814073157819927,0.03509950640769488,0.46551724137929185,1
0.5492140425758445,0.3215667847972897,0.8208220556933084,0.5885566314684566,0.034198995930818016,0.46551724137929185,1
0.5508524411976132,0.3243066719555619,0.8220385088021964,0.5989549660879192,0.03599931336076109,0.46551724137929185,1
0.5490964485737895,0.3240137677286836,0.8207181051062236,0.5863178463537232,0.03419899593081838,0.49999999999999645,1
0.5512392167407278,0.3229706512209929,0.8224684109491625,0.5846586740772141,0.035999313360760954,0.49999999999998934,1
0.5500580812905203,0.32194023526699067,0.8214768201512366,0.6012363564541382,0.035999313360761176,0.49999999999998934,1
0.5504927941189484,0.3234225121773339,0.8225107850011433,0.5864228484105314,0.03599931336076123,0.49999999999998934,1
0.5498487649741368,0.32589326291424464,0.8215894425920367,0.5855733088168933,0.03779892726689435,0.4827586206896477,1
0.5515226675118413,0.32501753709391523,0.8223326191128355,0.5990352016567592,0.03599931336076137,0.4827586206896477,1
0.5488914807836489,0.32327038866262514,0.8212429359711999,0.5878628542145719,0.037798927266894156,0.4827586206896477,1
0.5489935646646934,0.322930965349586,0.824387849563224,0.5826790390939093,0.036899120313827916,0.4827586206896477,1
0.5474656628114134,0.32356235281755763,0.823311379659906,0.6047721049338866,0.03689912031382789,0.49999999999999645,1
0.5479025062958875,0.3207217271647934,0.8242225442305076,0.5884008079075346,0.03599931336076129,0.49999999999998934,1
0.5429564753706213,0.3188517029902719,0.824536278280013,0.5815506669949088,0.035999313360761065,0.49999999999998934,1
0.5429870670120169,0.3146772496677801,0.8263138011071032,0.5958357098968766,0.035099506407694825,0.49999999999998934,1
0.5352457894242153,0.31641200707706263,0.828782370752712,0.5949575677592327,0.03599931336076126,0.4827586206896335,1
0.5268921330420038,0.30990874113187133,0.8315513918199351,0.5800582836688558,0.035999313360761426,0.4827586206896335,1
0.5227046571652665,0.2968042091027505,0.8277146690605675,0.5983116048207442,0.03779892726689446,0.4827586206896335,1
0.5352281853437512,0.2927822513581039,0.8290157864769844,0.5859361051792076,0.03599931336076129,0.4827586206896335,1
0.5129498665334575,0.2754671369104924,0.8306061505053726,0.587193475081048,0.03599931336076126,0.5000000000000071,1
0.4759124128293932,0.21688795482572862,0.8250664114289168,0.5930392369753904,0.036899120313827694,0.49999999999999645,1
0.41126475893466763,0.13020186240088993,0.7968585707462457,0.5915114698936146,0.037798927266894156,0.4999999999999929,1
0.3442186976825416,0.09130999663869405,0.7903389632661091,0.5853020544473989,0.03869943774377099,0.49999999999999645,1
0.3381611088588489,0.11132581805139596,0.8047653547325355,0.6271383558667722,0.03869943774377099,0.4827586206896335,1
0.39165628003950514,0.1538837043845282,0.8218632895533362,0.649686042942449,0.04049905164990411,0.4827586206896335,1
0.44084584570635577,0.2474503262682988,0.8446384955801275,0.7763523091741409,0.03869943774377088,0.4827586206896335,1
0.5289850555570379,0.2894645296444258,0.8361475864917987,0.45831902610059905,0.03869943774377099,0.4827586206896335,1
0.4752681429509022,0.3148662130933506,0.8564823051427821,0.4987272478101397,0.03869943774377088,0.4827586206896335,1
0.5363642252510936,0.3048183019765568,0.863128542415999,0.48191420862019624,0.03959924469683765,0.4827586206896264,1
0.4280305766483836,0.31736201253770213,0.826174919323873,0.4598249705567707,0.03779892726689427,0.4827586206896264,1
0.462080228273729,0.2733405751335319,0.8682083121975834,0.7743301768556091,0.03779892726689435,0.4827586206896264,1
0.5404291859036734,0.27197520082889504,0.827448649477664,0.8221483669448311,0.03779892726689435,0.46551724137930606,1
0.5164126743575279,0.2855615111152486,0.8230189999846484,0.2981088739219598,0.03599931336076137,0.4655172413793167,1
0.5412413926347963,0.276065706730334,0.8194940286963782,0.6053519518450661,0.03779892726689424,0.4655172413793167,1
0.5370581392940446,0.28668203235654394,0.8188209085849159,0.6079666734166422,0.03509950640769477,0.4655172413793167,1
0.5460134765069166,0.2863076763409946,0.8157976535050564,0.48848070778110053,0.0377989272668941,0.4999999999999929,1
0.5387021923696891,0.28766266572736726,0.8143907477305918,0.6201896329091817,0.03689912031382764,0.49999999999998224,1
0.5446683741215982,0.2862445745267706,0.814405907425204,0.5545766535061073,0.033299188977751415,0.49999999999998224,1
0.5401956592303132,0.28913315115333,0.8152518012584992,0.6033907029105566,0.03689912031382783,0.49999999999998224,1
0.5476532871594642,0.29198879795137467,0.8158350804708235,0.6421898927091165,0.03599931336076123,0.4827586206896335,1
0.5439104343802625,0.2958591518362934,0.8180872911492971,0.6008560774956815,0.037798927266894544,0.4827586206896335,1
0.5496004305916985,0.29407137675414485,0.8145004843138535,0.6012332557217483,0.032399382024685175,0.4827586206896335,1
0.5497518918488744,0.29561486039309737,0.8176477031481046,0.6355219472294432,0.03779892726689446,0.4827586206896335,1
0.5415401409769625,0.28535707271081867,0.8177159331732401,0.5905965897797206,0.03689912031382772,0.48275862068966546,1
0.5318602216012904,0.29569743717505764,0.8224277756706198,0.6121037141336106,0.03599931336076126,0.4827586206896548,1
0.5458273484208896,0.2841236237795143,0.8177815715409513,0.6031156767096063,0.03599931336076134,0.4827586206896548,1
0.5443311756669578,0.2857479362251257,0.8148010268514458,0.5770575578534773,0.03599931336076129,0.4827586206896548,1
0.55012638549735,0.2792556241365457,0.8121529517613422,0.5881639311674308,0.03599931336076098,0.5,1
0.5491451020873315,0.27859155191323276,0.8095937649114311,0.6283405908955121,0.03779892726689446,0.5000000000000071,1
0.5504165157806566,0.2829598462739533,0.8107247198540888,0.5932271881404068,0.035999313360761176,0.5000000000000071,1
0.5484174545490638,0.2755467922265653,0.8111916257909928,0.5932819127899867,0.03599931336076129,0.5000000000000071,1
0.5511175420316159,0.28403099381829805,0.8116357399284622,0.6042192583088372,0.035999313360761426,0.4655172413793096,1
0.5490414634348504,0.28702669245355983,0.813822506327828,0.5896031410041093,0.037798927266894544,0.46551724137929895,1
0.5515204063723901,0.2872443549995449,0.8098517121840423,0.6541042473106874,0.03689912031382736,0.46551724137929895,1
0.5517899190733289,0.2865821897959138,0.8125254385298185,0.6849011707878218,0.0377989272668941,0.46551724137929895,1
0.5517099847052804,0.287472727080617,0.8137454260653716,0.3381257067310533,0.03599931336076129,0.46551724137929895,1
0.5491937555867901,0.28639062847434194,0.813121774301071,0.5756744241522957,0.0350995064076948,0.46551724137929895,1
0.5505491291214636,0.2876923998379981,0.8127207517965518,0.639996037927964,0.036899120313827805,0.46551724137929895,1
0.5505041935134194,0.28606029160167235,0.8148480965005425,0.6098095716769105,0.03509950640769477,0.46551724137929895,1
0.5525138335867477,0.2885052108615049,0.8118697242339992,0.5855154268260063,0.036899120313828,0.49999999999999645,1
0.5556850346946922,0.2887054302433878,0.8148539325354989,0.6042340252138548,0.03689912031382797,0.49999999999998934,1
0.5572692126026919,0.2932747837013021,0.813990740700899,0.5887489490726225,0.03689912031382761,0.49999999999998934,1
0.5542819048280196,0.28918336855146076,0.813656417531162,0.5909056757380273,0.03599931336076126,0.49999999999998934,1
0.5546936174940198,0.28644803696340354,0.8124475460238129,0.5978977808003031,0.035999313360761176,0.4655172413793096,1
0.5537821165365472,0.28714056380194025,0.8104839525255044,0.591054597722699,0.038699437743770854,0.4655172413793096,1
0.5577800453944975,0.28700180845447987,0.8094708386613785,0.5833570055703039,0.03239938202468498,0.4655172413793096,1
0.5541168524048019,0.2868361412688246,0.8089726878576653,0.5990433143635534,0.036899120313827805,0.4655172413793096,1
0.5516738226959239,0.28721245788863337,0.8099424250179932,0.5809096196214311,0.03599931336076151,0.48275862068966546,1
0.5506970261595848,0.28688135228722467,0.8147557794138247,0.5913297943516225,0.0368991203138275,0.4827586206896548,1
0.5554519807469613,0.2938191839130738,0.8124000375420855,0.5940947438417767,0.0359993133607609,0.4827586206896548,1
0.5582682002656862,0.29579553375691703,0.8150511086666006,0.5867406544016321,0.03599931336076123,0.4827586206896548,1
0.5580111878236225,0.2957304981028908,0.8140232009778117,0.5881292061646086,0.03779892726689435,0.46551724137929185,1
0.5580644174515079,0.2954431294868256,0.81370912575162,0.5975031939066848,0.03779892726689449,0.46551724137929185,1
0.5575224330999886,0.2959187491589492,0.8128323060785341,0.5812757408469654,0.03779892726689443,0.46551724137929185,1
0.5571030846300355,0.2953008433713802,0.8145783870263668,0.5982528754174101,0.03689912031382783,0.46551724137929185,1
0.5575201412171094,0.2960499923840459,0.8133196511527379,0.587409850026835,0.036899120313827916,0.48275862068966546,1
0.5577512609822606,0.2951575041300323,0.8136254671184311,0.5847451142736525,0.03869943774377094,0.4827586206896548,1
0.5571426040684107,0.29407734184483353,0.8112473195476089,0.5956558374122772,0.03689912031382772,0.4827586206896548,1
0.5572750989774085,0.2894269600666629,0.8114484117358471,0.5904028056006523,0.036899120313827805,0.4827586206896548,1
0.5568576095573771,0.2870452647171,0.8105340907280035,0.5827244680001543,0.03689912031382775,0.4482758620689573,1
