wrist_ACC_1,wrist_ACC_2,wrist_ACC_3,wrist_BVP_1,wrist_EDA_1,wrist_TEMP_1,label
0.5942520952129348,0.6768448277317464,0.7480181179865388,0.41212139852635016,0.9999999999999999,0.9529411764705848,1
0.7744664524033477,0.42427583597037677,0.7865195856767868,0.4826666765485839,0.9959085669767002,0.9529411764705671,1
0.7144190348228665,0.46281342397435743,0.700953730239479,0.46179414342429104,0.9836349064947588,0.9529411764705795,1
0.6929873133591562,0.4802756426155684,0.7125945587440379,0.5015444922765359,0.9689065139164278,0.9529411764705937,1
0.709845098131753,0.4856218228962005,0.693676724423931,0.3396417556445548,0.9476325948063642,0.9529411764705955,1
0.6502158585079978,0.4785743840002136,0.7782800929041606,0.30687914124037596,0.9492686571453202,0.9529411764705742,1
0.6113735315322235,0.4650709753464245,0.7940860821907298,0.4234027855779678,0.9329042022280336,0.9529411764706062,1
0.6054427981133811,0.4705365126015192,0.802037870107094,0.5080028092159424,0.9844535762521912,0.9529411764705866,1
0.6028729338349076,0.4627424590028021,0.8045823540832371,0.5633178493961526,0.9648157194810835,0.9529411764705831,1
0.6024686596308532,0.46795417371346937,0.809053830875136,0.46129413279258363,0.9574515231919184,0.9588235294117684,1
0.5999111526336308,0.46037334768805405,0.8062658808085845,0.3116741986185585,0.9533600901686196,0.9588235294117613,1
0.6043982932394362,0.46628978486392486,0.8031341697332426,0.3878168628487516,0.9476325948063644,0.9588235294117613,1
0.6036758473229547,0.46034735234648927,0.8009754134580842,0.45500133262538484,0.9427231306135879,0.9588235294117684,1
0.6055035112788509,0.4685430800093854,0.8006588843169069,0.391716476434376,0.9402683985171993,0.9588235294117666,1
0.6050813035926682,0.4616622146872925,0.8002058331836337,0.4562231506007431,0.9345402645669899,0.9588235294117631,1
0.6058606695524013,0.46570105911029114,0.8005173098822712,0.49724526185472623,0.9312675013011226,0.9588235294117542,1
0.6026545381667173,0.45703992776823443,0.801192254612727,0.43899454786956815,0.9279947380352569,0.9588235294117649,1
0.6042294017761138,0.46688467831985847,0.8006072778669221,0.4242494663847087,0.925540005938868,0.9588235294117649,1
0.6065138322742354,0.4584158437508927,0.8003648257205811,0.4463385779286125,0.924721336181436,0.9588235294117791,1
0.6090182643164809,0.4693378680211898,0.8003712680481089,0.41019295384698984,0.931267501301123,0.9588235294117542,1
0.6076258337198472,0.45969085250721936,0.8005383530151424,0.43580823980863265,0.928812769204735,0.9588235294117613,1
0.6061263569455088,0.46970302163772604,0.8002218256479738,0.4778584134005379,0.9263580371083462,0.9588235294117613,1
0.6060692754858465,0.46303336761717595,0.8006475058446518,0.41007825673914117,0.9239033050119583,0.9588235294117649,1
0.6048199620234023,0.4664065497312683,0.8009011590918624,0.4198990851896102,0.9206305417460913,0.958823529411756,1
0.6049658046179854,0.45951700290343567,0.8010713061382924,0.4461182177306759,0.9189938408191809,0.9588235294117702,1
0.6059220699723847,0.4660336315310379,0.7997096150980143,0.42215453583642537,0.9157210775533147,0.9588235294117613,1
0.6050096973203265,0.4592330492129493,0.8012581101313043,0.44122836236169366,0.9149024077958822,0.9588235294117613,1
0.6058523825638624,0.46490107895909205,0.7992644569906424,0.43279479011794025,0.9116296445300152,0.9588235294117613,1
0.6051168693664697,0.4551384746637116,0.7997894935871066,0.41460448725225185,0.910811613360538,0.9588235294117791,1
0.6057220003574243,0.46481850155107096,0.7968368024716964,0.46361522517215786,0.9116296445300155,0.9529411764705831,1
0.6117540687150934,0.4572345497701549,0.7941240358138553,0.43137371861204665,0.910811613360537,0.9529411764705706,1
0.6125099382825138,0.4643464521708325,0.7928686398085723,0.42574764352771577,0.9091749124336267,0.9529411764705866,1
0.6047910487098672,0.45306990842602357,0.7972404418900763,0.4581870818824511,0.9083568812641495,0.9529411764705955,1
0.6065614159123776,0.4640144444758951,0.795846269764847,0.4324481021491267,0.9083568812641492,0.9529411764705831,1
0.6095947882588453,0.45747066634791816,0.7979868089738883,0.4338412200972494,0.9009926849749843,0.9529411764706026,1
0.6106352273940793,0.46770477434714447,0.7946277618905712,0.3902463316839901,0.8985379528785945,0.9529411764705831,1
0.610216316633148,0.4574268633547399,0.7956637522124835,0.395951600074228,0.896083220782207,0.9529411764705973,1
0.6140272498673424,0.4680944283807177,0.7920787714665398,0.5116758928051611,0.8944465198552961,0.9617647058823486,1
0.6123246518661448,0.4554282751917327,0.7940729196131688,0.49678556303404503,0.89281045751634,0.9617647058823486,1
0.6145627799452383,0.4679093091385088,0.7902380305192882,0.41012091528425404,0.8911737565894291,0.9617647058823486,1
0.6141977692190485,0.45720332704696576,0.7940801207955528,0.4241544465409539,0.890355086831997,0.961764705882354,1
0.6111454131623005,0.46926164013310423,0.7930763186650912,0.40506326662694797,0.8879003547356088,0.9588235294117577,1
0.6076304949137923,0.4559886612956846,0.8002841185827667,0.4681206302968425,0.8879003547356088,0.958823529411756,1
0.6039934091374056,0.4678869468256155,0.7992578769227956,0.42242209306480544,0.8862642923966528,0.9588235294117684,1
0.6022487912675237,0.4520079690270402,0.8031222150197133,0.425581460782494,0.8838095603002646,0.9588235294117542,1
0.6019700000350252,0.46400865538187297,0.799073141843373,0.42729053049865207,0.8805367970343975,0.9529411764705831,1
0.6061632340292588,0.4523646398032236,0.8029540365580703,0.4215730033562946,0.8789000961074872,0.9529411764705902,1
0.6032988547425316,0.4630775989777929,0.7941611666585222,0.434557139611585,0.8756266942536665,0.9529411764706044,1
0.6124738379656556,0.4467589671920815,0.7987941551368638,0.44599060354102077,0.8739906319147106,0.9529411764705813,1
0.6082675688178073,0.46114527315795667,0.7916732710809912,0.43086778234372375,0.873172600745232,0.9588235294117577,1
0.6124535907022746,0.45876306017614,0.79490436248009,0.46732259037079527,0.8715358998183225,0.9588235294117666,1
0.6309393510995307,0.4689670358600858,0.7775856418800018,0.40580927324025295,0.8739906319147103,0.9588235294117577,1
0.7241328173736469,0.45143093402652557,0.7808635673228054,0.46193329144380285,0.8715358998183218,0.9588235294117666,1
0.6146054360571594,0.6844164158007463,0.8819226277470757,0.43778055617831546,0.85926223933638,0.9588235294117577,1
0.5242608321315656,0.7941212618673434,0.7272617950079496,0.42481580892516596,0.8690811677219337,0.9588235294117737,1
0.6474164801902859,0.7252476185826342,0.7737785232536298,0.38530063261995273,0.8682631365524559,0.9588235294117684,1
0.5753491925537164,0.7586987851200429,0.8322754075993873,0.5316402133675138,0.8486252797813486,0.9588235294117684,1
0.6474551335276031,0.7504277238975833,0.7938221061244893,0.36439396816034425,0.8543527751436029,0.9529411764705795,1
0.5687155006215835,0.6651240361671702,0.8730413130286712,0.5636976223607888,0.8535341053861705,0.9529411764705902,1
0.6229006123829643,0.762913737754934,0.8197509256456638,0.44840289962258534,0.8420791146616602,0.9529411764705795,1
0.6767086881819429,0.7193129903739518,0.7104929247934326,0.30404495545519294,0.8404424137347506,0.9529411764705937,1
0.6092514718654283,0.582914539703104,0.8453099767368852,0.4836162740203758,0.8248959899869411,0.9529411764705902,1
0.7038028348467371,0.5806180664025463,0.7523413016573538,0.4065846517026897,0.8093495662391326,0.9529411764705937,1
0.7301206467185958,0.6279236467469612,0.5681375350380025,0.45580913741783513,0.7954392048302799,0.9529411764705902,1
0.774867849874615,0.7939059448107522,0.2582209293554354,0.4885385715072384,0.7700738526969165,0.9529411764705795,1
0.6115074322361033,0.8080090694130729,0.20342641520333488,0.27807694982812486,0.7397983977828226,0.9588235294117613,1
0.6788271184506356,0.7466082235196625,0.26182201708015157,0.41006270700431113,0.734070902420568,0.9588235294117613,1
0.675214911172068,0.7320779462120464,0.21869325602580403,0.5569743615346768,0.7487992949988989,0.9588235294117684,1
0.7446414805721161,0.7267145975315834,0.2978670156407582,0.36574538496591613,0.7414350987097335,0.9588235294117524,1
0.7444351511788072,0.7306973640344011,0.36591137780571475,0.3884815241404644,0.7414350987097338,0.952941176470592,1
0.7169274613835448,0.740121282651578,0.282669344364998,0.3330394804199023,0.7455265317330326,0.9529411764705973,1
0.6520236960034598,0.7333650956953395,0.21288859592242004,0.419368905350595,0.7569821610454965,0.9529411764705848,1
0.6581853722499295,0.7423058230535854,0.18411106028619173,0.3702895500526926,0.7553454601185863,0.9529411764705848,1
0.7641829432247998,0.729209150889077,0.3761685384216239,0.5249323657629281,0.7414350987097332,0.9529411764705937,1
0.8167501691629478,0.6551647666399488,0.5894972170797224,0.5397164125079819,0.734070902420568,0.9529411764705937,1
0.603188094285236,0.6795920613474886,0.7767267397078959,0.4313118129781746,0.6759760018646774,0.9529411764705831,1
0.4445409425378282,0.6907317567116575,0.9166238237223274,0.5309722000695286,0.6890676935160976,0.9529411764705973,1
0.5873211954378716,0.6956111505618847,0.8475507617809811,0.48801185204550307,0.7357076033474784,0.9529411764705831,1
0.7022361268650632,0.6673748631324018,0.7567611977569417,0.44763384002473433,0.7668010894310503,0.9529411764705902,1
0.7153439347844184,0.6853607128494085,0.7793702060542758,0.3571263848346323,0.7692551829394849,0.9529411764705955,1
0.5037285501742959,0.6469018518793082,0.8862139096972281,0.2319928801299906,0.7389803666133445,0.9529411764705902,1
0.4392776263672843,0.65055170920817,0.9362689254165798,0.6229412017733128,0.7586182233844527,0.9529411764705902,1
0.3389885710128253,0.6380998982185913,0.9483464341562727,0.5896232282848589,0.7725285847933053,0.9529411764705866,1
0.37885091545279015,0.6489064088089979,0.9559747197331057,0.21801258617362376,0.7864383076142039,0.9529411764705742,1
0.3197424850181515,0.631028851859993,0.957854684726495,0.36726758948201377,0.7946211736608015,0.9529411764705937,1
0.35883737056493104,0.6453929232653234,0.9537144324791023,0.5028514501212376,0.8060761643853112,0.9529411764705831,1
0.22473115711611308,0.6218469894290236,0.9674377712858598,0.3995707619232919,0.8126223295049987,0.9529411764705831,1
0.5396044413429164,0.6821000201456404,0.8316714127975248,0.4516533484943924,0.822441257890553,0.952941176470592,1
0.8337366176348303,0.7121960960604391,0.5893904605996819,0.41769235866012566,0.828168753252808,0.9529411764705991,1
0.6450554216740599,0.7072695467678387,0.7532633864751286,0.5011913071095689,0.8248959899869415,0.9470588235294102,1
0.4805035634276592,0.7143618634831004,0.8714599852451641,0.3986134714198978,0.822441257890553,0.9470588235294155,1
0.44371595675337067,0.656273084681059,0.9250444959414568,0.3670718974083887,0.8093495662391323,0.9470588235294066,1
0.6815756917204413,0.6477029469246577,0.7481780382451293,0.5122915548735727,0.8208045569636423,0.9470588235294084,1
0.7416295106215423,0.6662785826337583,0.6836191214653067,0.6001228610390761,0.749617326168377,0.9529411764705902,1
0.7709900915781392,0.6605727029036506,0.6171301192894898,0.35623068017179493,0.6866129614197088,0.9529411764705813,1
0.7866161302873202,0.6927478662760619,0.6014140081607375,0.33009588332913586,0.6677931358180794,0.9529411764705955,1
0.7079558854875139,0.9100081378561262,0.45588303351915616,0.6963239268041035,0.6857949302502313,0.9529411764705848,1
0.5687351519877295,0.9906216253030815,0.3878402862709413,0.27759361445203823,0.6866129614197091,0.9529411764705831,1
0.5451930013638612,0.8845803411966799,0.5412421061682575,0.15441228309619964,0.702159385167518,0.9529411764705813,1
0.7576304158476383,0.8444117650792151,0.6350028864403604,0.5323616198189309,0.673521269768289,0.9529411764705902,1
0.766280754858606,0.7916074207904606,0.516925299362788,0.6275812055412447,0.6792487651305438,0.9529411764705937,1
0.8001742302387412,0.7777201372633962,0.6476101043711293,0.3524375671871598,0.6817034972269319,0.9588235294117649,1
0.3761033024360346,0.6962188717673706,0.8896525610369377,0.4082941826838666,0.678430733961066,0.9588235294117666,1
0.04374607576112047,0.6289917818888472,0.9772166759140379,0.3134391772734495,0.7545274289491077,0.9588235294117577,1
0.5441607409041057,0.704898792438892,0.7796303584131969,0.46690297565842664,0.8126223295049987,0.9588235294117577,1
0.8720593605334098,0.7665497571527239,0.6530582756992084,0.4013563774443209,0.8208045569636424,0.947058823529412,1
0.41671303688654815,0.9803594311522376,0.6467152640211922,0.5924984228038711,0.7578001922149741,0.9470588235294066,1
0.6104946215544594,0.777335989917474,0.36369219077385484,0.4898423996785227,0.7234339428655364,0.9470588235294191,1
0.9659785827074016,0.5903448125620557,0.5165880197265941,0.3316923218246429,0.6997046530711293,0.9470588235294102,1
0.5925313453014935,0.6757261915256473,0.7572761553957483,0.48815839262057925,0.664520372552213,0.9588235294117542,1
0.21610477437858355,0.6525706020206717,0.9367558599895115,0.40352505632588276,0.6399730515883281,0.9588235294117524,1
0.024696172682719203,0.5570964635824525,0.8955928076725714,0.4214292316471696,0.7659824196736181,0.9588235294117631,1
0.17847733837047405,0.6546408553132469,0.9771705279760856,0.3777315798249314,0.8289874230102395,0.9588235294117613,1
0.7243748043739732,0.74781391789417,0.7838759907909562,0.4946886025526172,0.8298054541797176,0.9588235294117453,1
0.7923019604341,0.8017997626860165,0.5967899278590311,0.3869258892775652,0.754527428949108,0.9588235294117524,1
0.6107123701204711,0.9188680675441914,0.5248335859283269,0.4862230984486595,0.7406170675402549,0.9588235294117524,1
0.06365112378649443,1.0,0.5715377888413347,0.6391280719767418,0.7569821610454964,0.9588235294117684,1
0.19504539685840316,0.9010177917236601,0.7220589244253619,0.19315952770402564,0.7520720582647643,0.9588235294117577,1
0.0570093678502763,0.7864871760979272,0.9871254384038044,0.40439195698890096,0.6710665376719005,0.9588235294117755,1
0.0,0.6925893276546201,0.9682210808169898,0.5001045554011204,0.6579742074325252,0.9588235294117631,1
0.0617974819772259,0.6412991559613075,0.965759561932681,0.5070703226439448,0.7569821610454959,0.9588235294117631,1
0.5379893529042626,0.5501590790608758,0.9094025098818437,0.363420582917991,0.7733466159627829,0.9529411764705795,1
0.812583740299474,0.6856321645133978,0.5564544904104528,0.476215999424194,0.7676191206005283,0.9529411764705813,1
0.7230969920045844,0.5694640895126201,0.561512199889679,0.29824934315551754,0.7103422512141152,0.9529411764705831,1
0.7860679173228066,0.5238426525953237,0.6005754120238731,0.5326837570098376,0.8298054541797183,0.9529411764705866,1
0.7726726825479284,0.5463141299748615,0.5750480758476488,0.3415134412427142,0.8690811677219331,0.9529411764705742,1
0.7562843229126087,0.5229018060150482,0.6539024209907792,0.5208434377697919,0.8600802705058579,0.952941176470592,1
0.7882783801171019,0.6688598038817136,0.5774426227323127,0.5839151907555391,0.8568075072399909,0.9529411764705902,1
0.7198929954970529,0.6177507072423175,0.5899200909894943,0.34530219305132553,0.8698991988914114,0.9529411764705848,1
0.7604154378796938,0.4899051379462147,0.6431473075659861,0.36006555954052594,0.8347149183724951,0.9588235294117613,1
0.8763136446430578,0.6024605856633951,0.5057101246427212,0.42795117608691474,0.6964318898052628,0.9588235294117613,1
0.7736804371548743,0.558232333464613,0.5652208515322747,0.463977468676985,0.6481552790469712,0.9588235294117524,1
0.7786549010624093,0.60377783823708,0.5877086652947873,0.3736561508522186,0.6367002883224616,0.9588235294117737,1
0.8162540137566298,0.5333327394715713,0.5480533793162685,0.3556157352860291,0.6293360920332959,0.9705882352941142,1
0.7546385407749081,0.5337864660730742,0.4904872888491069,0.45639343252341463,0.6146076994549653,0.9705882352941195,1
0.77598390527116,0.5560003211247428,0.5216662385765114,0.2704829170225079,0.6195171636477428,0.9705882352941231,1
0.8584531533874398,0.6070532891548757,0.5315658059438204,0.410891579620782,0.6219718957441309,0.9705882352941142,1
0.8005936863314826,0.6133693115162838,0.5133640169027817,0.6201177400940622,0.6383363506614179,0.9588235294117649,1
0.7244751410717611,0.7617307553929489,0.5129003047013526,0.6760866567848519,0.6432458148541944,0.9588235294117524,1
0.7765050840048194,0.7834349708904841,0.5435869559227949,0.31370787098143305,0.6465192167080153,0.9588235294117577,1
0.7594587968952714,0.753894425890811,0.5511046320097112,0.28879871699197646,0.6162444003818762,0.9588235294117542,1
0.7590193988088053,0.7165658010306278,0.5203310512559104,0.5911372165827917,0.6219718957441307,0.9529411764705831,1
0.7739842397434956,0.787023592786905,0.512327538422025,0.4398860687082318,0.6285180608638186,0.9529411764705902,1
0.8078462916549514,0.7069952995924371,0.5004946016005045,0.5736141955296038,0.6342455562260736,0.9529411764705866,1
0.7921616681128029,0.6339624942804153,0.610907440820848,0.397704352328319,0.6506100111433599,0.9529411764705866,1
0.70272888066314,0.6835323901833698,0.712201831224661,0.39105116288837743,0.6465192167080156,0.9588235294117702,1
0.5719827494149832,0.7552412862754616,0.8858266665305123,0.4176530892564402,0.6710665376719002,0.9588235294117631,1
0.2984326757153045,0.6465124146111947,0.9473996177344046,0.38969064680186843,0.7136150144799823,0.9588235294117577,1
0.28343942804678307,0.6904026704984796,0.9548429978970787,0.45093384802000214,0.7692551829394845,0.9588235294117649,1
0.37941992104135236,0.6771510803178198,0.9319288012836804,0.3734575252511578,0.77825608015556,0.9588235294117613,1
0.5969499536884897,0.7561332896514914,0.8305702040903659,0.440555172478371,0.7766193792286498,0.9588235294117577,1
0.7070834952467538,0.722003528611875,0.7244841095650485,0.5738389910643953,0.7913477718069805,0.9588235294117702,1
0.7870027768683513,0.7080393380261734,0.6301314737924656,0.49637963263497387,0.7741646471322616,0.9588235294117631,1
0.7144034537186869,0.703052647815153,0.6721305652306387,0.4393351997639148,0.7700738526969169,0.9470588235294102,1
0.7928067659072996,0.6989885455982443,0.6717712243076719,0.2719766140278055,0.7618909866503187,0.9470588235294013,1
0.5905856877783137,0.7352864901397045,0.8463001751285189,0.4294252413594822,0.7487992949988986,0.9470588235294102,1
0.23744899393287744,0.7049181176896555,0.9302052948848629,0.41464174819762384,0.7537087591916758,0.947058823529412,1
0.12111819935625852,0.5926489374526912,0.9385403815397624,0.4788254396302624,0.7782560801555601,0.9529411764705902,1
0.09475966343808925,0.6242508017109712,0.9596182855334997,0.37111207038474003,0.7929844727338912,0.9529411764705973,1
0.13760993353241974,0.6315398048700381,0.9624733519618629,0.4081676354927894,0.7897117094680243,0.9529411764705777,1
0.12725911047826066,0.6251635364054595,0.9619844225877899,0.18340068671898774,0.7864383076142033,0.9529411764705724,1
0.14343203472473287,0.6222617885386187,0.9590993821294678,0.5737627624321567,0.7848022452752477,0.9470588235294102,1
0.11372495303778617,0.6242723437062756,0.9596837863986328,0.6304940370021961,0.7815288434214268,0.947058823529412,1
0.12528070851849132,0.6209658008025162,0.9582895798417814,0.39740510836575826,0.7782560801555607,0.9470588235294155,1
0.11426878870997895,0.6257383721007823,0.9567609092097185,0.3898307671633564,0.7798927810824708,0.9470588235294137,1
0.1317435891340495,0.6220729622245977,0.9595051696248931,0.48624632506261245,0.7782560801555611,0.9411764705882515,1
0.12038430602560532,0.6245273288037816,0.9597111942305139,0.43053307995809875,0.7758013480591721,0.9411764705882355,1
0.13246444715168648,0.6198123446976028,0.962519514216574,0.429490287713947,0.7725285847933051,0.9411764705882302,1
0.12210275078238707,0.6212804980129211,0.9587525533725951,0.4695628389158378,0.7692551829394848,0.9411764705882355,1
0.13619877439480066,0.618018698509905,0.9618657848060217,0.4239253131174798,0.7668010894310501,0.9470588235294031,1
0.1303807885409532,0.6201272986693412,0.9597809407151099,0.39999415455296594,0.7635276875772304,0.9470588235294155,1
0.13910362621054478,0.621224155141805,0.9654900271547635,0.44705906154994784,0.7618909866503185,0.9470588235294084,1
0.13402203528520543,0.6224528007405673,0.9595653179555615,0.4473005223107949,0.7594362545539307,0.9470588235294084,1
0.15085315902921959,0.6199605523626295,0.962602206403518,0.412131943760923,0.7561634912880637,0.9470588235294084,1
0.14658335870717376,0.6240311985973368,0.963678159259639,0.40468734301180864,0.7553454601185859,0.9470588235294226,1
0.15962593822926255,0.6198342781347428,0.9655575114407703,0.4604421504818364,0.7512540270952872,0.9470588235294155,1
0.1484635486380083,0.6227304615426561,0.9631311059558227,0.43296052637179183,0.7496173261683765,0.9470588235293924,1
0.17299064613140225,0.6191542033969636,0.9652674295063987,0.4071692154149319,0.7463445629025098,0.9529411764705795,1
0.1718284361963933,0.6220390475472112,0.9661256593145237,0.4467044042999697,0.7447085005635543,0.9529411764705831,1
0.1562179743249466,0.6155733644584462,0.9629129189788066,0.45099055417257133,0.7422537684671654,0.9529411764705777,1
0.16016561743592983,0.6163945436559054,0.9631420785973689,0.403072929213493,0.7397983977828227,0.9529411764705902,1
0.17442558366764838,0.6143750121475718,0.9663990981975896,0.4306057303966052,0.7373443042743884,0.947058823529412,1
0.15327640979881063,0.6086084440804075,0.9577387010084888,0.4617176707499957,0.7340709024205677,0.947058823529396,1
0.2325442830990862,0.6092631184918114,0.9843157485092451,0.42503433376285915,0.7316161703241795,0.9470588235294031,1
0.479671562944775,0.7360084798204998,0.870057068448991,0.4071069097873677,0.7324348400816121,0.9470588235294155,1
0.6280402849802658,0.8601728394112281,0.7168759726729925,0.5014551539074004,0.7209792107691474,0.9470588235294031,1
0.7854447176499181,0.7433515295210412,0.6190202504845993,0.5115463846191266,0.7136150144799823,0.9470588235294155,1
0.7691054317975482,0.7053011030016021,0.6510293431272047,0.33143559338471407,0.6857949302502309,0.9470588235294084,1
0.7370623510571718,0.7283457554555409,0.6630517395881448,0.4148236319670073,0.659610908359436,0.9470588235294137,1
0.7261725497753193,0.7118189503157036,0.6891434535883119,0.4878614432805131,0.6637023413827347,0.9411764705882479,1
0.7525915390070912,0.7387601603796919,0.6586198510443685,0.24548746592502843,0.6628836716253024,0.9411764705882408,1
0.7362049155089164,0.7417157407126544,0.6479902153805865,0.4561127766771933,0.6604289395289142,0.9411764705882408,1
0.7193886120564169,0.7475612091334989,0.6826383853589169,0.5344422372843355,0.6620656404558241,0.9411764705882302,1
0.6775598717147608,0.7550121973250179,0.7368986818345874,0.3972402472346785,0.665338403721691,0.9352941176470662,1
0.6643006645074494,0.7542840673750494,0.76109524212841,0.5404586786528801,0.6661570734791227,0.9352941176470448,1
0.6030175774961457,0.7555846536371852,0.8025868119924218,0.4496710514989323,0.666157073479123,0.9352941176470537,1
0.6709400948138267,0.7180550844955116,0.7597876734031355,0.33602545329724065,0.6694298367449898,0.9352941176470537,1
0.6787479454608045,0.7183436313204277,0.8084038112903436,0.4654847696588995,0.6694298367449893,0.9411764705882355,1
0.3285287530439306,0.7127385947856063,0.9329531337399095,0.38414459125751177,0.6874309925891869,0.9411764705882248,1
0.3631586720031391,0.6623304877919297,0.944995230511362,0.46182663709547384,0.7152517154068918,0.9411764705882266,1
0.4022237489585052,0.7034411730293011,0.9394004246542231,0.3802824595921189,0.7332528712510896,0.9411764705882302,1
0.5249617390785695,0.6990975750232773,0.9006530728534422,0.5151725051430053,0.7307981391547006,0.9411764705882266,1
0.3370376733591253,0.7158178042574788,0.9225435143291747,0.6046775676854629,0.7267067061314023,0.9411764705882373,1
0.23439448496456333,0.6978896053842409,0.9596724881460802,0.26867479460893906,0.7087055502872044,0.9411764705882266,1
0.3546325266689501,0.7056437475420725,0.9722103221291556,0.4825939290772652,0.7185244786727587,0.9411764705882302,1
0.35510003108265586,0.6991884029860895,0.9341400480569917,0.46158201672559457,0.7201611795996693,0.9411764705882355,1
0.41634283756853446,0.6936251926987678,0.9315890982799463,0.5699650200333599,0.720979210769147,0.9411764705882266,1
0.39867362257873984,0.690443825231786,0.927001910457435,0.4101298271808423,0.7193425098422368,0.9411764705882355,1
0.38020510931877893,0.6887859405795421,0.9234818096029559,0.25253545844213565,0.7103422512141151,0.941176470588232,1
0.4002377189212195,0.6930741228817835,0.9494803940210416,0.2971382434211796,0.7087055502872047,0.935294117647052,1
0.4350696729198341,0.6898195730597658,0.9328381513421955,0.574503823391544,0.7103422512141155,0.9352941176470431,1
0.4511541854869871,0.6909053564600849,0.9216226967902642,0.5593086620897533,0.7119783135530712,0.9352941176470395,1
0.4294447405199189,0.6817086664545844,0.9286903782006914,0.3569714328269564,0.7144330456494599,0.9352941176470537,1
0.3535413966329729,0.6836415284858941,0.9458412499235314,0.24143509018242898,0.7127969833105041,0.9352941176470608,1
0.32798372540954435,0.6968291154883596,0.9544632769746666,0.48369986339581034,0.7095235814566836,0.9352941176470697,1
0.35515038580476876,0.6812189066829044,0.9483825035401974,0.43955759646987785,0.7087055502872053,0.9352941176470608,1
0.3498183869167314,0.6837815031182981,0.9445788947516058,0.49365554162416675,0.7103422512141155,0.9352941176470608,1
0.36308545574250134,0.6848880766759637,0.9445568394825933,0.40053662465057926,0.7111602823835932,0.9411764705882266,1
0.3726006857950029,0.695095770923136,0.9452864222032773,0.28013050940700496,0.7177064475032808,0.9411764705882302,1
0.38934233262483287,0.69073922989082,0.9384911365862328,0.5259961023010963,0.7103422512141154,0.9411764705882391,1
0.3836570901538602,0.6965435875745266,0.9423973755750594,0.47119685530162697,0.7070688493602942,0.9411764705882266,1
0.385844440555134,0.6881413642622726,0.9384493862912437,0.5592367488734052,0.701341353998039,0.9352941176470537,1
0.3845765616731809,0.6955237575901027,0.9415531837486125,0.39396580868270165,0.6980685907321731,0.9352941176470537,1
0.39270055678286386,0.6887264355013804,0.936586485498018,0.47826745657730696,0.6947951888783518,0.935294117647036,1
0.3956673078833706,0.6945619052038943,0.9396083603658998,0.44275212823913435,0.692340456781964,0.9352941176470608,1
0.4027622148097522,0.6913505445653373,0.9337428606495304,0.3868494457831212,0.6890676935160971,0.9352941176470573,1
0.4005896022353832,0.6949593611664455,0.9370236488417891,0.3882815616292817,0.6882496623466194,0.9352941176470537,1
0.40223490006355445,0.6913855572156128,0.934721085756148,0.46398840535265695,0.6882496623466196,0.9352941176470448,1
0.4014843243270332,0.6947452807035595,0.9345205336739499,0.4431040789755473,0.6874309925891872,0.9352941176470537,1
0.4106950896873963,0.6926573745160138,0.931260857619388,0.44799384409728044,0.687430992589187,0.9352941176470573,1
0.40723882970043124,0.6965797382852927,0.9341887516255596,0.4161014237346278,0.685794930250231,0.9352941176470573,1
0.4141930604559259,0.69393208378574,0.9306262723679293,0.4022318149269456,0.684976260492798,0.9352941176470608,1
0.4101594838770627,0.6961401369534366,0.9338155833839599,0.41491261132340407,0.6817034972269322,0.9352941176470573,1
0.4120218123819083,0.6946063853152434,0.9306634107048922,0.45940071900231133,0.6800667963000218,0.9352941176470573,1
0.41125805432089924,0.6957942563666362,0.9337219556578171,0.43449323441958954,0.6784307339610658,0.9352941176470537,1
0.41471033896041976,0.6918896140459564,0.9294558850342414,0.4236100240061463,0.6784307339610658,0.935294117647059,1
0.4105742997238776,0.6951258924467064,0.9353802517063918,0.45970584320018115,0.6759760018646771,0.9352941176470573,1
0.41519254986147114,0.6912694424866724,0.9303963867596011,0.4477244433692704,0.6735212697682891,0.9352941176470608,1
0.4142090492025732,0.694868317057169,0.9323659789022738,0.4211845091912092,0.6710665376719002,0.9352941176470555,1
0.4167920403747215,0.6930561275281679,0.9310458728506493,0.44440997857344844,0.6694298367449899,0.9352941176470608,1
0.4069985563083469,0.698916051238886,0.9314048833598997,0.4522115364099621,0.6694298367449898,0.9352941176470573,1
0.41370894417098814,0.6955073306945077,0.9290925292194765,0.4312417353501931,0.666157073479123,0.9294117647058844,1
0.41026431181727346,0.6990783839952838,0.9314083515141127,0.4257210112536564,0.6677931358180795,0.9294117647058808,1
0.4165645646236759,0.6938903998732565,0.9314936538479781,0.44997770887768873,0.6645203725522132,0.9294117647058755,1
0.41209496748445107,0.6970841366906451,0.9329998977521561,0.43527551835607536,0.6620656404558243,0.9294117647058844,1
0.4147977677557717,0.6951495850962375,0.9297964292369192,0.4214936622545594,0.6596109083594356,0.9352941176470484,1
0.41164527534251594,0.6955245546007095,0.9341207546839994,0.4469024389220832,0.6579742074325261,0.9352941176470662,1
0.41161341098650067,0.6920150628141432,0.9289174873123993,0.4490963597594827,0.6555194753361367,0.935294117647052,1
0.41133757988200914,0.6948631976826873,0.9329185714831787,0.4224803856156972,0.6538834129971813,0.9352941176470608,1
0.4138376129478486,0.6913652728514947,0.9309328542711495,0.4250172854025644,0.6506100111433603,0.9352941176470573,1
0.40973156468293936,0.6949609222412644,0.933964893634859,0.4445172384130019,0.6481552790469719,0.9352941176470537,1
0.41538793322906964,0.6912993031074292,0.9310220867016664,0.4361086081058959,0.6473372478774937,0.935294117647059,1
0.4106748002286268,0.7000583529560548,0.9315085162603682,0.41595093707211894,0.6432458148541947,0.935294117647075,1
0.414992827732702,0.695320360521555,0.9306546270503078,0.4312644694223716,0.6407917213457605,0.9294117647058808,1
0.41246576645775096,0.6950976238514369,0.9338099961054781,0.446017196110049,0.638336350661418,0.9294117647058808,1
0.41419047482046534,0.6940867453474683,0.9298131208862922,0.4294116416067558,0.635881618565029,0.9294117647058773,1
0.4108754743427391,0.6984298964128179,0.934041182574529,0.4257846434241775,0.6334268864686405,0.9294117647058773,1
0.4144631418583995,0.6941904588725455,0.9318206279643166,0.44991069548542567,0.6326088552991629,0.9235294117647026,1
0.41017770994755853,0.6927112132556151,0.9324390658867467,0.4425820355475426,0.6293360920332962,0.923529411764699,1
0.4138412117482799,0.6907599117031755,0.9321205164868795,0.4189554304593578,0.6276993911063862,0.923529411764715,1
0.4104900517425953,0.6942152877284173,0.9339006824328692,0.42672922206890973,0.6276993911063856,0.923529411764699,1
0.415270790685233,0.6915087564726081,0.9313751875567011,0.4499752169104899,0.6244266278405197,0.9235294117647133,1
0.41003811145552116,0.6948196733298302,0.9332541549966946,0.4157861174797724,0.6236079580830867,0.9235294117647079,1
0.41548472219525856,0.6914590648421705,0.9287193841318488,0.4230442808019202,0.6203351948172204,0.9235294117647008,1
0.4129441531359491,0.6948329916581761,0.9349069195910285,0.45133124349616166,0.6162444003818762,0.9235294117647079,1
0.41705798758380247,0.6914533477708508,0.9307216547991459,0.44618998971359614,0.6146076994549654,0.9235294117647044,1
0.41441342016283167,0.6948372021507968,0.9331640493477511,0.42203895764978283,0.6113349361890986,0.9235294117647044,1
0.416936933723123,0.6914487377599831,0.9303491317834728,0.42707726561397075,0.6105162664316666,0.9235294117647097,1
0.4141999989709495,0.6948429566034929,0.9313588116908316,0.44994788413211406,0.6080615343352777,0.9235294117647079,1
0.418028491366794,0.6914414897846038,0.9304636662872364,0.4248727895663155,0.6056068022388894,0.929411764705872,1
0.4135566637589666,0.6948518964203783,0.9311293110983534,0.4139246796017866,0.6031520701425008,0.929411764705872,1
0.41916487849563555,0.6914307190155363,0.9282970069155311,0.45186662280397955,0.6006973380461124,0.9294117647058631,1
0.4145599871654963,0.694864616335293,0.9305734810391126,0.44168575581430347,0.5998793068766343,0.9294117647058737,1
0.420358623883192,0.6914159351007031,0.9282219038885631,0.411517072363253,0.5990612757071564,0.9235294117647044,1
0.41284868425720767,0.6948815845521289,0.933643340871484,0.4390193759505003,0.5949698426838579,0.9235294117647044,1
0.4196833949918419,0.6913966520942885,0.9278481210940475,0.4519157822893127,0.5941518115143798,0.9235294117647133,1
0.4175624727517544,0.6949033256371719,0.9319371472163582,0.42007415616861077,0.5908784096605583,0.9235294117646973,1
0.42232344322111715,0.691372295690923,0.9290922463166799,0.43308705655295426,0.5884236775641707,0.9235294117647133,1
0.41390258518476075,0.694930468119144,0.9310962326250356,0.45193082199329504,0.5867876152252142,0.9235294117647008,1
0.419977831009873,0.691342185722595,0.9291944905249152,0.42127155691291907,0.5851509142983035,0.923529411764699,1
0.41447085788548754,0.6949637302917118,0.9307944133456889,0.4226672448342309,0.5818781510324373,0.9235294117647079,1
0.42095278571434974,0.6913055993988019,0.9270916410189002,0.45360321034895995,0.5810594812750045,0.9235294117647026,1
0.41448054187495453,0.6950037658853903,0.9317324103049921,0.43682999152480334,0.5777867180091385,0.923529411764699,1
0.4210980652877593,0.6912621094022586,0.9258049872938767,0.41362316251122705,0.57533198591275,0.923529411764699,1
0.41392476098640807,0.6950504304697096,0.9311018741676026,0.4361400589274122,0.574513954743272,0.9235294117647008,1
0.4197004142356535,0.6912132400082605,0.928774194102224,0.45752226564056536,0.5712405528894507,0.9147058823529406,1
0.4166977700716067,0.6950987055711223,0.9298993928729826,0.4246161427942845,0.5696044905504946,0.9147058823529388,1
0.42090477517404895,0.6911741988808313,0.9270816975057715,0.41474256001910015,0.5687858207930626,0.9147058823529317,1
0.41679267614186244,0.6950924070777523,0.9324451312899396,0.44247218230795704,0.5646950263577177,0.9147058823529282,1
0.4225381334626116,0.69177035366965,0.9265567541112052,0.4476681521252507,0.5630583254308072,0.9235294117646937,1
0.41618781306883124,0.695628794480091,0.9295938333319694,0.41467255548508725,0.5614216245038977,0.9235294117647257,1
0.42215977359091006,0.6907372799195474,0.927864327896804,0.43563703777582324,0.5597855621649408,0.9235294117646902,1
0.4174550103079784,0.69559431213012,0.9293224856905529,0.4493217380448608,0.5573308300685527,0.9235294117646973,1
0.42329172801276216,0.6906146253142813,0.9284675831878717,0.42529845504040686,0.5556941291416425,0.9147058823529424,1
0.41795219656129634,0.6957793715224263,0.9295346670773805,0.41199795014528023,0.5728140336088847,0.9147058823529441,1
0.42210848899598885,0.6903795364949052,0.9272797630999192,0.45067889477055406,0.5711773326819746,0.9147058823529424,1
0.4147595566350083,0.6960480037900336,0.9302176945588984,0.44193832242880565,0.5687226005855855,0.9147058823529299,1
0.4244225471165468,0.6907991808858129,0.9256261986414756,0.41571916321426067,0.5679045694161076,0.9147058823529406,1
0.42550273716393755,0.7030583971127966,0.9256706807090247,0.4283888622463701,0.56544983731972,0.9147058823529477,1
0.5266615048042991,0.695666074817987,0.8702771438605915,0.45631081380054117,0.5629951052233303,0.9147058823529388,1
0.7302458104538051,0.7404188682981175,0.6787025629208772,0.4173746120712916,0.5597223419574642,0.9147058823529441,1
0.8068619180347043,0.685218911956537,0.47340804095080685,0.41580283807082,0.5580856410305535,0.9147058823529388,1
0.8367411100452317,0.6876380736572011,0.47833616982659083,0.40501296640253054,0.5621770740538531,0.9147058823529548,1
0.7685106244202551,0.6920972540618852,0.4143777517077525,0.41731306392716844,0.5531761768377765,0.9147058823529406,1
0.736971248802957,0.7504504070179593,0.49887752135559743,0.4741787756606126,0.5466300117180894,0.9147058823529441,1
0.7634945921999913,0.7505234803962937,0.5679800733378972,0.47456459193527256,0.5351750209935793,0.9147058823529388,1
0.7703884108284111,0.7295613196137498,0.5813710244754766,0.43666394260536545,0.5327202888971909,0.9147058823529441,1
0.7590506753287656,0.6900012026083483,0.5984581269423973,0.4931604539686956,0.5310835879702803,0.9147058823529406,1
0.6840171471361637,0.7102721669725143,0.735615566362518,0.40630227992139084,0.5220826907542044,0.9147058823529228,1
0.7005049641787284,0.7213684290784436,0.734073085033765,0.3730066240969829,0.5171732265614276,0.9088235294117606,1
0.6924594687661882,0.723865135720439,0.7375623501837084,0.3887835766300927,0.49999010188670856,0.9088235294117712,1
0.7093337807037347,0.7277337962852548,0.7200688808909521,0.38782762859239334,0.5024448339830968,0.9088235294117695,1
0.691975496754283,0.728266613104253,0.7384787695147313,0.580224297863438,0.499990101886709,0.9088235294117677,1
0.7090717166117003,0.7279601956593759,0.7220600488151089,0.44848902973329524,0.4942626065244534,0.9147058823529441,1
0.6946279390727524,0.7305579982496899,0.7275083793127863,0.4038684781247071,0.4934445753549753,0.9147058823529335,1
0.7173508979475676,0.7251208313033068,0.7153696979829647,0.4327235195025379,0.49098984325858674,0.9147058823529335,1
0.6910897301663246,0.7321303970433052,0.7284219555876408,0.4031731408899549,0.48935314233167637,0.9147058823529317,1
0.7288052545236443,0.7214917596911307,0.7173450740290959,0.4422220766009773,0.48771644140476555,0.9147058823529406,1
0.6439938429411888,0.7448880662477513,0.714245719652063,0.4496197509241402,0.4844436781389,0.9147058823529406,1
0.7894468179095925,0.6331976386755461,0.5392214324671666,0.41279987694025977,0.48362564696942156,0.9147058823529406,1
0.8429589199698497,0.5359855912127557,0.46270524023365234,0.4383997072253023,0.4860803790658098,0.9147058823529353,1
0.8365555312417355,0.514732895880423,0.4408748606362072,0.4584913974670647,0.4942626065244534,0.9235294117647115,1
0.8148393961277898,0.648990052069678,0.44670074133671933,0.4515239253597932,0.5130824321260831,0.923529411764699,1
0.7206904482808704,0.7851444675644288,0.512386919596623,0.4492863923476219,0.49426260652445364,0.923529411764699,1
0.6828664041971316,0.7500178228084116,0.7374789431855142,0.3961505637314123,0.4926259055975427,0.9235294117646973,1
0.4712853337326396,0.8423224346479614,0.8202381847514204,0.5431892179254765,0.500808771644141,0.9235294117647204,1
0.5320748800570122,0.8686127859864257,0.7607224907685377,0.4780587323760416,0.5237193916811153,0.9235294117647133,1
0.628337804800691,0.8862903582361327,0.680161620328058,0.33229219337312926,0.5286288558738916,0.9235294117646937,1
0.6870494439407061,0.8754119877637474,0.5481676553789617,0.32447611289847844,0.5229013605116365,0.9235294117647044,1
0.6982350008662428,0.8743081524188315,0.5419017384631651,0.527059793633501,0.5114457311991726,0.9235294117646902,1
0.6596932164498618,0.8759097328017558,0.5859059928410408,0.361228773678573,0.5032635037405291,0.923529411764699,1
0.6549082165601908,0.8428540580675552,0.6450804016546763,0.5305632279257096,0.5040815349100072,0.923529411764699,1
0.7050322447599988,0.876655938690208,0.586112622518834,0.4216155355122011,0.49098984325858674,0.9235294117646937,1
0.7035787217262205,0.827824383159264,0.5977650582064514,0.4656303479131888,0.49017117350115424,0.9235294117647115,1
0.6874985275912706,0.8166394013745708,0.6868056350834059,0.30355163758752346,0.49098984325858686,0.9235294117647026,1
0.686462594057367,0.8103935899528849,0.6772515497669904,0.4200661199305684,0.48689841023528746,0.9235294117647097,1
0.7130315796465809,0.7989777876894668,0.6644223787237886,0.5254010282735573,0.4901711735011537,0.9235294117646902,1
0.7100653176452413,0.7999123320777348,0.655801655260599,0.34562424129665864,0.49017117350115447,0.9294117647058773,1
0.7124471367668173,0.7956747798480938,0.6577807488485349,0.4302804093171429,0.49017117350115424,0.9294117647058844,1
0.7090348420198344,0.7984099304947334,0.653114261772971,0.44630928771248696,0.49017117350115447,0.9294117647058702,1
0.7121704840045847,0.7949289569593831,0.6550630420124461,0.4581088195453395,0.4868984102352877,0.9294117647058826,1
0.7116976208341619,0.7984539886440678,0.6551987348161668,0.3823258575558816,0.48771644140476567,0.9235294117646919,1
0.7113155038039914,0.7968536588785295,0.6549493946308165,0.43642737355338457,0.484443678138899,0.9235294117646813,1
0.7113856956524577,0.7956148173934968,0.6543970934987807,0.4399987702391398,0.4828069772119893,0.923529411764715,1
0.7132278956204186,0.7958534235959376,0.6551420628554346,0.4263018926762158,0.48362564696942156,0.923529411764699,1
0.7122908185700448,0.796952858786864,0.6536814459325778,0.4452984027637932,0.4828069772119895,0.9235294117647026,1
0.7136676297454299,0.7965937326253407,0.6568883398817409,0.4431654596981633,0.4803528837035548,0.9235294117647079,1
0.7106394326036964,0.7962283376551634,0.6537634143873298,0.41317876489857125,0.4795342139461227,0.9235294117647008,1
0.713852058263801,0.7972912823730274,0.6564712332460556,0.45069752590157525,0.477897513019212,0.9235294117647097,1
0.7118403093875233,0.7975368183116681,0.6535402070464694,0.41405161435119986,0.4762614506802566,0.9147058823529637,1
0.7121816967867576,0.7962332412391895,0.6560963750179782,0.445529826849269,0.47707948184973403,0.9147058823529353,1
0.7102259120185352,0.796515834958628,0.6538558612824652,0.44711529879300693,0.47544341951077873,0.9147058823529406,1
0.7121497284903644,0.7970487048737303,0.655743670772042,0.4294365590015006,0.4746247497533457,0.9147058823529406,1
0.7122693686378322,0.796950155322792,0.6510579071459798,0.46007525077915723,0.4738067185838679,0.9235294117647133,1
0.714794705314202,0.7983109907082924,0.6570938632034553,0.456505374300483,0.4721700176569572,0.9235294117646937,1
0.7130383583175809,0.7964256261202747,0.6524966799585352,0.4266005677742632,0.4713519864874791,0.9235294117647079,1
0.7128554483855498,0.7996706116677339,0.6579385610805069,0.4407916715513337,0.47135198648747867,0.9235294117647008,1
0.7200142242084412,0.819657331829124,0.6468049675388716,0.46208709932486386,0.47053395531800113,0.9235294117646866,1
0.6829193275942249,0.8252159316445178,0.6577651322382716,0.43385457082457746,0.46889725439109065,0.9235294117647079,1
0.6392914895517855,0.8058711850302789,0.6922341254771565,0.4264731471153636,0.4672605534641804,0.9235294117647008,1
0.6958350106255332,0.8341474671462444,0.6762149633839243,0.44661627082493904,0.4672605534641804,0.9235294117647026,1
0.6972526388283812,0.8128023475541091,0.6835795136895935,0.4561529786045638,0.46971528556056885,0.9235294117647133,1
0.6871804399577837,0.8017705924729419,0.6904703673623259,0.43319964307735614,0.4672605534641803,0.9235294117647044,1
0.689019184154052,0.809610595400972,0.6836185574434743,0.4444419577755304,0.46644252229470196,0.9235294117647026,1
0.6885688735033498,0.8060198382680435,0.689204285604931,0.40125781523932336,0.4648058213677917,0.923529411764699,1
0.6875885338708964,0.8079435799928938,0.6818174150375944,0.41889091353917396,0.46316975902883584,0.9088235294117624,1
0.6953015008038423,0.8081652761710092,0.6909178100725695,0.43853734996938304,0.46235108927140334,0.9088235294117588,1
0.680774150989047,0.8095424873981548,0.6842131108740697,0.42552109597708937,0.46235108927140345,0.9088235294117695,1
0.7084735609026106,0.8405805057155867,0.7405283685655693,0.43950723272148967,0.46153305810192513,0.9088235294117624,1
0.5738566552222275,0.8315343602015686,0.7346873788122313,0.4349758599745426,0.4607150269324469,0.9147058823529282,1
0.49886245537103757,0.8645173297706121,0.8094736139440188,0.4245442632734451,0.46644252229470196,0.9147058823529317,1
0.5716549398752626,0.8955399932459496,0.7190566918991053,0.4480134736415485,0.4762614506802564,0.9147058823529335,1
0.644581286942978,0.874679146762855,0.6503141238745783,0.466401337308431,0.4754434195107782,0.9147058823529477,1
0.6684807689200347,0.876090680990829,0.6258352478936012,0.46772778320279573,0.4664425222947022,0.9147058823529353,1
0.6711869227115457,0.8658718923270986,0.6026002942828376,0.38680722810669144,0.45826029483605857,0.9147058823529282,1
0.7040229418014996,0.877983783508199,0.5878319904619843,0.4436203826157907,0.44762269669307264,0.9147058823529441,1
0.6177227209475306,0.8769282968546848,0.6452611310026907,0.49934013942557953,0.4402585004039071,0.9147058823529299,1
0.6422044514148368,0.8562836723105336,0.702221131632583,0.41972590365293416,0.43616770596856225,0.9088235294117624,1
0.6602784892946356,0.8608698460315128,0.654155348400325,0.43926580079671995,0.4435319022577274,0.9088235294117446,1
0.6538483107546892,0.8570990044024827,0.6908266108307697,0.4571679654393863,0.4418952013308172,0.9088235294117553,1
0.5937762860526676,0.8388205329431623,0.7599879526799819,0.37394269148147985,0.4418952013308175,0.9088235294117695,1
0.5963005677156015,0.8262515385786502,0.792659668388121,0.3464838387662388,0.44516796459668406,0.923529411764699,1
0.57759970169485,0.8124921433370687,0.7829572158883193,0.5116210965087592,0.4468046655235941,0.923529411764699,1
0.6043018694776388,0.8219112133408047,0.7822435175214283,0.38012293897739546,0.4541688618127597,0.9235294117646937,1
0.603188245213295,0.8070632731232954,0.7826842362286555,0.4163470505781433,0.45253216088584935,0.9235294117647097,1
0.6165870425453345,0.8065365419957824,0.7837792567747079,0.3262125927262335,0.4508960985468931,0.9235294117647115,1
0.6052459900620001,0.8034895795366209,0.7821641481649595,0.4686781363571268,0.4500774287894612,0.9235294117647079,1
0.6249271016793588,0.8054217859479884,0.7698858366961854,0.4847681480216094,0.44844136645050475,0.9235294117647097,1
0.6280767413482267,0.8042856231606489,0.760228475520441,0.39019087920205103,0.44762269669307264,0.9235294117647026,1
0.6352061181075994,0.8053132321662303,0.7567262422608317,0.40662164195918826,0.44516796459668434,0.9147058823529424,1
0.6371186539720272,0.8045582322846527,0.754310819154502,0.4531979203752958,0.4435319022577279,0.9147058823529228,1
0.642705035098186,0.8052755999953731,0.7546790879147338,0.4681306880209572,0.4427132325002958,0.9147058823529441,1
0.6423222881643612,0.801447401236641,0.748712008807068,0.4771734314354035,0.4427132325002958,0.9147058823529424,1
0.646580928429111,0.8009835570774042,0.7517019024990824,0.4256499503026215,0.44271323250029554,0.9147058823529424,1
0.6437619185138481,0.8008951934810785,0.7467213467822533,0.43847352127650313,0.44189520133081783,0.9147058823529441,1
0.6464466463784317,0.8013006617866798,0.7492231088022387,0.4099382193826273,0.4402585004039071,0.9147058823529353,1
0.6436457369789146,0.8011612602624958,0.7467908029563617,0.450536745363378,0.43944046923442964,0.9147058823529406,1
0.6473099258754329,0.8024544133807495,0.7492238503908778,0.4510888186770396,0.4378037683075186,0.9235294117647026,1
0.6436886383235393,0.8007767314420793,0.7466473453934546,0.43455711614662573,0.43862243806495105,0.9235294117647079,1
0.6466324832306282,0.7997542501011833,0.7498906647506036,0.4092697118158668,0.4369857371380405,0.9235294117647026,1
0.6429974674258753,0.8002804814759162,0.7463207899659762,0.4565203573205875,0.43698573713804084,0.9235294117647079,1
0.6537742370307218,0.8010493336421098,0.7413948125925651,0.44061120405052995,0.43534903621113,0.9088235294117588,1
0.6665610674765446,0.7983634684701731,0.7177116860057261,0.4239308210501706,0.43453100504165226,0.9088235294117588,1
0.6939188433420973,0.7979248344474761,0.6902550985764552,0.43105349476663984,0.43371297387217383,0.908823529411757,1
0.6982100324822145,0.7941550984787576,0.6870015831162405,0.4612511139179949,0.4320762729452634,0.9088235294117553,1
0.696523490519052,0.7915816117505547,0.6865812220563385,0.42325716747752207,0.4296215408488753,0.9235294117647026,1
0.6970236074019469,0.791275603417231,0.6845038751519941,0.4257513139584624,0.42880350967939745,0.9235294117647026,1
0.7004673945039964,0.7901785324107806,0.6880358357778055,0.44649727393081484,0.42880350967939734,0.9235294117647079,1
0.6952210272025615,0.7918530146400361,0.6841432011033353,0.4379502884868257,0.4271668087524864,0.9235294117647079,1
0.7007254116409762,0.7908349750754488,0.6855608765085686,0.4138601714045934,0.42634877758300893,0.9235294117647133,1
0.7006899647327982,0.7909817897279451,0.6840761550679882,0.4564715870984885,0.4238940454866208,0.9235294117647115,1
0.700645619150675,0.7909097355110994,0.6860033307714125,0.45333262845079614,0.4238940454866202,0.9235294117646866,1
0.6965285103509983,0.7909627514766292,0.681867796782204,0.42164823011221214,0.4230753757291879,0.9235294117647097,1
0.7015573475266318,0.7909085346041798,0.6831082592586839,0.4116672456354617,0.42143931339023183,0.9235294117647026,1
0.6987843943281308,0.790974263701207,0.6835228713399943,0.4475382900554557,0.4206206436327995,0.9235294117647044,1
0.6995551024398331,0.790890296506239,0.6839380839169192,0.4455031032073539,0.4198026124633213,0.9235294117647026,1
0.6983068215062401,0.7909984176304985,0.6830413479355639,0.42296492804140456,0.41816591153641103,0.923529411764699,1
0.7017597434810916,0.7908585438733584,0.6834060940593292,0.4181205821630447,0.41652984919745495,0.923529411764699,1
0.6976943656300156,0.7910449118754932,0.684318840269307,0.4584674025964592,0.4157111794400222,0.9235294117647026,1
0.6993477419156511,0.7907651551231516,0.6852599723607928,0.4390544298262215,0.414893148270544,0.9235294117647008,1
0.6955233315092982,0.7917150235706101,0.6831294246340085,0.4193104433904239,0.4132564473436339,0.9235294117647008,1
0.6965590086682859,0.7913357779274289,0.6809847932350711,0.4280472686489302,0.4140751171010663,0.9235294117647044,1
0.6965817699810393,0.7917717955569062,0.6827918839774312,0.4569095113623587,0.4116203850046775,0.9235294117647008,1
0.6997013915591673,0.7906148508351735,0.6826014071503964,0.43425460422760537,0.41080171524724557,0.9235294117647097,1
0.6960515125720651,0.7916939566902745,0.684323291966803,0.42196818623811727,0.4108017152472451,0.9235294117646919,1
0.6982856380049272,0.7913533480517444,0.6827435509982616,0.42830038431338485,0.4091656529082892,0.9294117647058773,1
0.6951739102160102,0.7926130413696918,0.6818968858961295,0.4575424366139749,0.40834698315085693,0.929411764705872,1
0.6975894828259454,0.7908451164926436,0.6845100904789615,0.42056904800267325,0.40752895198137884,0.9294117647058737,1
0.6969984253147566,0.7918384181023521,0.6826585326678175,0.42788595165245014,0.4050742198849903,0.9294117647058631,1
0.6965719416689904,0.7914847488657378,0.6828423700624783,0.44677923906480893,0.4042561887155122,0.923529411764699,1
0.6976443176290336,0.7917697006778834,0.6835819785004316,0.4470357412378989,0.4034375189580801,0.9235294117646919,1
0.7004007408693105,0.7914577413927439,0.6828622641273829,0.40987972452644306,0.4018014566191235,0.9235294117647079,1
0.6971694268042355,0.7913609426278742,0.6831287452645992,0.43181600794068514,0.4009827868616916,0.9235294117646973,1
0.6995971500768634,0.7931145601100397,0.683430218109232,0.44744492891636417,0.401801456619124,0.9235294117646902,1
0.6937949714314233,0.7956186706742202,0.6834976291157304,0.44255698030521834,0.40016475569221377,0.9235294117647026,1
0.6984530273770169,0.7912333879145319,0.6847035984414298,0.41509031766279036,0.39852805476530323,0.9235294117647079,1
0.6980818359067734,0.7928429478272239,0.6828015893859067,0.4369888960746867,0.39852805476530295,0.9235294117646973,1
0.6984523460695327,0.7919486223148515,0.6852711855137626,0.44469523872701927,0.39689199242634715,0.9235294117647115,1
0.6934255951051738,0.7921396181802219,0.6831259551789229,0.43071427745880464,0.3960733226689144,0.9235294117646902,1
0.7009296275972162,0.7921358920192257,0.6813149464229582,0.4121507187948462,0.3952552914994362,0.9235294117646742,1
0.6961925712617659,0.793903910638411,0.6807798055208565,0.44612081177041507,0.3960733226689146,0.9235294117646848,1
0.698986545980969,0.7913136569259257,0.6816286273571138,0.4463293456625055,0.3936185905725263,0.9294117647058737,1
0.6947973521827475,0.7916099450410891,0.6812517478658984,0.42074312882220255,0.3919825282335701,0.9294117647058702,1
0.7008956732891546,0.7911133269917874,0.6813655272184411,0.42058643517650185,0.39116385847613777,0.9294117647058808,1
0.6946110477110493,0.7941275072960372,0.6820193435286103,0.4549511164969851,0.3903458273066596,0.9294117647058755,1
0.7020369288942315,0.7911409630186905,0.6814849979819662,0.4301247393889681,0.38870912637974914,0.9294117647058773,1
0.693280876920109,0.7939666160367417,0.6820700073225614,0.41882552624754726,0.38789109521027076,0.929411764705872,1
0.7015478040445894,0.7907818036222001,0.6804898291874916,0.4368083348624682,0.38789109521027126,0.9294117647058808,1
0.6927796609858156,0.7964891023942248,0.6839320509846816,0.4505840999216145,0.38789109521027126,0.9294117647058737,1
0.7166854142722607,0.8014242362989326,0.6868418949923948,0.41271672373858903,0.3887091263797494,0.935294117647059,1
0.6460760530664416,0.8351869957409294,0.7291682750031817,0.43267596085466065,0.3862543942833606,0.9352941176470537,1
0.6081216171886131,0.855286763205495,0.7469683153992244,0.44964502411313284,0.3870730640407933,0.9352941176470573,1
0.578830091822863,0.844545671610839,0.7641558722291233,0.4366022116636946,0.3895277961371813,0.935294117647052,1
0.5189629172335839,0.8426623977685758,0.7952191070384883,0.43531397711161396,0.4009827868616914,0.929411764705872,1
0.44796527138357495,0.8797365444041192,0.8166628975764778,0.4564437430333301,0.40425618871551255,0.929411764705872,1
0.47146874953030354,0.8907656714362975,0.8023997692284076,0.46539208803725063,0.4091656529082892,0.9294117647058773,1
0.5824723163843677,0.8802886807234367,0.7361335543160252,0.4247454025298154,0.41080171524724585,0.9294117647058844,1
0.5653375782075782,0.8582159504100915,0.7635768149367772,0.46472041769912187,0.41243841617415633,0.9294117647058844,1
0.5856871880716534,0.849711545371861,0.7401608929911377,0.4541736902942367,0.4067109208119012,0.9294117647058879,1
0.6738298325508525,0.8822171914202195,0.6382747561950765,0.36337204968154335,0.40752895198137895,0.9294117647058808,1
0.675944383865185,0.8275557936476766,0.7172236723098332,0.4814937603795722,0.40016475569221377,0.9294117647058808,1
0.6394510071093967,0.8192887407072953,0.7352221021275982,0.40353301215730714,0.39116385847613777,0.9294117647058702,1
0.6372371308418416,0.8193499868999361,0.7415679492969623,0.45014554485623837,0.3944372603299592,0.9294117647058915,1
0.6482718002123853,0.8250916198086176,0.7328950950890821,0.44962954943954564,0.3977100235958249,0.929411764705872,1
0.6031944248751895,0.8161190463518562,0.7611563791986976,0.4349385649339492,0.39689199242634704,0.9294117647058737,1
0.6476662688691128,0.8338322867019009,0.7207288159308205,0.3125495777376373,0.3952552914994369,0.9294117647058915,1
0.645805142972839,0.8178771976882573,0.7632740909610616,0.3794871761643895,0.3960733226689151,0.9294117647058862,1
0.5766149084623652,0.8384517165047634,0.7658657110305636,0.44063058675676364,0.3952552914994366,0.9294117647058755,1
0.6318383628960147,0.8289779029238618,0.7339241549331794,0.4052583577363174,0.39771002359582563,0.9294117647058826,1
0.6797110867939544,0.8271943464067066,0.6774176983972755,0.5567820262278959,0.4018014566191243,0.9352941176470573,1
0.6931709279307824,0.8259607448759059,0.6566187769623664,0.39802097878285025,0.39689199242634704,0.9352941176470466,1
0.7123384281816131,0.8241639161421295,0.6407504171854305,0.44878232427399617,0.39689199242634676,0.9352941176470484,1
0.6783663108458385,0.8337933518718126,0.6730759675723694,0.3505125311234242,0.3928005594030483,0.9352941176470608,1
0.6281057885119985,0.830772008224048,0.7212528784405524,0.4141686698636889,0.3960733226689146,0.9235294117647097,1
0.6883934941933358,0.8301132159490543,0.6706539959429765,0.5960675691038455,0.39689199242634704,0.9235294117647044,1
0.6804084740842253,0.826784890139823,0.6792309666752198,0.34832224870153516,0.3944372603299588,0.923529411764699,1
0.6809573726693088,0.8291940920754493,0.6734982087505491,0.4697179846373694,0.39280055940304814,0.9235294117647026,1
0.6729922612435429,0.8359979217743027,0.6776247476626923,0.46957738511722613,0.3919825282335698,0.9294117647058755,1
0.6579390331797881,0.8367102364349449,0.6869944210171944,0.3136293828075519,0.39034582730665934,0.9294117647058631,1
0.670167613723326,0.8390741154035521,0.6812491407473037,0.4505324598765198,0.3887091263797489,0.9294117647058684,1
0.6695200707081257,0.8358935904587377,0.68453557998574,0.49211928851460923,0.38625439428336106,0.9294117647058808,1
0.6700669110224458,0.8358920671731246,0.6805595208700129,0.42406386915574046,0.38461833194440426,0.929411764705872,1
0.6649912205005764,0.8323357537325418,0.6831914683471827,0.38547782982157386,0.38461833194440515,0.9294117647058755,1
0.6732478521734151,0.8361986737588671,0.6795096144245661,0.4459935320082683,0.3829816310174945,0.9294117647058844,1
0.6653348626383975,0.8325516979052902,0.6839034021881607,0.444439578251132,0.38134493009058384,0.9294117647058702,1
0.6719696875074642,0.8338811359371812,0.6790663087165312,0.42589044632890466,0.38216359984801596,0.9352941176470537,1
0.6659519901535997,0.8370852097922548,0.6841921322329796,0.43194000166931423,0.38134493009058423,0.935294117647059,1
0.6643379919103073,0.8405602486195902,0.6814496350302753,0.4631895714713393,0.3805268989211057,0.9352941176470484,1
0.661002636930476,0.8392604484244602,0.6876974331961829,0.4270764902727451,0.37970886775162754,0.9352941176470413,1
0.6565275959442886,0.8445595524438821,0.6942982363608732,0.4358755818719196,0.3780721668247175,0.929411764705872,1
0.647633847278562,0.854368468751487,0.7138842158703013,0.4552817729834171,0.3764354658978068,0.9294117647058773,1
0.5997040041961735,0.8745290680822067,0.7376807230610198,0.43956872986566364,0.37479940355885094,0.9294117647058755,1
0.5296947657612447,0.8943220582215303,0.7454941166422554,0.41457357267555933,0.3723446714624626,0.9294117647058684,1
0.5038127310614215,0.8951100265741236,0.7651155602329275,0.4597574265667039,0.3731627026319402,0.9294117647058737,1
0.5050545756004983,0.8992049025675624,0.7830585207481233,0.45472759468483437,0.37316270263194057,0.9294117647058808,1
0.5258674154842755,0.8946682663087189,0.7660084889204093,0.43628191155084356,0.37561743472832865,0.9294117647058755,1
0.5352837552712596,0.8878410012120697,0.7689197101921883,0.43074104958771553,0.37561743472832904,0.9294117647058737,1
0.5430786157929774,0.8875744129672811,0.7650722708370818,0.4378284527329233,0.3747994035588507,0.9294117647058702,1
0.5477721946915161,0.8845670056664561,0.7631090801982243,0.4459442607950601,0.3731627026319407,0.9294117647058808,1
0.5559032932731558,0.8822763747700605,0.7576269464421894,0.44985889247949823,0.37398073380141816,0.929411764705872,1
0.5600081458073136,0.8815674598409924,0.7598080427057483,0.4262519890308438,0.3723446714624628,0.9294117647058826,1
0.5594371634810308,0.8819775898822596,0.7551773873663893,0.41028100895206243,0.369889939366074,0.9352941176470555,1
0.5592352471567741,0.881459948581164,0.7579832546530811,0.43943854646658137,0.36907126960864134,0.9352941176470484,1
0.5606724619287439,0.882083398583781,0.7538669848665821,0.4398167363274124,0.3690712696086416,0.9352941176470537,1
0.5623105022310975,0.881349352082766,0.7554962634169442,0.41758074240529086,0.36907126960864206,0.9352941176470715,1
0.566289461402185,0.8822281092862686,0.7533622790192346,0.4428728823181881,0.36825323843916374,0.9294117647058684,1
0.5652818103262829,0.8810018405454467,0.7555141714499256,0.44870311974695976,0.36825323843916374,0.9294117647058826,1
0.5652799208117846,0.8812509560088273,0.7516808410797904,0.4273001110151263,0.36661717610020766,0.9294117647058773,1
0.5643063067647128,0.8803396965368313,0.7537306410722673,0.42799986624630515,0.3649804751732972,0.9294117647058808,1
0.569531844220855,0.8812780705873712,0.7520088831515472,0.4520814810707031,0.3649804751732968,0.9294117647058684,1
0.5661966949190007,0.8788907946852551,0.7524089585657776,0.43583542585847473,0.3625257430769086,0.929411764705872,1
0.5665592176290241,0.880381456148271,0.7497589539239484,0.41602675803589784,0.3625257430769081,0.9294117647058862,1
0.5688763123426857,0.8814089509947773,0.7525382175258044,0.4296922151044733,0.3608890421499984,0.9294117647058684,1
0.5668764179022043,0.8812345830723426,0.7512047728289981,0.4499374687322205,0.3608890421499983,0.935294117647059,1
0.5666628846126384,0.88170763253195,0.7509778207787836,0.43280516095504035,0.35925234122308775,0.9352941176470555,1
0.5710079849554224,0.8812517623485694,0.7485778534761512,0.4167588154997147,0.35925234122308747,0.9352941176470466,1
0.5700583308567779,0.8770180950307871,0.7490212384226054,0.4392296729374278,0.35761627888413144,0.9352941176470644,1
0.5742254307976272,0.876962839092956,0.7449580947805138,0.4505561819956579,0.35597957795722135,0.935294117647052,1
0.5769131667163321,0.8780255939171455,0.7435731580609375,0.4253074232847216,0.35516154678774314,0.9352941176470537,1
0.5799686147473444,0.8765054811767267,0.7417110662554464,0.42471332661177896,0.3559795779572212,0.9352941176470573,1
0.5765085642078054,0.8760058151666854,0.743615582945325,0.4448765630017766,0.3535248458608326,0.935294117647052,1
0.5791160171631626,0.8767161853055356,0.7419648067223041,0.4407822002974899,0.3510701137644441,0.9411764705882302,1
0.5774343884113377,0.8742809402700324,0.7441569891885598,0.41280904309171695,0.3518887835218765,0.9411764705882302,1
0.5794421770822009,0.8750813794982337,0.7403767544105969,0.4318475488229921,0.35107011376444436,0.9411764705882391,1
0.5770782605348804,0.8744944651369905,0.7441521235789526,0.4490511854936173,0.35025208259496654,0.9411764705882373,1
0.5794573915810457,0.875001821636201,0.7406128289410208,0.42859429845395497,0.3494340514254881,0.9352941176470448,1
0.5774721802543625,0.8745311509398067,0.7436600304317116,0.41724960379822446,0.35025208259496604,0.9352941176470537,1
0.5795153211102759,0.8749834654906454,0.7400774427139466,0.44538279133743097,0.3486153816680559,0.9352941176470537,1
0.5789239057704421,0.8745404589769992,0.7428205650279214,0.4416349320993324,0.3486153816680558,0.9352941176470608,1
0.5830914421561666,0.8749790104404153,0.739282421314833,0.4199625326121401,0.34779735049857763,0.9411764705882479,1
0.5803772703525361,0.874542182910022,0.7428404332378178,0.43521899384977614,0.34697931932909976,0.9411764705882177,1
0.5832171104230875,0.8749788573345156,0.7390910189313047,0.4503093428808445,0.3453426184021895,0.9411764705882391,1
0.5802348523209745,0.8745414372190801,0.7422138940702309,0.4197274025733353,0.34452458723271145,0.941176470588232,1
0.5833428167165889,0.8749800948540363,0.7397973231518286,0.4249834918986941,0.3437059174752789,0.941176470588232,1
0.5798515613653679,0.8745399634514763,0.7424510490644519,0.45454807276364884,0.343705917475279,0.9411764705882355,1
0.5790686729668829,0.8749816391803038,0.7396347880149352,0.43104822762079087,0.3428878863058012,0.9411764705882266,1
0.5807915500981152,0.8745384592986385,0.7417078753340292,0.412496114076181,0.34125118537889043,0.9411764705882355,1
0.5838148727387743,0.8749830267177767,0.7391808799045803,0.4471006251258823,0.3412511853788902,0.9411764705882071,1
0.5817241862177424,0.8745372431892025,0.7419522928231349,0.4450638054601436,0.34043315420941234,0.9411764705882391,1
0.5864038631053319,0.8749840302136431,0.7387408551626612,0.41954270520044495,0.3404331542094125,0.9411764705882391,1
0.5822514006160324,0.8745364850750453,0.7420926718734647,0.4332331273113179,0.3396151230399343,0.9411764705882355,1
0.5839262457409794,0.8749845150986924,0.7382514792886566,0.4537273907083173,0.33879645328250196,0.9352941176470537,1
0.583016903946678,0.8745362987743609,0.7416919639528585,0.4262462630177892,0.3371603909435455,0.9352941176470466,1
0.5875062701966219,0.8749843781935516,0.7395046234235425,0.4196346336475418,0.3363417211861134,0.935294117647052,1
0.5853717807520772,0.8745367841144942,0.7416557114521484,0.44869032086847893,0.3363417211861139,0.9352941176470608,1
0.5844617104348309,0.8749835174892955,0.7392947952243046,0.44272094324115985,0.33634172118611383,0.9470588235294102,1
0.5822113053820795,0.874538049771252,0.7417564283023208,0.4132972920371228,0.3338869890897251,0.9470588235294066,1
0.5862851608221835,0.8749818137199541,0.7392263436258234,0.4299733480717996,0.3338869890897256,0.9470588235294262,1
0.5845628598180586,0.8745402293202709,0.7418113688244009,0.45235986262214145,0.33306895792024743,0.947058823529396,1
0.5856645415480857,0.8749791151961663,0.739176618794676,0.4310369666858632,0.3322509267507694,0.9470588235294084,1
0.5865946875962681,0.8745434967120718,0.7418619869963984,0.41744066827925147,0.3306142258238591,0.947058823529412,1
0.5879952966412779,0.874975220954493,0.7391167942731314,0.4429020393933476,0.3306142258238586,0.9470588235293995,1
0.5870832343166466,0.8745480855712038,0.7419517320105109,0.4502878254375963,0.3306142258238589,0.9470588235294155,1
0.5865892716197302,0.8749698578098908,0.7388873802164151,0.41898341234415754,0.3289775248969487,0.9470588235294031,1
0.5850731631178481,0.8745543172504575,0.7400800285315267,0.4256266823807311,0.32897752489694837,0.9470588235294279,1
0.5863713721699799,0.8749626453141037,0.7392991059660868,0.44994469346549343,0.3273414625579927,0.9470588235294084,1
0.5839498470285461,0.8745626453892431,0.7418473896013162,0.43117294418000573,0.32734146255799257,0.9470588235294084,1
0.5866112315760539,0.8749530381697975,0.738498877695223,0.4131781180184137,0.32652279280055974,0.9411764705882266,1
0.5861981741729948,0.8745737315303266,0.7412954047760754,0.44055787746367736,0.32570476163108153,0.9411764705882266,1
0.5886081551497625,0.8749402252722676,0.7386264917216466,0.44761752732284754,0.32652279280055985,0.9411764705882231,1
0.5861991001014397,0.8745885823805184,0.7406129841642215,0.42046136984691,0.3240680607041712,0.9411764705882373,1
0.5885167300872634,0.8749229392401814,0.7378810852391722,0.4271295580562037,0.323250029534693,0.9470588235294102,1
0.5857674565019965,0.8746088204269868,0.740388568056268,0.45144436066696,0.3232500295346931,0.9470588235293977,1
0.589344451947993,0.8748990610447902,0.7353905614029962,0.42918317780353954,0.3224319983652152,0.9470588235294102,1
0.585725337480813,0.8746372814612811,0.7397440983812862,0.4339362527508104,0.32161332860778247,0.9470588235293924,1
0.589120221980055,0.8748646779701863,0.7398706156880122,0.4460538491552086,0.3216133286077823,0.9352941176470448,1
0.5836288520936274,0.8746795834108667,0.740177081363654,0.42411461818986407,0.3183405653419162,0.935294117647036,1
0.5862933965743877,0.874811269234959,0.7370388905296944,0.4125362394217732,0.31915859651139417,0.935294117647052,1
0.5790811634015128,0.8747497471602015,0.7417374402458532,0.45118357158872785,0.3191585965113946,0.935294117647059,1
0.5841494638788807,0.8747124168157949,0.7386254751401752,0.4422224860130185,0.3191585965113946,0.9470588235294137,1
0.5875722254076752,0.8749128615535139,0.7413110714730035,0.41749812660511176,0.31752253417243853,0.947058823529412,1
0.5897764606031026,0.874214839753108,0.7387761400878786,0.4336339721563201,0.31670386441500603,0.9470588235294013,1
0.5880020231384325,0.8740737785309314,0.741141762522747,0.4514161184305871,0.3183405653419163,0.9470588235294102,1
0.5894942776421512,0.8728416324990147,0.7374235170431291,0.4197943737854824,0.31588583324552805,0.9470588235294084,1
0.5864175688570179,0.874949613006575,0.7394627081611778,0.43669445239954063,0.3150678020760496,0.9470588235294031,1
0.5918957549563411,0.8736432377484413,0.7390294000625252,0.4491654288886475,0.31588583324552766,0.9470588235294102,1
0.5820723162336663,0.8756677127393455,0.737675002787145,0.41755075756065063,0.3117944002222292,0.9470588235294084,1
0.5864318829425814,0.8764658248612909,0.7369822415928697,0.42981759250508894,0.31261306997966115,0.9470588235294155,1
0.5821372888089376,0.8728167440150421,0.7420787823845185,0.4542598398418139,0.3117944002222287,0.9470588235294031,1
0.5886844591876222,0.8759436750044403,0.7370872432292435,0.4220300716593185,0.3109763690527507,0.9470588235293977,1
0.585311469336917,0.8738418554599332,0.7413982713701921,0.42686312675215254,0.3109763690527508,0.947058823529396,1
0.5908542980721373,0.8755359695114475,0.7374031900516802,0.45387813572847724,0.3093396681258403,0.9529411764705902,1
0.5848360379920511,0.87407713584455,0.7409563939047651,0.4374991496092262,0.3085216369563622,0.9529411764705937,1
0.5900956741578861,0.8753775049816686,0.7374185159605279,0.41547222746403156,0.3085216369563624,0.9529411764705866,1
0.5862777329056977,0.8741945146205963,0.7413797946845775,0.4458333985284547,0.30770360578688466,0.9529411764705866,1
0.5904016155758148,0.8752842689072813,0.7354695492068098,0.44176548205260585,0.3077036057868842,0.9470588235293977,1
0.5852078909090042,0.874272948664425,0.7421932904402287,0.416156916931342,0.30606690485997395,0.9470588235294066,1
0.5897137323727543,0.8752148232035013,0.7385515621978225,0.4451994864018807,0.30606690485997373,0.9470588235293889,1
0.585038540269616,0.8743375025826122,0.7423693336173268,0.44643593300522866,0.3052488736904956,0.9470588235293977,1
0.5897448989493957,0.8751517949970198,0.737342580381389,0.41734195783708133,0.3044302039330637,0.9529411764705973,1
0.5872675738907392,0.8744023845901734,0.7391493487772545,0.4241111911432181,0.3044302039330637,0.9529411764705955,1
0.5919427564667122,0.8750807527137308,0.7353320376407677,0.4518271159937332,0.3036121727635853,0.9529411764705813,1
0.5874496593148995,0.874486610703458,0.7408011301155618,0.43413442884482384,0.30197547183667456,0.9529411764705706,1
0.5912194076430785,0.8749687882144872,0.7361127007432782,0.41944028338138306,0.301157440667197,0.9529411764705831,1
0.5877522864590943,0.874662074422391,0.7386708896524711,0.44443459463058,0.301975471836675,0.9529411764705742,1
0.5925402760715384,0.8729944135250495,0.7342085818525856,0.4430829546595537,0.3003394094977188,0.9529411764705813,1
0.5872152213903523,0.8735878249377353,0.7388841640318387,0.4167321264405418,0.2995207397402864,0.9529411764705955,1
0.5927813779260881,0.8753266281328371,0.7340017023488412,0.43793356864413185,0.2995207397402866,0.9470588235294084,1
0.5832640269223691,0.8743432218436245,0.7393509812874597,0.44829109740434325,0.29952073974028703,0.9470588235294208,1
0.5916497020499762,0.875091915906011,0.7357554723606984,0.41602153781280404,0.2987027085708088,0.9470588235294031,1
0.5862026929864441,0.8744978208281398,0.7411906814603079,0.4296428418348086,0.2978846774013306,0.9470588235293995,1
0.5924020778485547,0.8740904952067899,0.7363023809138517,0.4530637851641213,0.29788467740133073,0.947058823529412,1
0.5873932019295359,0.8739902375380308,0.7408278483887181,0.43128467010260585,0.29788467740133073,0.9470588235294084,1
0.5961906515864751,0.8725976738475125,0.7344973424980924,0.41341421405260664,0.2970660076438983,0.9470588235294226,1
0.5860406075537178,0.8714715762114622,0.7398221570365663,0.4448061542796716,0.2946112755475097,0.947058823529412,1
0.598781052362817,0.8740768063201398,0.7319638230508604,0.44580931833589543,0.29624797647441997,0.9470588235294155,1
0.5879089615081334,0.8720094955344835,0.7374941842681138,0.42042000434692844,0.2937932443780314,0.9470588235294084,1
0.5973392612511343,0.8739778392731794,0.7320828778410736,0.43766468799282676,0.29379324437803156,0.9470588235294013,1
0.5865360125514834,0.8725982756724913,0.7377343617250727,0.45001084698480487,0.2929752132085534,0.9470588235293924,1
0.5967161188783855,0.8704555649172045,0.7336853423518258,0.41682148317669315,0.292156543451121,0.958823529411756,1
0.5849444614752806,0.8736623180455033,0.737836578089542,0.4276957860056736,0.2913385122816428,0.9588235294117524,1
0.5965505260239802,0.8701100736464558,0.7334185586176931,0.45379266265958,0.2905204811121653,0.958823529411756,1
0.5854347598771154,0.8725080519669395,0.7393199774087327,0.4294558644322732,0.2905204811121648,0.9588235294117684,1
0.6028471421285658,0.8735526200738271,0.733568129974896,0.4163802488597523,0.28970181135473294,0.9588235294117649,1
0.5839269420216459,0.8745150277198155,0.7402934163644277,0.4491012526284085,0.2905204811121655,0.9588235294117577,1
0.6004627493595686,0.8667302899158742,0.7381155235208092,0.4408503851841905,0.2888837801852549,0.9588235294117613,1
0.5736825049373764,0.8946690672783948,0.7440245957688671,0.4205058906123756,0.28724707925834436,0.9588235294117577,1
0.5651826226397513,0.8503793578230332,0.6760442575100655,0.43691841569473466,0.28724707925834464,0.9588235294117649,1
0.7465486098632825,0.7752603008709464,0.5747106580265804,0.45457861136068606,0.2864290480888663,0.9588235294117791,1
0.9200882672052658,0.6890448751785995,0.5845832631777524,0.419043933216998,0.2856110169193884,0.9588235294117649,1
0.5668987770412479,0.7078708794958918,0.8105570690765281,0.4457681282307643,0.2847923471619559,0.9588235294117773,1
0.3113384103814765,0.6876691547964955,0.9346332375929562,0.4425900709136827,0.2921565434511211,0.9529411764705795,1
0.3073062277985648,0.7184364867147509,0.9543684208011014,0.4917079165551607,0.2921565434511206,0.9529411764705671,1
0.2473024315462964,0.7222837709147333,0.9439336622424629,0.4972390272177263,0.29788467740132996,0.9529411764705795,1
0.2623383421376644,0.7123385159503544,0.966869901451155,0.4812496641120222,0.2987027085708085,0.952941176470592,1
0.2491279358519787,0.713017979603397,0.9521379419423365,0.30007595346113847,0.30361217276358554,0.9529411764705831,1
0.2316099954325487,0.7009386795652962,0.9586954812347417,0.45198748341045014,0.30443020393306336,0.9529411764705831,1
0.31659024007006564,0.7107602518764983,0.9531793720374205,0.5143738525272165,0.30443020393306336,0.9529411764705866,1
0.23140662552593566,0.7019980966847827,0.9622867015329337,0.3782298462569222,0.30361217276358504,0.9529411764705831,1
0.30996846291807567,0.6435300614983158,0.9048208692026101,0.3411298123252839,0.3027941415941073,0.9470588235294084,1
0.7353739717782358,0.7174746758193079,0.7543078190309053,0.42491199598644275,0.30197547183667506,0.9470588235294084,1
0.7844356877234081,0.7592706569627194,0.48646345770781363,0.32421428806057423,0.29133851228164354,0.9470588235294155,1
0.7653930245237328,0.6654075618123835,0.345411016485343,0.38520973528307295,0.27988288296917885,0.9470588235294084,1
0.8076046048498361,0.5975228566764992,0.47908434680393486,0.44307197139597837,0.27906485179970064,0.9470588235294084,1
0.7710460789983692,0.6422601713511611,0.4874935596717454,0.5621386292056575,0.28397431599247736,0.9470588235293924,1
0.8030421225101445,0.594636600845548,0.29637818593480547,0.39808669976190886,0.2790648517997008,0.9470588235294031,1
0.8457500040586536,0.6480240782907195,0.48052639364653094,0.1018506740699639,0.28724707925834386,0.9470588235294066,1
0.7096988855932578,0.776083527990149,0.5726979531287628,0.5608111893959453,0.27742815087279044,0.9617647058823522,1
0.6144122648778951,0.8010379969482497,0.6977232986003153,0.5813147673396503,0.2741553876069235,0.961764705882338,1
0.6905158694653907,0.8395696833105383,0.706602820359773,0.5842058836629991,0.2741553876069237,0.9617647058823451,1
0.7019879817696171,0.8040257147739576,0.6574495991024266,0.6118056470620594,0.26924592341414705,0.9617647058823451,1
0.6688238142728237,0.8223817567707046,0.7044163188130275,0.17478790449176662,0.26760922248723645,0.9617647058823557,1
0.6539738231546813,0.8199838818189621,0.705337715587241,0.37576706409342076,0.2667911913177585,0.9617647058823451,1
0.6608509267593663,0.835603164083303,0.705962756449563,0.48445559678377315,0.26351842805189235,0.9617647058823486,1
0.6526418237771228,0.8273691566439763,0.6998485954205811,0.4828568671101681,0.2618817271249815,0.9617647058823433,1
0.6772464506026322,0.8427569893391667,0.6839949637175027,0.43157337723254763,0.2651544903908482,0.9588235294117471,1
0.6380512268185461,0.8339947847489892,0.7046304717487306,0.4627490792840197,0.2667911913177587,0.9588235294117613,1
0.6408591432642132,0.8517624726391412,0.7048806009552073,0.44950177571344563,0.26924592341414705,0.9588235294117649,1
0.6299809964607669,0.8456182219352598,0.7213755820639984,0.40040780112407603,0.2708826243410574,0.9588235294117684,1
0.604262093534371,0.8607237568440294,0.7255165674828992,0.4306774331805588,0.270063954583625,0.9588235294117506,1
0.6208671512017253,0.8529935218986533,0.7253169633505423,0.46259264416869594,0.27088262434105753,0.958823529411756,1
0.6252699380638816,0.8618326483079214,0.7231699213527646,0.43947924227612883,0.2708826243410569,0.9588235294117453,1
0.5809429288127047,0.8411319133981368,0.7694895911220054,0.42638362684486975,0.27006395458362514,0.9588235294117524,1
0.5815726779565588,0.8526554462513181,0.7546812267531868,0.4197600002468219,0.27088262434105753,0.9588235294117613,1
0.6311649465466679,0.8486572062234503,0.7212632968989354,0.3827290854155928,0.2749734187764021,0.9588235294117613,1
0.6242635233559275,0.8434791717185566,0.7291619446849358,0.4400493697086382,0.27170065551053535,0.9588235294117737,1
0.6442160210921313,0.8352088064067061,0.7229953172441332,0.4318741025813431,0.2684278922446687,0.9588235294117471,1
0.6320442354011183,0.8384738940239533,0.7246401889338662,0.4932241963150341,0.2700639545836245,0.9588235294117524,1
0.6493281622412967,0.8336706141652843,0.7130100284777489,0.43385751724790994,0.2708826243410572,0.9588235294117506,1
0.6450938381671948,0.8408377465168085,0.7091158723201735,0.3981545406531435,0.26679119131775814,0.9588235294117577,1
0.6510426271788373,0.8322734182015122,0.712863541631821,0.4432516879705756,0.2667911913177582,0.958823529411756,1
0.6443453054412376,0.8414842201591896,0.7102233264159248,0.4774349377380215,0.26679119131775814,0.9588235294117524,1
0.6538875313812931,0.8343487663906574,0.7125942307751059,0.4349541518389196,0.2659731601482803,0.9588235294117577,1
0.6413588923604966,0.8430680425650148,0.7104386106392018,0.3960523021825738,0.2651544903908478,0.9588235294117613,1
0.6434637713364416,0.8382788157097357,0.7159530186370658,0.4312206118029803,0.2643364592213695,0.958823529411756,1
0.6272653512474531,0.8463791828933629,0.7268261428409443,0.44480947039477475,0.2626997582944597,0.9529411764705831,1
0.6042756169892393,0.8383374267025221,0.7409000868773148,0.4148041111779427,0.26269975829445935,0.9529411764705795,1
0.6215621924094031,0.8526433620656989,0.7219731906255629,0.451273731016727,0.26269975829445946,0.9529411764705795,1
0.6591464998029816,0.8403921091391975,0.6953156436783572,0.4483389675836142,0.2626997582944595,0.9529411764705902,1
0.6555648843133799,0.8481700070792272,0.6836630984061989,0.42699820071351297,0.26269975829445946,0.9588235294117649,1
0.6628109154087191,0.8407170225658948,0.6837353290847616,0.484167500132666,0.26269975829445885,0.9588235294117435,1
0.6534741213179543,0.83802181181305,0.6909028585471979,0.4438793659724755,0.2618817271249816,0.9588235294117613,1
0.6836183064403936,0.7607949280969437,0.6326493523745886,0.4017077158409718,0.26024502619807066,0.9588235294117524,1
0.803216650771755,0.6806714540854069,0.4139801687293345,0.43640875423763764,0.2618817271249814,0.9588235294117649,1
0.943186936537514,0.5447420514033817,0.6184608272710824,0.40595727235961454,0.26351842805189196,0.958823529411756,1
0.7093286764768422,0.8308217037648838,0.4654808787238401,0.42914168262837477,0.2749734187764016,0.9588235294117453,1
0.657230050197025,0.8633126676409623,0.3761570027368851,0.46136972806342835,0.2553355620052945,0.9588235294117666,1
0.7349944426055361,0.8044604822903356,0.4436573088114788,0.5268420739294486,0.26597316014828076,0.9617647058823504,1
0.7630333313645185,0.6414441039654959,0.5126420131404896,0.33730714192189043,0.26351842805189224,0.9617647058823557,1
0.7727396589006003,0.5835147214882682,0.6806505792178796,0.6085387463380293,0.26351842805189224,0.9617647058823415,1
0.676240256574592,0.6562723008553892,0.8007268133537913,0.4344348650565588,0.2626997582944599,0.9617647058823433,1
0.36852550871398426,0.6937444679878126,0.9103420270907068,0.19106348486436353,0.2626997582944597,0.9588235294117649,1
0.4047003266464074,0.6851706113887469,0.9277012420829818,0.43110506569792967,0.26024502619807144,0.9588235294117524,1
0.41303801866192796,0.6744640639235611,0.9341322746715097,0.4363024458269061,0.2897018113547328,0.958823529411756,1
0.0647357706038606,0.6381292748852281,0.9378887330527497,0.5657304777914604,0.2888837801852546,0.958823529411756,1
0.14443472123282097,0.6985874304322555,0.9268300837204262,0.2751530940992128,0.3101583378832728,0.9705882352941106,1
0.7988192824851844,0.775730052585827,0.6537245712402693,0.5375691636638518,0.3077036057868842,0.9705882352941178,1
0.805143618479134,0.6962550092228736,0.5257874564476992,0.532396532083224,0.3044302039330637,0.9705882352941213,1
0.6718723498073528,0.6776280672700952,0.7855015932531002,0.2635132649913021,0.28315628482299976,0.9705882352941231,1
0.3818048319100483,0.717245593549115,0.8594122544063388,0.30567559338182143,0.27251868668001356,0.9617647058823522,1
0.32972435447579684,0.6968141801626667,0.9878564813929495,0.3406916382004922,0.2602450261980713,0.9617647058823557,1
0.5062773398723971,0.6740163421768841,0.8757245011981191,0.6481950417011086,0.30115744066719746,0.9617647058823522,1
0.6139485464493767,0.553136934764759,0.8169704816443327,0.3677731734212165,0.3093396681258401,0.9617647058823326,1
0.7553759950426263,0.814687393499905,0.30897256115225363,0.3687310635449209,0.3150678020760499,0.9617647058823611,1
0.7707490969320163,0.543075449694763,0.3799509644593518,0.5700245304860134,0.279882882969179,0.9617647058823522,1
0.7735784193937886,0.6683366169481858,0.363086586506571,0.5612319419129004,0.2962479764744199,0.9617647058823433,1
0.5433556285425181,0.8276019367720584,0.21781267736006998,0.6917973946157487,0.2872470792583442,0.9617647058823504,1
0.9999999999999999,0.6683539378366393,0.5021054095631721,0.039744511523564396,0.2626997582944597,0.9705882352941284,1
0.791460202537906,0.7717196641226378,0.6893501635761835,0.3304510563159926,0.258608963859115,0.9705882352941213,1
0.21143695513959457,0.6375732096401583,0.9338513913411048,0.6116516975347932,0.26597316014828015,0.9705882352941071,1
0.33212372376692645,0.6902245736506961,0.9769401295067054,0.4633745070679281,0.2995207397402867,0.9705882352941195,1
0.5790222331829453,0.7592627639894023,0.7255656308154933,0.4695082468617153,0.300339409497719,0.9705882352941195,1
0.7450126449375035,0.85099737007327,0.5799142002370228,0.293403288565229,0.2872470792583444,0.9705882352941195,1
0.7180201566501662,0.7329777486806126,0.7733923240884575,0.392860602162773,0.2708826243410569,0.9705882352941124,1
0.6634844640996826,0.7850614630527548,0.7197861094595531,0.6116528340730252,0.2602450261980712,0.9705882352941213,1
0.6544159269633589,0.7788059224403904,0.7503188840183243,0.567935676283134,0.2586089638591149,0.9588235294117613,1
0.6813683206295239,0.7872431584672813,0.732619034383285,0.3450677450116579,0.25860896385911486,0.958823529411756,1
0.6399650981329982,0.7903765324201194,0.764156332799369,0.3185950048099749,0.26515449039084815,0.9588235294117613,1
0.614119238858856,0.8171855571795991,0.7640724592616585,0.37271756567186515,0.2651544903908479,0.9588235294117666,1
0.5869353398742186,0.8148412468540392,0.7915506455499646,0.4361251867251689,0.26597316014828054,0.9617647058823522,1
0.5803445918400495,0.829085595501116,0.7837492976780573,0.39847283593937005,0.26842789224466884,0.9617647058823522,1
0.5839972759041795,0.819364507135476,0.7997502505371712,0.48015163889207946,0.2708826243410574,0.9617647058823522,1
0.570196053282217,0.8301212808802005,0.7885362009209225,0.4738649591430379,0.2725186866800134,0.9617647058823522,1
0.5836302115633578,0.8230212276177897,0.7980649447985615,0.44723564397587506,0.2725186866800134,0.9588235294117577,1
0.5554403709639423,0.8216145426791045,0.7998451056985989,0.4027230519753563,0.2725186866800135,0.9588235294117702,1
0.6106990706029269,0.8131295500569304,0.7858352887652738,0.4556275175436268,0.2717006555105356,0.9588235294117649,1
0.5647272604608401,0.80812858842979,0.7951837051185752,0.44849162990698055,0.27333735643744544,0.9588235294117524,1
0.47631178446157707,0.780534973923494,0.8925301051269896,0.39566488997471405,0.2847923471619557,0.9617647058823522,1
0.5741724127869724,0.8158224271769112,0.8246204775592756,0.4614264164068528,0.2937932443780318,0.961764705882354,1
0.5805458977052095,0.7987872425910574,0.7842461656470653,0.32583530240725883,0.2929752132085538,0.9617647058823628,1
0.7554640362025953,0.8248588246201951,0.554460387540324,0.454733785312319,0.2897018113547322,0.9617647058823593,1
0.7240023131692033,0.7644952093209538,0.7566328954488919,0.6091097046922228,0.2676092224872362,0.9705882352941106,1
0.6364435509937026,0.790592851115564,0.713561011836589,0.30288956669115924,0.26515449039084793,0.9705882352941106,1
0.6822383222725695,0.7603579831550458,0.7584562233184524,0.3936282057900868,0.2643364592213698,0.9705882352941213,1
0.6957384297349904,0.7714856978480717,0.7090700477397991,0.5720698138386399,0.2700639545836242,0.9705882352940982,1
0.684672309032431,0.7602076099316366,0.7357957795670634,0.45881167820540025,0.270063954583625,0.958823529411756,1
0.6972778931945675,0.7676987170100054,0.7107869725210245,0.2930923263209876,0.26924592341414655,0.9588235294117524,1
0.6884930904815183,0.7598065253077653,0.7309706859783128,0.46204839918206403,0.26924592341414644,0.9588235294117435,1
0.6981214032794447,0.7679505423767008,0.7103144925017456,0.4510872445815569,0.2708826243410573,0.9588235294117613,1
0.6877303776758679,0.7591659243778168,0.7311103383895396,0.414631884390786,0.27006395458362503,0.9705882352941284,1
0.6958675372284886,0.7685131203206514,0.7099490921363176,0.4317695470125828,0.27006395458362475,0.9705882352941053,1
0.6846626520607074,0.7625403507291674,0.7284789492535878,0.46808856431470003,0.2717006555105356,0.9705882352941142,1
0.6929153664126801,0.7692437652972323,0.7139075919702648,0.3976399057420246,0.27088262434105764,0.9705882352941142,1
0.6866700478296823,0.7624201892305041,0.7285076378195875,0.43620798196294774,0.2717006555105356,0.9617647058823522,1
0.695349122932559,0.7698837033292585,0.7163679213464796,0.4576658529245867,0.27006395458362514,0.9617647058823486,1
0.6850850396596537,0.7652387754689631,0.7273611443288401,0.4177684101151791,0.27006395458362514,0.9617647058823486,1
0.6931540091899158,0.7715980038080759,0.7111633689259965,0.4213472103686179,0.27006395458362514,0.9617647058823522,1
0.6841743922630501,0.7631611149291995,0.7263187482102361,0.4811261132473789,0.27006395458362503,0.9617647058823593,1
0.6915383686797661,0.7705249834530324,0.7175384244291504,0.4167972536164541,0.27088262434105753,0.9617647058823611,1
0.6855553041165603,0.7647666429877751,0.7263023689506798,0.4190412447985914,0.2717006555105354,0.9617647058823433,1
0.6931194195456638,0.7708631260038619,0.7150236089811798,0.4684733042699763,0.2717006555105354,0.9617647058823451,1
0.6845860113566377,0.7657967600099189,0.7251650997787701,0.4611406579825254,0.27170065551053535,0.9705882352941018,1
0.6916403912044929,0.770684806624494,0.7151232456029282,0.3988252269664998,0.2717006555105356,0.9705882352941231,1
0.6854170903406304,0.7661687528325121,0.7262041819967332,0.4327019345883135,0.2700639545836251,0.9705882352941178,1
0.6932629829626292,0.7723629567857155,0.7163204191078095,0.4659434266342143,0.27251868668001356,0.9705882352941142,1
0.686917041059115,0.7662088417164021,0.7228427892767042,0.43307831062362134,0.2700639545836245,0.976470588235296,1
0.6913703412994957,0.7694893511428079,0.7171130279408646,0.40470602944680517,0.27006395458362514,0.9764705882352835,1
0.6857728812672783,0.7661097598930293,0.7266051070249574,0.45115272197991274,0.27088262434105714,0.9764705882353013,1
0.6926219482663395,0.7692170529585872,0.7166200527576739,0.4452931514392085,0.27088262434105703,0.9764705882352889,1
0.6847126891565631,0.763916012574227,0.7236794133582047,0.4033617772362116,0.2692459234141468,0.9617647058823433,1
0.7017840947394661,0.7707703352529967,0.6934302543436843,0.427422262307384,0.27006395458362525,0.9617647058823557,1
0.7280638980855461,0.7693180774384254,0.6514146739824257,0.46029336043208113,0.2708826243410574,0.9617647058823646,1
0.741402881971585,0.7820711586533309,0.6069454321024872,0.42993410425902306,0.2692459234141468,0.9617647058823433,1
0.7407353604107686,0.7810511541173007,0.6082234597282914,0.41186967267281965,0.2708826243410577,0.9617647058823611,1
0.7349800843461013,0.7872215132591898,0.6071696530186717,0.477014618470084,0.270063954583625,0.9617647058823415,1
0.7344621350302631,0.7812663618106038,0.6158067743614266,0.4576613788662434,0.27088262434105714,0.9617647058823309,1
0.7293175038079662,0.7812031427861594,0.6394772407422495,0.39412879596577743,0.27006395458362525,0.9617647058823611,1
0.729819658378105,0.7743487297156713,0.6546254159389457,0.42157574261463365,0.2717006555105357,0.9705882352941231,1
0.732583272813587,0.803574807770097,0.6423969522498394,0.4256253878501058,0.27170065551053507,0.9705882352941018,1
0.665514513663306,0.8282074878476483,0.6549174073961799,0.4088727962389221,0.2725186866800135,0.970588235294132,1
0.6611864817398158,0.8259008106513303,0.7065909070177542,0.4059097399890174,0.26924592341414727,0.9705882352941071,1
0.6631698632982612,0.821893747026851,0.7147638955109783,0.47292667709849506,0.2717006555105352,0.9617647058823451,1
0.6084725197668073,0.812437525257123,0.7616958630170092,0.43925994498179827,0.2717006555105354,0.9617647058823451,1
0.6441992893012841,0.7911675228665059,0.7717756175540635,0.40856800141809035,0.2815195838960892,0.961764705882354,1
0.6462095147668215,0.8022500621285411,0.7451026023157843,0.5105949480065924,0.2897018113547329,0.961764705882354,1
0.6405158645865041,0.7781861763010942,0.7263250777290697,0.4096933786704059,0.2897018113547328,0.9705882352941231,1
0.7837482402096192,0.7752561176925803,0.562167147492163,0.2890959984272823,0.2880657490157764,0.9705882352941178,1
0.7460869413809215,0.7607672613138247,0.5778218238109473,0.5068135420503337,0.28151958389608966,0.9705882352941231,1
0.7661459765359997,0.7754854966106204,0.5437953157529376,0.5470632155581231,0.27497341877640175,0.9705882352941124,1
0.757541008761858,0.7707719166623935,0.5513757571703232,0.4731843118453435,0.27170065551053507,0.9617647058823522,1
0.7595359116953097,0.7781636955395452,0.5359843002736329,0.43779778742884073,0.27251868668001344,0.9617647058823504,1
0.7557002302528935,0.7749032728962314,0.5510889317668969,0.4327196637211593,0.2717006555105356,0.9617647058823646,1
0.7521340161958575,0.7867938365335809,0.5468589688783976,0.4506564034640017,0.27170065551053546,0.961764705882354,1
0.7551177761350488,0.7901008368407777,0.5830560929957601,0.3576084612839238,0.27251868668001367,0.9617647058823486,1
0.6549328604580277,0.8150427385570566,0.7050917835571543,0.38101500547231826,0.27170065551053574,0.9617647058823557,1
0.5716496025446168,0.8058466931715157,0.8006620088132534,0.4474582145553766,0.269245923414147,0.9617647058823504,1
0.5349746267582812,0.8107715149818976,0.8225581699090954,0.4029336830308023,0.2807015527266112,0.9617647058823433,1
0.38010328612825806,0.763672536053176,0.9218774590072614,0.462800084195243,0.2823376150655676,0.9617647058823522,1
0.6482446066920652,0.7820645720817231,0.7739796531989664,0.4694220632673803,0.2872470792583445,0.9617647058823646,1
0.718830206989373,0.8059319411635242,0.6628920479962953,0.3923564135376196,0.28806574901577653,0.9617647058823433,1
0.6981391726963604,0.812911068303927,0.6493396369235988,0.3320583251768663,0.2774281508727904,0.9617647058823557,1
0.6906071095420031,0.8166535037633538,0.6668534725481408,0.5622892988008794,0.2774281508727901,0.9588235294117577,1
0.6894264021117421,0.8176391860265084,0.6629491468735131,0.47949234008701425,0.2757920885338345,0.9588235294117577,1
0.7097909034138238,0.8185952029945758,0.6800482941195083,0.4436369610451414,0.275792088533834,0.9588235294117613,1
0.6663540667898591,0.8455951711845118,0.6697958182521303,0.3676791096890704,0.2757920885338343,0.9588235294117737,1
0.6124783553459583,0.8624319489101232,0.7089722946700222,0.43043601092423206,0.27661011970331273,0.9617647058823646,1
0.5911479382208816,0.8727275943761852,0.7162388871270704,0.41425647827302375,0.2766101197033124,0.9617647058823522,1
0.5816744774708482,0.8622262502994614,0.7553754253352903,0.42089810712952336,0.2749734187764018,0.9617647058823628,1
0.6056887981015727,0.8578603831869496,0.7433193021008222,0.45130797412517826,0.2749734187764023,0.9617647058823557,1
0.6037372045491918,0.8579462999552951,0.7311473864538676,0.41477090024459323,0.2757920885338343,0.9588235294117737,1
0.6104642327235972,0.8574565303202287,0.7345621256967203,0.40708339949808675,0.27661011970331273,0.9588235294117631,1
0.6087331054293489,0.8555521694130204,0.7358490477354432,0.39224396379074694,0.2757920885338345,0.9588235294117577,1
0.6129236217319094,0.8545877887856363,0.7358469114957846,0.4494860776177871,0.27824682063022327,0.9588235294117826,1
0.6054766543820693,0.853409590211605,0.7375784773968704,0.5011990446417679,0.2807015527266112,0.9617647058823451,1
0.6108722583553188,0.855347776465361,0.7357690462914025,0.49605006519946476,0.2807015527266114,0.9617647058823504,1
0.6088836445765072,0.8526148303254992,0.7422736593817911,0.4562733229501631,0.2798828829691791,0.9617647058823611,1
0.6143817581816112,0.8549167039705327,0.7343496488646024,0.40152324857658955,0.28070155272661135,0.9617647058823646,1
0.6060187522227443,0.8527554461658273,0.7413163469413206,0.4227555128380224,0.2815195838960892,0.9617647058823611,1
0.6133055742925765,0.8547552483970448,0.7352443134979468,0.4390810103448658,0.2790648517997012,0.9617647058823522,1
0.6090266909760939,0.8531139556649312,0.7389813022240396,0.42217135258765925,0.2782468206302229,0.9617647058823433,1
0.6128993821430024,0.8552289037943218,0.7365063965540666,0.41744212404803405,0.27742815087279005,0.9617647058823486,1
0.6027942869046433,0.8527229839189936,0.7452553280044312,0.4552182012553251,0.2782468206302228,0.9617647058823557,1
0.6004827148577992,0.8574559372569377,0.7460352670449746,0.44385187843882773,0.2757920885338346,0.9617647058823593,1
0.5959787082344031,0.8517328099721237,0.7556237635866101,0.4162771272991401,0.27579208853383425,0.9617647058823504,1
0.595940900951702,0.8556309508776864,0.7484503746082569,0.4244141318974905,0.2733373564374458,0.9617647058823486,1
0.5930373913228828,0.8520688289189239,0.7569173009341935,0.4523283200637756,0.27251868668001367,0.958823529411756,1
0.5962801391427237,0.8555089728439802,0.7502431652551197,0.4296004945345269,0.2725186866800138,0.9588235294117737,1
0.5961308442851095,0.8520917789816406,0.7593328675086735,0.4253163762610466,0.27170065551053546,0.9588235294117577,1
0.597996398576552,0.8555778412900126,0.7501357758311413,0.44062756600698755,0.2708826243410573,0.9588235294117649,1
0.5951629143824804,0.8518468754645647,0.7600938215175963,0.42894005003852115,0.27088262434105725,0.9529411764705866,1
0.5975374107452817,0.8567398540061943,0.7413873116034706,0.40879842375868003,0.270063954583625,0.9529411764705813,1
0.593781431359017,0.8532904010925294,0.7486625733948906,0.45406611907108974,0.26924592341414716,0.9529411764705902,1
0.6125920324217822,0.8502257637703201,0.7425006527022133,0.4419336546198921,0.26924592341414694,0.9529411764705937,1
0.613932060556075,0.8485659783750406,0.7429201793910811,0.414786958098589,0.26842789224466923,0.9588235294117577,1
0.6089665279031244,0.8531223736928836,0.7380412997159894,0.44655492883579045,0.2684278922446688,0.958823529411756,1
0.6106425343536431,0.8513661518351114,0.7431342978310977,0.4622004850922329,0.2676092224872362,0.9588235294117577,1
0.6090567250807023,0.8556474873057407,0.7357353340543686,0.40150500182151144,0.2676092224872365,0.9588235294117613,1
0.6086725446891637,0.8520569701896258,0.7421111980533166,0.4118816229096336,0.26679119131775847,0.9529411764705742,1
0.6096662253640867,0.855551057745389,0.7376319967495811,0.4383308476673611,0.26679119131775836,0.9529411764705848,1
0.6070058726303732,0.8519960722504882,0.7442137009085232,0.42806733517207396,0.2659731601482804,0.9529411764705848,1
0.6066870434676388,0.8574103685741314,0.7360781297413723,0.45309233756668454,0.2667911913177583,0.9529411764705866,1
0.6038088060733999,0.8539590740606471,0.7432829683484993,0.46736771285145773,0.26515449039084793,0.9529411764705866,1
0.6052251686408899,0.8569093065008253,0.7339163547857648,0.4185294047631693,0.2643364592213697,0.9529411764705795,1
0.6052018950492042,0.854522863324287,0.7447788516283765,0.4231624833814305,0.26515449039084804,0.9529411764705937,1
0.6041040908986798,0.8577855758654579,0.736344551349058,0.45413084017788796,0.2643364592213696,0.9529411764705742,1
0.6041130831466779,0.8536389129742556,0.7459966810739518,0.43995698625975616,0.26269975829445935,0.9529411764705724,1
0.603977829302264,0.8556368365365744,0.7351808068293854,0.4154503189994325,0.26269975829445974,0.9529411764705937,1
0.6069264647700388,0.8518343562563927,0.7478000368939417,0.44621817421966853,0.26269975829445963,0.9529411764705831,1
0.6049820187863871,0.855933704271164,0.7330666833835776,0.44141149365083987,0.2618817271249813,0.9529411764705724,1
0.6058383126581415,0.8514606839559555,0.7490252996494503,0.4236035303272238,0.2618817271249816,0.9529411764705831,1
0.6049417693885827,0.8564565110693724,0.7313817032119143,0.43709674238615587,0.26024502619807127,0.952941176470592,1
0.6054928873113644,0.8507464473686781,0.7533215929976322,0.44640355308911545,0.2594269950285929,0.9529411764705973,1
0.5920933739730663,0.855639712947031,0.6991725398490733,0.4167151488158491,0.25942699502859284,0.9529411764705795,1
0.6400971011554494,0.775806726474459,0.7904593471656906,0.4303486372682675,0.2586089638591151,0.958823529411756,1
0.6613980978988665,0.7164160017272808,0.7907477642538652,0.4470461563512913,0.25942699502859334,0.9588235294117577,1
0.7766394228485445,0.7237532949980962,0.6258306038172078,0.4430621554997353,0.25942699502859307,0.9588235294117684,1
0.766385049811138,0.6885910401449054,0.656017749273496,0.412411928829286,0.26024502619807083,0.95882352941174,1
0.732844739313129,0.7173097776380398,0.6885974132773764,0.4569189299003012,0.26024502619807094,0.9529411764705742,1
0.6983424649483956,0.7703459997633315,0.6840197890091844,0.5279953425696049,0.2545175308358161,0.9529411764705937,1
0.6974723116809469,0.789113271191522,0.6706311366676355,0.3967190792680953,0.25451753083581624,0.9529411764705831,1
0.7049321617221084,0.7864009262598414,0.68297428586979,0.38450036134013654,0.25369949966633804,0.9529411764705813,1
0.7033826975595989,0.7871364339584895,0.6747344030609126,0.510035154881655,0.2528808299089057,0.9470588235294102,1
0.7187595009278902,0.7845129796623551,0.6664089247348282,0.37742374083616376,0.25124476756994973,0.9470588235294137,1
0.7258734422127141,0.7848226478066006,0.6297844312529769,0.3173826655490023,0.2512447675699501,0.947058823529412,1
0.7290849707898106,0.7854974176518084,0.6194769297629975,0.44847361695599913,0.2953858827360946,0.9470588235294102,1
0.7292654573746229,0.7883395465900269,0.6244840030497905,0.4546831351554237,0.2970219450750505,0.9529411764705902,1
0.7276875987227576,0.788156316503178,0.6225439188813784,0.4425088933503909,0.2945672129786622,0.9529411764705973,1
0.7273319691455128,0.7876115768330224,0.6262794033507868,0.43991560882273445,0.29538588273609434,0.952941176470592,1
0.7307798227182812,0.7893449109883071,0.6266051986374264,0.4032140643595892,0.29374918180918386,0.9529411764705866,1
0.7283243626179547,0.7895848909380077,0.6276844910752944,0.41283413097095156,0.2937491818091836,0.9411764705882408,1
0.7307287710323521,0.7902496734382523,0.6264942101962162,0.44400658049763586,0.2929311506397063,0.9411764705882373,1
0.7262337512677399,0.7878860595325821,0.6267839235370304,0.4506504414978346,0.2921124808822737,0.9411764705882284,1
0.7298469462506081,0.7893856270647706,0.6263056199548543,0.42614378363732647,0.29047641854331724,0.9411764705882408,1
0.7267684714002282,0.7877732701434479,0.6269727454761841,0.43550204188223945,0.29047641854331724,0.9529411764705795,1
0.7307859640677661,0.7894065894800095,0.6270877386809082,0.4628949384690764,0.2888397176164068,0.9529411764705902,1
0.7267711930337378,0.7876939301884368,0.6267393150802257,0.4269884467558553,0.2904764185433172,0.9529411764705902,1
0.7320530358373429,0.7893365388220361,0.6253019627961207,0.42812752980398144,0.29047641854331735,0.9529411764705777,1
0.729292096585109,0.7880517910326285,0.6287458188379673,0.45888972804649886,0.288839717616407,0.9529411764705937,1
0.7305188214114414,0.7893573636287219,0.6250598922706749,0.44318200003262215,0.2888397176164069,0.9529411764705831,1
0.7284107916099613,0.7880200299968236,0.6274823326780177,0.42126472045772145,0.28802168644692905,0.9529411764706044,1
0.7280749897440951,0.7885848068069115,0.6271659425853027,0.4424436404887695,0.2880216864469289,0.9529411764705937,1
0.7284932094083497,0.7885103458870816,0.6283147640984881,0.44731441725274895,0.2872030166894968,0.947058823529412,1
0.7287129460924534,0.7889908269654557,0.6269588705262511,0.42954013441601935,0.28638498552001856,0.9470588235294226,1
0.7292485881571031,0.7896413336682242,0.6274207247349342,0.4353440479853778,0.2863849855200185,0.9470588235294191,1
0.7318041917572985,0.7907711017599777,0.6252351252906772,0.44780233312821116,0.28556695435054025,0.9470588235294084,1
0.7271794017962072,0.7866164288695575,0.626704648141079,0.42989330129172426,0.2855669543505402,0.9470588235294031,1
0.7276237039042156,0.7896190035293772,0.6248721807758922,0.42271913437904546,0.2847482845931081,0.9470588235294084,1
0.7262891174028262,0.7866379760827982,0.6263759519693046,0.4428413387468253,0.2847482845931081,0.9470588235294208,1
0.7280811696423475,0.7897243448169251,0.6269372789615559,0.4414205284936929,0.2839302534236297,0.9470588235294155,1
0.7283693581177607,0.7892154351955512,0.6258155062058877,0.4223844199304808,0.2839302534236302,0.9470588235294137,1
0.7331733401407582,0.7908692396739267,0.631950206814595,0.42784117516758485,0.2831122222541518,0.9470588235294226,1
0.7238706119659006,0.7852117841653571,0.624972608896812,0.4475876215649177,0.2831122222541519,0.9470588235294031,1
0.7339594696201978,0.7864637373962182,0.6118780529745587,0.43068965153057837,0.2822935524967195,0.9470588235294066,1
0.730963538415908,0.782922031835728,0.6267296170417742,0.4216383269931118,0.28229355249671956,0.947058823529412,1
0.7309163996865546,0.7850622482578719,0.6229806787906412,0.44119174413092754,0.2831122222541519,0.9470588235294031,1
0.7311238615620665,0.783751774137513,0.627380098702119,0.45772845640420523,0.2831122222541521,0.9470588235294031,1
0.733599913260622,0.7861926538671081,0.6238586301397107,0.4247573048392462,0.28311222225415195,0.9470588235294226,1
0.726575980103383,0.7869070312342642,0.6300066471677872,0.415179170541499,0.2831122222541521,0.9529411764705937,1
0.7275526549176011,0.7910310876073399,0.626160023815854,0.437793471298337,0.2839302534236302,0.9529411764705937,1
0.7246113130174009,0.789415053296812,0.637391301835932,0.43270059254420234,0.28229355249671995,0.9529411764705937,1
0.7242039860748134,0.7924345703688285,0.6304185778690161,0.4201290454919766,0.28311222225415167,0.9529411764705777,1
0.7152994955119395,0.7904994757286157,0.6484955516939175,0.43947579584539576,0.28393025342362993,0.9470588235294191,1
0.7203342066474462,0.7923614771963219,0.6424672864620986,0.442427353267288,0.28311222225415245,0.9470588235294155,1
0.7151369807109229,0.7905342288652301,0.6472371256020737,0.42565699362528236,0.2814755213272415,0.9470588235294155,1
0.716525226031211,0.7916165749995333,0.6436661039073567,0.4322055460743571,0.28065749015776364,0.9470588235294102,1
0.7151622731995847,0.7900863610822229,0.648534621645474,0.4457377224714424,0.2806574901577639,0.9470588235294226,1
0.7183905448137604,0.7928910423062514,0.6409711848566157,0.4346862172865793,0.27983882040033126,0.947058823529412,1
0.7199654497265839,0.7897327902131046,0.6501538810870751,0.4305971612274794,0.27983882040033115,0.9470588235294155,1
0.7191791218416596,0.7924951820882438,0.6421652924105298,0.4497958176994954,0.27902078923085316,0.947058823529412,1
0.7206637292762506,0.7929282593133651,0.6469535656753829,0.4324591676056923,0.27902078923085316,0.9411764705882355,1
0.7137466520143629,0.8031449614290648,0.6440602718132097,0.4189535131578739,0.278202758061375,0.9411764705882391,1
0.6933234625291739,0.8078198630536519,0.6564555274862363,0.43582272169397535,0.2782027580613751,0.9411764705882426,1
0.7074383377941585,0.8066170778146803,0.649292080225072,0.44846614265765594,0.2773840883039425,0.9411764705882266,1
0.7051854557622623,0.8038642763628993,0.6554138646747503,0.4198057729227863,0.2773840883039428,0.9470588235294137,1
0.7131208684725856,0.8043907077074068,0.6479133222499519,0.42920258577845516,0.27738408830394207,0.9470588235293977,1
0.7090148864124363,0.8038099301207203,0.6574166754523869,0.45006727410333214,0.27738408830394284,0.9470588235294102,1
0.7056288652344298,0.8121128617559531,0.6518890459490319,0.4326975859884289,0.2773840883039427,0.9470588235294084,1
0.6945103802739583,0.815636802407663,0.6610529101972842,0.42031990161976707,0.2765660571344645,0.9411764705882391,1
0.6944203258750091,0.8219826438103837,0.6538829143969984,0.4432771646545197,0.2765660571344646,0.9411764705882391,1
0.6878199318649296,0.8190387679414353,0.6661587633037134,0.4303908735490599,0.2757480259649867,0.9411764705882391,1
0.6984331307429625,0.8207675461461121,0.654607939276568,0.4217095466797627,0.2773840883039425,0.9411764705882391,1
0.6945323148000194,0.8170170811677543,0.6668089315393727,0.4436385970332633,0.27656605713446447,0.9470588235294066,1
0.6963062399908019,0.8210592686288265,0.6505045473740505,0.4477442348512577,0.27656605713446447,0.9470588235294102,1
0.6936942962450361,0.8176701574355748,0.6697109038785161,0.43146573558932333,0.27492935620755404,0.9470588235294137,1
0.6984654436239343,0.8241710172075967,0.648123602947079,0.4263305968336334,0.2749293562075537,0.9470588235294031,1
0.6778489157966379,0.8265412782250308,0.6838000573424243,0.4428558832562055,0.2749293562075542,0.947058823529412,1
0.6680237320358646,0.8309263848114147,0.6519521296334826,0.42999998674155687,0.27411132503807645,0.9470588235294155,1
0.6634958795135127,0.8031956804082304,0.7559390716180606,0.41811620149910655,0.2724746241111658,0.9470588235294102,1
0.6704855416466156,0.8092799911856912,0.7317693323869896,0.4462370723435456,0.274929356207554,0.9470588235294084,1
0.6015018060522778,0.8211287357599245,0.7238268095684154,0.41579856986953145,0.2773840883039428,0.9470588235294102,1
0.688480775802905,0.8176433155635281,0.689237633842312,0.43418123384603224,0.2749293562075544,0.947058823529412,1
0.6752178372032803,0.8104218977397976,0.649011908803072,0.501361839745581,0.27738408830394284,0.9470588235294262,1
0.7142217665457424,0.7871842439720775,0.6683985418286871,0.5281477221888686,0.2757480259649863,0.9470588235294031,1
0.7458858368305369,0.7768750057256164,0.6321323938245011,0.38259249551179614,0.27574802596498643,0.9411764705882266,1
0.703137351404667,0.7768064396341561,0.6755890385768156,0.4295744615040804,0.2724746241111658,0.9411764705882284,1
0.7354673601466004,0.7892805670406822,0.6307790022539009,0.4296673743138557,0.27165659294168715,0.941176470588232,1
0.7133340902074539,0.7820943998131937,0.6611030588308112,0.35414087034385416,0.27247462411116574,0.9411764705882302,1
0.7303314600946765,0.7895336525738561,0.632062616535358,0.41132518992211275,0.2724746241111655,0.9470588235294013,1
0.7158724362718083,0.7883403354946037,0.6528000018060167,0.4366980433966647,0.2716565929416877,0.9470588235294208,1
0.7234738348989693,0.7924642244348149,0.636727141636727,0.41610031525247554,0.2732932938685981,0.9470588235294208,1
0.7170138128095738,0.7898460019246685,0.6491309585969223,0.39169171726397944,0.272474624111166,0.9470588235294137,1
0.7214678855233354,0.7917108386649376,0.6390550278183212,0.429396222874221,0.2724746241111657,0.947058823529412,1
0.7181655437092545,0.7904979397421403,0.648206760569599,0.3880972496530106,0.27247462411116563,0.9470588235294084,1
0.7220508054442413,0.7905736469039888,0.6396349947023161,0.4560334129303098,0.27165659294168776,0.947058823529412,1
0.7197515096655135,0.7893193003458411,0.6450999287300498,0.43789499439638435,0.27165659294168776,0.9470588235293977,1
0.7233014871891201,0.7907382769442846,0.6403961211245367,0.429234984122275,0.27083856177220944,0.947058823529412,1
0.7190715244694441,0.7891707788929347,0.6474052936604618,0.45928954176214076,0.27083856177220966,0.947058823529412,1
0.7201805974956581,0.7922259804742177,0.6396648527986013,0.4602526712885195,0.27083856177220966,0.947058823529412,1
0.7172759871188132,0.7918676259704936,0.6463206091716962,0.42540002503761337,0.2700198920147771,0.9470588235294102,1
0.717239839478364,0.7922590177118578,0.6401609926333401,0.45578407340616794,0.2700198920147771,0.9470588235293977,1
0.7153545010271856,0.7920206244874285,0.6463315907740896,0.4629406722483511,0.26838382967582064,0.9470588235294013,1
0.7188038980375617,0.7947803247877381,0.6420739180082691,0.4402876394798395,0.268383829675821,0.9470588235294031,1
0.7182538155648263,0.7939866031515213,0.6457816002363752,0.4255183954116085,0.26756515991838864,0.9470588235294084,1
0.7165724486783372,0.7935713852211593,0.6427695519681745,0.45967255930189793,0.267565159918389,0.9470588235294102,1
0.7156576924426544,0.7947802816787394,0.6470520951961557,0.4411120967339427,0.26674712874891093,0.947058823529412,1
0.7174667287121413,0.7973935083450504,0.6422556196971702,0.42018056170730617,0.26674712874891077,0.9470588235294084,1
0.7142101235333634,0.7957341266969672,0.6459984867854405,0.4396458970377493,0.2659290975794328,0.9470588235293977,1
0.7148031144811732,0.7969462048936614,0.6422927898950315,0.453181262139547,0.2659290975794329,0.9470588235294031,1
0.7166968699559941,0.7974553992956015,0.6443280181344395,0.42220374421487755,0.26511042782200067,0.9470588235294102,1
0.7138496870811283,0.7942941650198567,0.6419803845663825,0.41630509504523106,0.2651104278220002,0.9470588235294155,1
0.7145234612365687,0.7944653583734113,0.6442660092142527,0.443195012905792,0.26511042782200056,0.9470588235294031,1
0.7150853455340631,0.7964893385331364,0.6422336129131606,0.4450431606687293,0.26429239665252224,0.9411764705882284,1
0.7148688226682666,0.7953526016951618,0.6451688467862087,0.4186047439785885,0.2634743654830445,0.9411764705882408,1
0.7178619582425232,0.7956817523763713,0.6418398234127655,0.4291390784430665,0.2634743654830441,0.941176470588232,1
0.7140745401827414,0.7955524016240726,0.645321160299412,0.4449760721396419,0.2634743654830443,0.941176470588232,1
0.7173143313152602,0.7944555146609853,0.6419123780361162,0.43312330485778455,0.26347436548304437,0.9470588235293995,1
0.7144648494662411,0.7956634338784856,0.6448722674348132,0.42220740650811445,0.26183766455613383,0.9470588235294084,1
0.7181534239440571,0.7947327366965706,0.6426647899467435,0.4460558712244993,0.2626556957256116,0.9470588235293995,1
0.7155886209220839,0.7954153811366753,0.6447996244733356,0.4349838993524834,0.26183766455613383,0.9470588235294155,1
0.7165494118286172,0.7957038977945244,0.6424375943286174,0.4168366860745522,0.26183766455613394,0.9411764705882355,1
0.7168315889910063,0.795857830893731,0.6438255747779585,0.4384143204129052,0.2610196333866558,0.9411764705882266,1
0.7144838651491872,0.794897492503247,0.642653085539131,0.44694084309094717,0.2602009636292232,0.9411764705882302,1
0.7163588771339998,0.7957841136983093,0.6457134893734098,0.41706355188037497,0.25938293245974564,0.9411764705882355,1
0.7175622950359588,0.7952223757986991,0.6421715017362835,0.43781513025723306,0.2593829324597452,0.9470588235293977,1
0.713481364660159,0.7965624105741274,0.6446754008825745,0.4480721470561383,0.2593829324597456,0.9470588235294155,1
0.715226627264273,0.7965749572366759,0.6429601096187502,0.42323931991413766,0.25938293245974564,0.947058823529412,1
0.7159397073630392,0.7958042913024987,0.6446174938335707,0.4364854181296775,0.25774623153283494,0.9470588235294013,1
0.7155218909313004,0.795720635576451,0.6422881681956406,0.4482043641184798,0.25692820036335723,0.947058823529412,1
0.717863021741774,0.7960272587223305,0.6446000340120703,0.41773447156132426,0.2577462315328353,0.9470588235294191,1
0.7170477815211992,0.7933797020027602,0.6428949629431814,0.4370707905166741,0.25692820036335745,0.9470588235294208,1
0.7150846240079836,0.7957554781003544,0.6435116699349562,0.4486472966294424,0.25611016919387924,0.947058823529412,1
0.7171962433245646,0.7950133614198953,0.6428411374692923,0.4191886911907638,0.25611016919387886,0.9411764705882408,1
0.7156077971567857,0.7966647508444145,0.6433120668603388,0.43157629097366484,0.25529149943644647,0.9411764705882408,1
0.7159027492460169,0.7970256620109762,0.6439217950270998,0.45154308372069263,0.25529149943644647,0.9411764705882355,1
0.7175167071104337,0.7949962258841596,0.6447703486250773,0.42618218554652,0.2544734682669685,0.9411764705882302,1
0.7193122221190377,0.7953558376453829,0.6421565793154665,0.4234397348061,0.2528367673400578,0.947058823529412,1
0.7139117384374015,0.7952749772896233,0.6442655126518745,0.4457665181085144,0.25283676734005767,0.9470588235294031,1
0.716132170779028,0.7975031543015809,0.6432959375488481,0.4396710490761632,0.25365543709749,0.9470588235294031,1
0.7156338389411676,0.7968637967941876,0.6434973018079669,0.4203830121713605,0.25365543709749006,0.9470588235294031,1
0.716159257334769,0.7945404795548969,0.6427651127624109,0.4436984155358474,0.2528367673400578,0.9411764705882373,1
0.7162158732292684,0.7944802084120595,0.6444841390639195,0.4433731414089917,0.25201873617057974,0.9411764705882231,1
0.7150844144296862,0.7959129238709018,0.6427692232939004,0.4216534914202749,0.25201873617057974,0.9411764705882391,1
0.7175372269082291,0.7963681724051617,0.6435275928044879,0.4227865560857762,0.2503820352436695,0.9411764705882408,1
0.7182995645920953,0.7949418088872046,0.642796893808236,0.44817436117871395,0.25038203524366937,0.9470588235294137,1
0.7161560313872696,0.7958341262536812,0.6434951231083507,0.4353120922929848,0.25038203524366953,0.9470588235294066,1
0.7162130192378301,0.7960691021275825,0.6428346359928399,0.41912010225442653,0.25038203524366937,0.9470588235294013,1
0.7160026807640457,0.7954371081505173,0.6434487367346895,0.43264980721194446,0.25038203524366953,0.947058823529412,1
0.7187142292014878,0.7951249305869068,0.6428998550137303,0.4506781020778709,0.24956400407419144,0.9470588235294066,1
0.7194832321342391,0.7969792685788526,0.6433246049701986,0.4229211148343321,0.24874597290471356,0.9470588235294208,1
0.7157077102978837,0.7963701948907693,0.6436684815302023,0.4253896270637056,0.24874597290471367,0.9470588235294137,1
0.7157907516409826,0.7952949286092197,0.6437556293445184,0.4466682054574878,0.2487459729047139,0.9470588235294155,1
0.716900203541003,0.7956668247867972,0.6427225116966746,0.43940361643690545,0.247927303147281,0.9411764705882284,1
0.714734675344864,0.794952917724642,0.6435357210788113,0.4145291455553656,0.24792730314728162,0.9411764705882408,1
0.7175738143564777,0.7953546826975679,0.6428001825282483,0.43843306366733875,0.24710927197780347,0.9411764705882266,1
0.7168753624407639,0.7929028468441988,0.6434932270836571,0.4479362922411795,0.24710927197780325,0.9411764705882284,1
0.7178269051791213,0.7942078186174922,0.6428243425338098,0.42623191500090574,0.24547257105089298,0.9529411764705955,1
0.719247709689113,0.7944182787529767,0.6434876033218536,0.42104141765650344,0.24629124080832493,0.9529411764705848,1
0.7160097910989913,0.7927001892721264,0.6427871201406623,0.44987315035368197,0.2446545398814145,0.9529411764705973,1
0.7177449923713431,0.7932243552915823,0.644321069626334,0.4339056435537392,0.24629124080832454,0.9529411764705955,1
0.7171661391026609,0.7942928968896703,0.6430421203525691,0.4219699344167886,0.24465453988141417,0.9411764705882248,1
0.714993619754696,0.7953184597544074,0.6433259285980465,0.4445178123063022,0.24383650871193624,0.9411764705882302,1
0.7189108462504105,0.7928473671724059,0.6429727896436386,0.4426464918985824,0.24465453988141395,0.9411764705882231,1
0.7159641524172381,0.7939678815788945,0.6433364792989527,0.41485191813798594,0.24383650871193635,0.9411764705882266,1
0.716124876974293,0.7966510891714128,0.6429771702275299,0.4379136741599992,0.24301783895450407,0.9470588235294244,1
0.7154978384663849,0.7958425526211426,0.6433257087167373,0.4480738095636159,0.24301783895450413,0.9470588235294208,1
0.7177924972480976,0.7943237465949892,0.6429916795205504,0.4248693941209735,0.24219980778502587,0.9470588235293995,1
0.7171606463601676,0.7963997612517038,0.6433082708119169,0.4232309017037214,0.2413817766155481,0.947058823529412,1
0.716264980695144,0.7966967180673719,0.6430121509795395,0.4496024736193773,0.24219980778502626,0.947058823529412,1
0.7162471407039894,0.7945451814372836,0.6432838587989407,0.43231076755572195,0.24138177661554794,0.9470588235294137,1
0.7175915843485596,0.793753600557169,0.6430426189394534,0.42312969009968504,0.2413817766155481,0.947058823529412,1
0.7181322804776471,0.7954219985996154,0.6432426214936703,0.4464994133345227,0.24056310685811544,0.9470588235294031,1
0.7155525941191105,0.7939507557454395,0.6431067268712956,0.43750525171408783,0.24056310685811516,0.9470588235294031,1
0.7172992696829524,0.7930980141860415,0.6431123618285012,0.4159294990610523,0.23892704451915947,0.947058823529412,1
0.7177125770819149,0.7953245220310963,0.6437376941777755,0.4459993519851749,0.23974507568863757,0.947058823529412,1
0.7183672485700819,0.7946815650989687,0.6437372737775611,0.4402372698930644,0.23892704451915964,0.9470588235294031,1
0.7163627860195378,0.795464471688618,0.6428583939332789,0.4173100798464416,0.23810837476172725,0.9470588235294031,1
0.7191164712953321,0.7948381483826968,0.6433438548827349,0.43895429807868985,0.2381083747617272,0.9470588235294244,1
0.7151894951773426,0.7948838608357277,0.6437945830435825,0.44753569710695285,0.2372903435922496,0.947058823529412,1
0.7168251229475897,0.7970029445727652,0.6435627986984573,0.41949793804510954,0.2372903435922497,0.9470588235294208,1
0.7148064580922375,0.7958954817715989,0.6427761388868016,0.433920689123557,0.23647231242277117,0.9470588235294191,1
0.7171032386321281,0.7964633702789846,0.6436846888017376,0.4507985444915324,0.2372903435922495,0.9470588235294084,1
0.7171177657360127,0.7936268710450192,0.6436997002638798,0.42333886152182876,0.23729034359224904,0.947058823529396,1
0.715405036398246,0.79660158413343,0.6439353553312086,0.42648413562704873,0.2348356114958608,0.9470588235294084,1
0.7163276170809781,0.7956391018743519,0.643445895481574,0.45177463470775814,0.2340175803263822,0.947058823529396,1
0.7171600034803884,0.7960526535576743,0.6430251916064154,0.4282923921418945,0.23483561149586035,0.9470588235293977,1
0.7144740820335628,0.7967687641891016,0.6432657735690686,0.4198781931812039,0.2340175803263823,0.9470588235294084,1
0.716709173693293,0.7983279031845392,0.6429899122326476,0.44629551875205054,0.2340175803263823,0.947058823529412,1
0.7153986045924862,0.7949146032175973,0.643698699072563,0.4420813692785801,0.2331989105689501,0.9470588235294031,1
0.7166337047927429,0.7973297210690106,0.6438231781263068,0.4155686364981812,0.23238087939947222,0.9470588235294102,1
0.7140191470959697,0.7959747655143261,0.6428358034266257,0.43391068098647206,0.23319891056895015,0.9470588235293924,1
0.7156219650774288,0.798458533286998,0.6442021784142836,0.44859068843588507,0.23156284822999412,0.9470588235294084,1
0.7148178493486116,0.7966106293785279,0.6441255858576128,0.4273037899221385,0.23238087939947244,0.9529411764705902,1
0.7160177161231762,0.7983973038328334,0.6431598209667353,0.4263425223820541,0.23156284822999407,0.9529411764705742,1
0.7151065374877831,0.7953889212262346,0.6431625971462561,0.4495836177568705,0.23074417847256173,0.9529411764705955,1
0.7146392626051101,0.7948441087852475,0.6430838604681002,0.43505425947074006,0.2299261473030838,0.9529411764705866,1
0.7155814704512112,0.7968908151106149,0.6438840386183549,0.416613532985906,0.23156284822999462,0.9529411764705866,1
0.7164359389371632,0.7972624483062005,0.6435733979019523,0.4381655629645829,0.22910811613360577,0.9529411764705795,1
0.7134453997615806,0.7968852576248742,0.6428562849497824,0.45117130682532763,0.22910811613360565,0.9529411764705742,1
0.7158221356555894,0.7936399081766471,0.6434790055569777,0.4238965347713521,0.22910811613360565,0.9529411764705866,1
0.7157123889517615,0.7951115718775569,0.6427189304607378,0.420488008900646,0.22828944637617338,0.9529411764705973,1
0.717244953125416,0.7966145786253187,0.6438976158812127,0.44571222205424293,0.22910811613360554,0.9529411764705955,1
