wrist_ACC_1,wrist_ACC_2,wrist_ACC_3,wrist_BVP_1,wrist_EDA_1,wrist_TEMP_1,label
0.2140501019721756,0.313394047452609,0.644071890675103,0.4779686920379259,0.907790810359426,0.7284768211920465,1
0.14240497246405293,0.2906290669853483,0.6552218523885369,0.5315688682144886,0.9083508202892591,0.7284768211920465,1
0.16829315379045529,0.37496471822215915,0.588537061799676,0.5094501218913616,0.9128306083595904,0.7284768211920465,1
0.34637892987783453,0.2023482367534057,0.6099022016849206,0.5055044073044801,0.914883880979534,0.7284768211920465,1
0.4193789972262094,0.07480328322292329,0.4616269109628107,0.4750158718277321,0.9042442750493724,0.7284768211920483,1
0.33195456763339776,0.10996769396506884,0.619370338952284,0.5659375146471133,0.8760589053524946,0.7284768211920483,1
0.40184191644223644,0.20412689965641134,0.8142484437105345,0.42496469012743443,0.8785707917235079,0.7284768211920571,1
0.2508969558840018,0.30688365427438097,0.7026293983742761,0.5000665408883497,0.9187022629412703,0.7284768211920571,1
0.10643308669730256,0.340475265559955,0.4154990278669385,0.5639071990666954,0.9396080862869829,0.7284768211920571,1
0.20991623226062467,0.35895985941024944,0.4467258743207885,0.477436116491113,0.8849172309985601,0.7284768211920571,1
0.12199846857577246,0.34917438138522566,0.4297609690811612,0.51226841487481,0.8466521196171889,0.7218543046357553,1
0.20337033993706566,0.3444262428941673,0.49703372421606773,0.5515988076246515,0.8571051041321277,0.7218543046357553,1
0.17885081943495018,0.4013438275023113,0.4455791507816275,0.4498790729116579,0.869424448483457,0.7218543046357606,1
0.15082628656150998,0.43377246831782845,0.3256710716192248,0.5121284236992732,0.8571051041321275,0.7218543046357606,1
0.17481421157315258,0.42745448372688216,0.38523314787987606,0.46730364088527937,0.8531853259916283,0.72847682119205,1
0.18432236970150595,0.4168123569659066,0.37552952342700024,0.5060634910847808,0.8737176151385662,0.72847682119205,1
0.18696992519654182,0.43137003898133697,0.35391072219874004,0.5036257368893841,0.9052628987302752,0.7284768211920554,1
0.15438441654294044,0.46030233261047504,0.39438935004155257,0.45216282301990046,0.881183928589119,0.7284768211920554,1
0.19870314522507593,0.45444081548669146,0.4795000962057546,0.5119573363230884,0.9080628026952736,0.7284768211920483,1
0.1472039572042122,0.45402949253096114,0.45394595745351335,0.43285052998097995,0.8989166051393879,0.7284768211920483,1
0.16437381486082014,0.4721513777236688,0.4856399804417361,0.6436923073276827,0.8595316195825163,0.7284768211920465,1
0.16716825923958345,0.4742733439908414,0.5160097980881864,0.5527990123840864,0.8638247862376253,0.7284768211920465,1
0.15436372062218662,0.4564984392386912,0.5144361099167025,0.530060759580586,0.8813706956885065,0.7218543046357606,1
0.1744124454395457,0.4050324156035161,0.4629814781299598,0.5148833868420272,0.8864104936886711,0.7218543046357606,1
0.15327760590033912,0.42565791125239194,0.5166651177429663,0.5132714846235152,0.8817439385189514,0.7218543046357606,1
0.15128434162850068,0.4306538475902604,0.46699481565650447,0.5292219113483632,0.8856638623436152,0.7218543046357606,1
0.18174686293087705,0.38579546271507,0.6024339555379593,0.508546701024533,0.8955566912445565,0.715231788079473,1
0.33926138842281994,0.4747471928616299,0.8104111103889053,0.5401856284789942,0.8920101559345033,0.715231788079473,1
0.3050473050894953,0.48242656842604104,0.7843410201029004,0.4038394024131071,0.9640602992585842,0.7152317880794747,1
0.3911250904351665,0.6163851410676963,0.7994551313672449,0.46586243908270664,0.9861873929585602,0.7152317880794747,1
0.32375684634110363,0.5337863121013534,0.778546299020461,0.5096285214170785,0.9975734845496119,0.7152317880794623,1
0.25534575634965684,0.4851900349009665,0.7408472526428601,0.5135193950501735,0.9912270452745592,0.7152317880794623,1
0.3391104543930763,0.5837256715344001,0.768389896371586,0.4857031980478155,0.9888005298241708,0.7152317880794623,1
0.2127526756820245,0.5831309213758509,0.6169974780238254,0.5321961982534257,0.9945869591693902,0.7152317880794623,1
0.2208028512014858,0.49246941491127116,0.6941072402216931,0.5114479442675128,0.9731212715780103,0.7218543046357571,1
0.3255566956673246,0.4673704169703877,0.7906763747895585,0.5122315179820947,0.9830141004789518,0.7218543046357571,1
0.2306283515060214,0.5943316503999443,0.7221104086550977,0.5131409671284082,0.9852539945141171,0.7218543046357571,1
0.48735206596590575,0.5441499380978133,0.8602564511896251,0.46151895550990885,1.0,0.7218543046357571,1
0.40813754922967777,0.4899551683317151,0.8286414395650181,0.526929493083325,0.9602417716126826,0.7218543046357553,1
0.2060640857010132,0.34358952217428373,0.7085246798530498,0.4854127205682833,0.9023777695288169,0.7218543046357553,1
0.22840684592681865,0.3192787834858861,0.6315057056636139,0.5263119918439437,0.8818451890135494,0.7218543046357553,1
0.17812302283422254,0.3322550064506457,0.6101940473754467,0.6090953270500756,0.8440389827515781,0.7218543046357553,1
0.19048234996169827,0.32836082092301033,0.5979362817563962,0.40280776379180033,0.841425845885967,0.7284768211920536,1
0.17621144505262698,0.31925488767854104,0.5776536847362143,0.40759681053135854,0.824066557850308,0.7284768211920536,1
0.19253813027784644,0.33741899054322066,0.5985075412163813,0.5269217784390232,0.9004098678294982,0.72847682119205,1
0.1891971594748924,0.32600146316348316,0.6043783410742921,0.5506615345189525,0.8908901360748375,0.72847682119205,1
0.19891850632628472,0.33218621512987495,0.6167869526185822,0.5993696110473534,0.8851038524137826,0.7218543046357571,1
0.1918309799609837,0.31930467661920114,0.6077935150533156,0.41961720479037595,0.8836105897236722,0.7218543046357571,1
0.19869314122077786,0.3279895615448569,0.6178693086759235,0.4205235460191319,0.8823039484487845,0.7218543046357606,1
0.19142206112293791,0.31921406251765605,0.6069969486281152,0.5762264174247133,0.8823039484487842,0.7218543046357606,1
0.20094072265795965,0.3206056137295338,0.6185046698616173,0.47658109567523166,0.8808106857586739,0.7218543046357571,1
0.20807672838226737,0.3137460158233207,0.6336998282619883,0.4873180331746587,0.8791306559691756,0.7218543046357571,1
0.20723884472360687,0.3195951625075688,0.635046673643517,0.520036675575186,0.8791306559691761,0.7218543046357571,1
0.2044522180616698,0.3143387033864018,0.633092846523275,0.516045475434387,0.8785707917235075,0.7218543046357571,1
0.20816731840274072,0.3190485143911826,0.6384048690710193,0.48466691584600324,0.8783840246241208,0.72847682119205,1
0.2047735291814981,0.31488166581975663,0.6298126484274205,0.4957968952051345,0.8778241603784523,0.72847682119205,1
0.20721840830010174,0.3185238281864147,0.6316838331830096,0.5247624159269575,0.8772641504486196,0.7284768211920483,1
0.20324778843486546,0.31508529185781137,0.6267605473346642,0.5256478606956357,0.8765175191035648,0.7284768211920483,1
0.20797289782124984,0.3173903040087058,0.6198704106684417,0.5101896109814255,0.875584266343287,0.7218543046357517,1
0.1836764395800038,0.30842515396727416,0.63289906702116,0.4853628981133966,0.8750242564134542,0.7218543046357517,1
0.24251684445947158,0.287106883767159,0.7143369374403533,0.5064815619370125,0.8752108778286767,0.7218543046357517,1
0.4200815804209684,0.3876226030505009,0.8176553119396364,0.5307436086194253,0.8817439385189518,0.7218543046357517,1
0.47981922537281735,0.4060921726425671,0.9315949535972788,0.5146925178590864,0.8972365753498898,0.72847682119205,1
0.27092246290897937,0.3629473588012397,0.7113106710948188,0.5081475597137701,0.8998498578996659,0.72847682119205,1
0.2319280763135247,0.2575193334055067,0.4680738056382015,0.4761321704064882,0.8953700698293336,0.72847682119205,1
0.22228392144747733,0.24763079475773797,0.34288143615585276,0.4409240057090424,0.8681179528927341,0.72847682119205,1
0.1232111618428231,0.38011326280635155,0.39916598226824695,0.5549397157537249,0.8556116957578522,0.7317880794701903,1
0.1714620059316585,0.36101254125526466,0.45646351949812614,0.6259881663986947,0.8593449981672936,0.7317880794701903,1
0.16291480125149183,0.36549445226590993,0.3972431822820145,0.48341295124911793,0.8572917255473498,0.7317880794701903,1
0.17143577582496472,0.3352414361294107,0.3879598605233406,0.4754230092018965,0.8634513977230147,0.7317880794701903,1
0.1947971873110686,0.3067087723919347,0.40046069828041647,0.4741225490953948,0.8671845544482915,0.7284768211920465,1
0.2009504252399077,0.2716534663376009,0.4083659189473964,0.48314755884332383,0.8664379231032362,0.7284768211920465,1
0.20205611969659792,0.26692221714163755,0.4157185203163466,0.4715499688595511,0.8664379231032359,0.7284768211920465,1
0.18766332633159138,0.24549985574589506,0.3723034907334416,0.5412889314079589,0.8662513016880135,0.7284768211920465,1
0.1760172906732722,0.22761635298559071,0.5203426671854333,0.5513890053917502,0.8662513016880135,0.7284768211920412,1
0.3527587866690605,0.031515860191096146,0.49725181379142314,0.5290576810012995,0.8852904738290055,0.7284768211920412,1
0.4416622636326249,0.11547428079827404,0.5439043976060797,0.4115074449806599,0.8767042862029522,0.7284768211920465,1
0.4008741894426213,0.06147847364420583,0.5903480497498554,0.5207016025755303,0.8740910036531766,0.7284768211920483,1
0.4223854507044685,0.04121056722062427,0.5369627697914391,0.5160903954116085,0.8765175191035648,0.7218543046357535,1
0.4169024591621947,0.032930974516867606,0.5450956695913878,0.5260778037912249,0.8765175191035651,0.7218543046357535,1
0.436185332705436,0.03241629679450825,0.5089124951831687,0.48331087932996947,0.8798774329983956,0.7218543046357535,1
0.41722244276515524,0.03518779227140806,0.542735574823202,0.48649140272026326,0.8821173270335614,0.7218543046357535,1
0.38252923665357064,0.11611861547688851,0.5229837523660836,0.5588356711737179,0.8890236305542817,0.72847682119205,1
0.27525093084456814,0.1336735137007405,0.545859580377352,0.4733622927775309,0.8864104936886706,0.72847682119205,1
0.25980270982901893,0.17197075428802047,0.7452270184692418,0.4979815260580751,0.8582249783076279,0.72847682119205,1
0.3446722476279886,0.22556637768956697,0.7866951170459959,0.5142075942907851,0.8655046703429585,0.72847682119205,1
0.29850471412967566,0.3484339218151458,0.7239803725343215,0.4749345865819659,0.8847304638991729,0.7218543046357571,1
0.2464980700157347,0.42166640896192936,0.7298182497398851,0.5398358414331226,0.848332149406687,0.7218543046357571,1
0.2910892979190773,0.41582510414373924,0.770149633139679,0.48435708042369396,0.8300396086107499,0.7218543046357606,1
0.2648958785820324,0.37658857235713583,0.758152808772996,0.5107852458230739,0.8253731991251962,0.7218543046357606,1
0.2737619623052324,0.36599109916656003,0.7473205702964278,0.5209910325401041,0.834332775265859,0.7218543046357482,1
0.3098727761469835,0.3573050700257203,0.7905865063924128,0.4990677882373253,0.8350794066109144,0.7218543046357517,1
0.31926620193767324,0.3568995283223461,0.7945980844372302,0.5009201612903242,0.8417990887164118,0.7218543046357517,1
0.3181337807701992,0.35719556755946635,0.7987127286536065,0.5002322760722672,0.8451588569270783,0.7218543046357517,1
0.3237884062678502,0.3556615777175875,0.7945510282409596,0.5275831623254154,0.8459054882721336,0.7218543046357571,1
0.3204068308117202,0.3590696603889907,0.8012272949404692,0.46791306826394924,0.845905488272134,0.7218543046357571,1
0.3190614047465563,0.35307307993982623,0.7931258002924737,0.5066292784981105,0.8453456240264655,0.7218543046357571,1
0.3161370488129682,0.35365661050563196,0.7988944613414903,0.5122435110360624,0.8457188668569108,0.7218543046357571,1
0.32172449351053056,0.35318775273693476,0.7954736481234247,0.5172926660393604,0.8457188668569112,0.7218543046357624,1
0.32172560480079243,0.3531515331188121,0.7983193467577354,0.48140928633273616,0.8457188668569112,0.7218543046357624,1
0.32297205671773094,0.35404242015401366,0.795794189592862,0.4979045439983814,0.8449722355118555,0.7218543046357624,1
0.3191493876828815,0.3593995729272553,0.8015325619199065,0.5199089735041325,0.8449722355118553,0.7218543046357624,1
0.3256255542869506,0.35859720116207505,0.8016012887419097,0.5270695562051292,0.8444122255820228,0.7152317880794605,1
0.3213659439577775,0.35271819613146554,0.8008662495725423,0.4876531979963967,0.8445989926814105,0.7152317880794623,1
0.3255942812100262,0.3563814961717475,0.7993449419514826,0.5054793019044571,0.8449722355118555,0.7152317880794623,1
0.3137972892543298,0.351592264782344,0.7930325106069858,0.5163596210216493,0.8442256041668003,0.7152317880794623,1
0.30179688992003745,0.35149315581168195,0.7794204114861673,0.5086007508202612,0.8444122255820226,0.7284768211920429,1
0.30584559205955775,0.3524373369480642,0.7858803984184037,0.48280646845743225,0.8440389827515775,0.7284768211920429,1
0.3049151891536141,0.354379213080896,0.7829804410698633,0.5118083143966708,0.8432923514065224,0.7284768211920412,1
0.30768367501449295,0.3526209033587211,0.7883792195758133,0.5195019783289052,0.8429189628919121,0.7284768211920412,1
0.3070074028705567,0.3570790661110799,0.7880354867542259,0.506380880328157,0.8419857101316346,0.7218543046357606,1
0.31157955194805803,0.35487152905048436,0.7894695811432608,0.4869304332681637,0.8417990887164118,0.7218543046357606,1
0.3092410546315459,0.35336126596605627,0.7879938642765689,0.5197026160532069,0.8423589529620796,0.7218543046357606,1
0.30818302438634965,0.35426438810042193,0.7894299935473625,0.5116347517853655,0.84273234147669,0.7218543046357606,1
0.312733460743132,0.3555804711182597,0.7880531994497317,0.5041555724555407,0.8427323414766893,0.7152317880794623,1
0.3089824049010441,0.35430132052742397,0.7893662636676345,0.4798783196231451,0.8425457200614673,0.7152317880794623,1
0.31146423313875393,0.3554409553185509,0.7881161670068579,0.5082501224285725,0.84273234147669,0.7152317880794676,1
0.30859077863744544,0.35570638355721357,0.789306054649551,0.5205864253881376,0.8429189628919127,0.7152317880794676,1
0.30856105889643914,0.35802889559084017,0.7881727573843167,0.513482400978334,0.8429189628919124,0.7218543046357553,1
0.30853944748128104,0.3568205881896327,0.7892535405036434,0.48992639211742417,0.8425457200614672,0.7218543046357553,1
0.3118416057465778,0.35713723659374197,0.7882208047772574,0.48945671164987326,0.8425457200614671,0.7218543046357571,1
0.312274828445939,0.3561574922712564,0.7892105103039142,0.5193459572527991,0.8425457200614678,0.7218543046357571,1
0.31095082378890454,0.3585678150476211,0.788257836106494,0.516437865303787,0.8423589529620794,0.7284768211920483,1
0.3141531458868239,0.3580571464432816,0.7900513579629869,0.5010565085875767,0.8417990887164118,0.7284768211920483,1
0.3135509922281769,0.35660156550771455,0.7882748675584712,0.4862410615004199,0.8414258458859666,0.72847682119205,1
0.31392273857943537,0.3573993235446884,0.7891868995420153,0.512649841258099,0.8414258458859666,0.72847682119205,1
0.3128879980478451,0.35907539901207447,0.7882112032940278,0.5163892033142593,0.8416124673011893,0.7218543046357571,1
0.3137366094782062,0.35737146112066903,0.7895898913503878,0.4967673788180292,0.8414258458859668,0.7218543046357571,1
0.31020422424672706,0.35913300029794737,0.7889881026713526,0.48605768415432177,0.8412390787865791,0.7218543046357571,1
0.31381356838367325,0.3572488549936281,0.7888144699939835,0.5193119254970368,0.8406792145409119,0.7218543046357571,1
0.3134959186610904,0.3596143692948602,0.7885806703270744,0.5163295762921162,0.8406792145409112,0.7152317880794676,1
0.31204679018712955,0.357891729984143,0.7888855564274961,0.5092170160101217,0.8401192046110789,0.7152317880794676,1
0.3132358549522627,0.35943586866085464,0.7885647402505092,0.48517384943179126,0.8397458160964684,0.7152317880794694,1
0.31346896478067865,0.35806010965001,0.7888820123052784,0.49334257809471205,0.8391858061666361,0.7152317880794694,1
0.31397008156191286,0.35883014174565186,0.7885772601835718,0.5244519742148019,0.8386259419209686,0.7152317880794623,1
0.3130539484764986,0.3574759429676756,0.7888647117266026,0.5123415358999138,0.8382525534063581,0.7152317880794623,1
0.31286997102998804,0.35967442172376146,0.7885973828071793,0.5088724316978023,0.8376925434765258,0.7152317880794659,1
0.31076742931670337,0.35776396899896373,0.7888427459430819,0.48505115723575365,0.8371326792308582,0.7152317880794659,1
0.3104783606975611,0.35967041009554446,0.7886207211349374,0.4929369049625749,0.8367592907162479,0.70860927152318,1
0.3086352316279294,0.35711980482711264,0.7888181870795412,0.5210123397570513,0.8363860478858027,0.7086092715231818,1
0.3104607614559344,0.35921610352491834,0.788646607790097,0.5131878128185388,0.8361992807864148,0.70860927152318,1
0.3109827933562631,0.358043389314396,0.7887905733012494,0.5068551428580773,0.8356392708565823,0.70860927152318,1
0.31187933774843046,0.3593859512380875,0.7886767936024828,0.48155025592706147,0.8348926395115268,0.7086092715231747,1
0.3105977834676046,0.3580005511838189,0.7887561129300525,0.5021945447672911,0.8343327752658595,0.7086092715231782,1
0.3113533967693253,0.35940143224858423,0.7887192484114065,0.519455141569321,0.8333993768214163,0.7086092715231747,1
0.31275825298112203,0.3579951922830998,0.7886958888548898,0.5107592664152618,0.8330261339909713,0.7086092715231782,1
0.3107693146280191,0.3594021068062916,0.7897046323634154,0.49324058894048795,0.8324661240611386,0.7086092715231711,1
0.3063258136402399,0.3579969787112417,0.7879808858333325,0.48994763324208984,0.8317194927160833,0.7086092715231711,1
0.30804501718261473,0.35939891658008216,0.7884355203545634,0.5228701483009862,0.8315328713008607,0.7086092715231711,1
0.30808900055096106,0.3580010168897044,0.7888576594738126,0.5120562957441755,0.8309728613710278,0.7086092715231711,1
0.3080456870967278,0.35939434469473625,0.7886435462301422,0.5030161494202918,0.830412851441195,0.7152317880794694,1
0.3072060154632841,0.35800593470579245,0.7887800137015257,0.47688604761549097,0.8298529871955274,0.7152317880794694,1
0.30883437011572734,0.35938919822038,0.7886913389898365,0.5147790040334351,0.8292929772656948,0.7152317880794694,1
0.3097417427326877,0.35801123387103817,0.7887441733374245,0.5203106043611819,0.829106355850472,0.715231788079473,1
0.30839038601717045,0.3593837971386836,0.7887211238620229,0.5124976945406384,0.8277997145755844,0.7152317880794659,1
0.30849930375122225,0.3580167019817018,0.7887178937714852,0.4823754151973893,0.8274263260609744,0.7152317880794659,1
0.30984142987617597,0.35937828658223847,0.7887451975856179,0.4998513074097284,0.826679694715919,0.7152317880794694,1
0.3068649817145217,0.3580222372467715,0.7886952830144662,0.5253274314898191,0.8263064518854737,0.7152317880794694,1
0.30822870830666704,0.3593727397019754,0.7887668098475247,0.5144606298217181,0.8253731991251959,0.7152317880794694,1
0.30826317781196355,0.3580277858556741,0.7886743560270578,0.4996467668980722,0.8253731991251964,0.7152317880794694,1
0.30967034367888935,0.3593671970020782,0.788787277607444,0.4790806290730679,0.8244398006807534,0.7152317880794676,1
0.3089662448050356,0.35803331660629784,0.7886541737948561,0.5152273299452227,0.8235065479204755,0.7152317880794676,1
0.3083184016658227,0.359361683095221,0.7888073157197535,0.5217336607738537,0.8231331594058651,0.7019867549668852,1
0.30953883407257377,0.35803880960165035,0.7886341587305694,0.5126040825432897,0.82275991657542,0.7019867549668852,1
0.3093509458036068,0.3593562144823087,0.7888274154660884,0.49276607785535204,0.821453275300532,0.7019867549668852,1
0.3095431083028861,0.3580442507883944,0.788613876626008,0.48349337726951774,0.8212666538853097,0.7019867549668852,1
0.3087494499699056,0.359350803466841,0.7888479670097852,0.5205794376346646,0.8207066439554765,0.7086092715231782,1
0.30881832360194267,0.3580496290851719,0.7885929853064995,0.5155481424730953,0.820146634025644,0.7086092715231782,1
0.310416993494516,0.3593454603212224,0.7888692351547753,0.5053347938374736,0.8199600126104214,0.7086092715231818,1
0.30893643458524883,0.3580549346905329,0.7885713750963563,0.4799540140451721,0.8190267598501434,0.7086092715231818,1
0.31032063282534883,0.35934019466771017,0.788890991299789,0.5129821001116011,0.8184667499203111,0.7086092715231747,1
0.30945342722136737,0.3580601578933823,0.7885500507378371,0.5198536326952686,0.8180935070898656,0.7086092715231729,1
0.3109699359104838,0.3593350165693723,0.7889103241499722,0.5125278978816605,0.8175334971600328,0.7086092715231747,1
0.31181422423271365,0.35806528800314197,0.7885371873824363,0.487485839303584,0.8177830541344878,0.7086092715231729,1
0.31397736865721676,0.35932993764982496,0.7889009544083756,0.4864267503828451,0.8170364227894323,0.7019867549668763,1
0.30952854681547726,0.35807031210796525,0.7895358488839477,0.5227156897726442,0.8162897914443772,0.7019867549668763,1
0.3116772042669345,0.3593249725378077,0.7898740245155382,0.5166170752653537,0.8159164029297669,0.7019867549668781,1
0.3112886201339251,0.35807521332954517,0.7881419589653853,0.5089768371434271,0.8153563929999342,0.7019867549668781,1
0.31038548206320876,0.3593201410387314,0.7893386906061779,0.48334710332107894,0.8144231402396566,0.7019867549668941,1
0.31106361547191097,0.3580799680566485,0.7879407809409056,0.4928758470090255,0.8140498974092113,0.7019867549668941,1
0.3106671752909384,0.3593154717290953,0.7902895785356698,0.5259291595813957,0.813303266064156,0.7019867549668941,1
0.3143296450463484,0.3580845411926239,0.7935322918078986,0.5137439203862405,0.8127432561343235,0.7019867549668941,1
0.31522628478559056,0.35931100834476615,0.7935081434701957,0.5093036060108159,0.8118098576898805,0.7019867549668781,1
0.31561566986114936,0.35808887742594137,0.7936730189583352,0.48197537952642533,0.8114366148594355,0.7019867549668781,1
0.3155129142775032,0.35930682191489427,0.7931925975623803,0.5002496927300012,0.8105033620991574,0.7019867549668835,1
0.31555292849239786,0.358092884053536,0.7934330045345008,0.5218028377909146,0.8101301192687119,0.7019867549668835,1
0.3155328936146546,0.35930303556685556,0.7936168193090611,0.5116727356445048,0.8095701093388796,0.7019867549668835,1
0.315551072495073,0.3580963943565979,0.7938706996185978,0.49277081309335935,0.8086368565786021,0.7019867549668835,1
0.3155229848202839,0.3592998799711645,0.794414571538075,0.48432061719291336,0.8082634680639915,0.7019867549668906,1
0.31557231435797145,0.3580990812271979,0.7931063779871902,0.5212876815470755,0.807703458134159,0.7019867549668906,1
0.3154853838881754,0.3592978324382614,0.7940405048650226,0.517877303706936,0.8071434482043263,0.6953642384105958,1
0.31564578099539425,0.3581002242155513,0.7948979941561451,0.5089642698713356,0.806396816859271,0.6953642384105958,1
0.3152613960633006,0.35929802589570925,0.7950403201644631,0.4809200086250298,0.8062101954440485,0.6953642384105905,1
0.3146255114532104,0.35809794848205023,0.7946521126843571,0.49758110896228513,0.8050903212685481,0.6953642384105905,1
0.315733689778274,0.3593037742112776,0.7929279564748484,0.5254099585511046,0.8045303113387153,0.701986754966887,1
0.31543110804275754,0.35808585079626276,0.7923481830719082,0.5121311206313973,0.8041569228241052,0.701986754966887,1
0.3156170152717781,0.35932912178890974,0.7952890262392257,0.5047267777588359,0.8032236700638271,0.701986754966887,1
0.31548274168096935,0.3580283487372686,0.7950890174426737,0.4750255471251477,0.8026636601339944,0.701986754966887,1
0.3155885761228841,0.3616977109752029,0.7947330873279177,0.5114315641459348,0.8019170287889392,0.7019867549668852,1
0.31549726484628166,0.35983187963587143,0.7944011976722429,0.5222296026405144,0.8007971546134386,0.7019867549668852,1
0.3155875178960427,0.3623528949327477,0.796141831643999,0.518132455360731,0.8002371446836058,0.701986754966887,1
0.31547810627605716,0.36378441162225406,0.7953135510891493,0.4886095352311443,0.7993037462391634,0.701986754966887,1
0.3156504439099856,0.36561892549262426,0.7960629788858102,0.48513800649841604,0.797810629233218,0.6953642384105834,1
0.31527154694739373,0.3646155770805385,0.7952049514688364,0.5166212420845165,0.7965039879583299,0.6953642384105834,1
0.3172709635334221,0.3663745443720151,0.7972410068149456,0.5164767777594808,0.795197346683442,0.6953642384105834,1
0.32369897600432135,0.3650494639518783,0.7991610792410336,0.4913506814443764,0.7935174625781087,0.6953642384105834,1
0.32262650640197543,0.3662763310074796,0.7997948723736135,0.48796337527693767,0.7923974427184434,0.7019867549668835,1
0.32304069259718093,0.36509365963380574,0.800206426222473,0.5207063066492457,0.791837432788611,0.7019867549668835,1
0.322310024566885,0.36625083255763496,0.800543774738284,0.5107021455263416,0.7905309371978874,0.7019867549668835,1
0.32232673515841537,0.3651106444263258,0.8001169592493227,0.48361104143685557,0.789597538753445,0.7019867549668835,1
0.32247240214414397,0.36623836248961034,0.799400163789111,0.5069054889776035,0.7884776645779445,0.6953642384105851,1
0.32101935966015155,0.3651204677307301,0.7970573486400944,0.5289476648293884,0.7875442661335018,0.6953642384105851,1
0.32053479944624136,0.3662302076153564,0.7983183063096775,0.5080259551329006,0.7875442661335017,0.6953642384105851,1
0.3219150008967981,0.3651275105821605,0.8001218347407677,0.48157407063986546,0.7860511491275559,0.6953642384105851,1
0.31989540909944125,0.3662239398199509,0.798930278117656,0.5068845708912496,0.7853045177825012,0.6953642384105905,1
0.32202067382711885,0.36513321784257163,0.7985728161294428,0.5314990845315212,0.7841844979228356,0.6953642384105887,1
0.321520858707457,0.36621865080546095,0.7996880843597894,0.5125263259672862,0.7832512451625575,0.6953642384105887,1
0.3235084076390993,0.3651381863234475,0.8012114417141918,0.5058718417688044,0.7823179924022797,0.6953642384105905,1
0.32238213406167926,0.3662139336982134,0.8010716164095586,0.4740729874152685,0.7813845939578368,0.6953642384105905,1
0.32377099696277073,0.36514270235479784,0.8015754070101028,0.5087710395439181,0.7808247297121692,0.6953642384105905,1
0.32238640295634197,0.36620958122853925,0.8013014052530234,0.519494261456857,0.779518088437281,0.6953642384105923,1
0.32357845824798953,0.3651469199323015,0.8017956127915964,0.511368308345261,0.7789580785074486,0.6953642384105923,1
0.3233772226856753,0.36620547608985154,0.8026863756594353,0.4813911963009012,0.7780248257471707,0.6953642384105905,1
0.3237202708901473,0.36515093067348753,0.8018060289896862,0.5022636630271807,0.7770914273027277,0.6953642384105905,1
0.3232961442720654,0.36620154484299094,0.8020531635618624,0.5256161314820134,0.7761581745424498,0.6953642384105923,1
0.3237922819317386,0.36515479511886006,0.8008566124547567,0.5133630334029406,0.7754115431973946,0.6953642384105923,1
0.3232154445959879,0.3661977360157572,0.8011548074497556,0.4938840053681411,0.7744782904371167,0.6953642384105905,1
0.3239075058256778,0.365158558555951,0.8016203743432002,0.47831083156375975,0.7739182805072842,0.6953642384105905,1
0.32294516249967997,0.36619400823177717,0.800804680898165,0.5192744254994113,0.7727984063317833,0.6953642384105887,1
0.3229488275751685,0.3651622603512161,0.7991859722785993,0.519693385533428,0.7718650078873406,0.6953642384105887,1
0.3232966244961406,0.3661903224238413,0.8016135496507899,0.5100103619601338,0.7711183765422853,0.6953642384105905,1
0.32267265280845797,0.3651659409478025,0.7994386401135176,0.48790075155396095,0.770185123782008,0.6953642384105905,1
0.31978561100934644,0.36618663498083415,0.7990364961921155,0.483739743856589,0.7696251138521748,0.6953642384105905,1
0.32169193999068285,0.3651696492070132,0.8001054446598579,0.523956952414969,0.7686918610918969,0.6953642384105905,1
0.3229980829412302,0.36618288919518843,0.8018029859520629,0.516723469965609,0.7679452297468418,0.6953642384105905,1
0.3238080378363568,0.365173453109182,0.8010260481073448,0.5114260552962694,0.7668252098871766,0.6953642384105905,1
0.3222470134991544,0.3661790010789582,0.8012660298472378,0.48314118813552714,0.7660785785421214,0.6953642384105905,1
0.32382486518546805,0.36517745944976,0.8009675631352959,0.49385959540306684,0.7655187142964535,0.6953642384105905,1
0.32320631458871724,0.36617483091743297,0.8023769526450047,0.5193084324935325,0.7643986944367881,0.6887417218542975,1
0.32386779610588584,0.36518185642032003,0.8016374763977971,0.5128748586567052,0.7640253059221782,0.6887417218542975,1
0.32316194644161567,0.3661701172372187,0.8019794777477546,0.4839834131113081,0.763092198846065,0.6887417218542957,1
0.32391363942887774,0.36518701991009744,0.8004295870459834,0.49927190161390556,0.7621588004016228,0.6887417218542957,1
0.32311376384763213,0.3661642983744253,0.8038622721564463,0.5239080210896793,0.7615989361559544,0.6953642384105905,1
0.32396567379852886,0.36519382795678657,0.8008917963796421,0.5128511740057284,0.7610389262261219,0.6953642384105905,1
0.32305526352540886,0.36615592466346825,0.8034080027987707,0.4860204111161691,0.7601055277816792,0.6953642384105905,1
0.3240357839137754,0.36520484440990053,0.8010138702086657,0.4908121184210475,0.7593588964366239,0.6953642384105905,1
0.3229612003759757,0.36614002711024674,0.8019324537217256,0.5293673957729987,0.7584256436763461,0.6887417218542939,1
0.32419501256993094,0.36523106172913555,0.8008222552955035,0.5140540666768144,0.7573057695008457,0.6887417218542904,1
0.322413925345541,0.36608628900850326,0.803110578505134,0.5010912999402436,0.7567457595710129,0.6887417218542957,1
0.3223893173587785,0.36541185488249706,0.7993947328617963,0.4739619332241072,0.7559991282259574,0.6887417218542957,1
0.32322056981087227,0.3669992126370569,0.8023869134611405,0.5181159257990763,0.7546924869510696,0.6887417218542975,1
0.3239373929661141,0.3649670014028446,0.8020810757868966,0.5228457153826774,0.75431909843646,0.6887417218542975,1
0.3230570414841313,0.3663497676371058,0.8034315895358431,0.5122938342647481,0.753572467091404,0.6887417218542975,1
0.3240372480991281,0.3649503756220451,0.8012854039654607,0.48091770790459626,0.7526392143311261,0.6887417218542975,1
0.3229799348409375,0.3668965863804208,0.8029750369820193,0.5018480417979798,0.7515193401556257,0.6887417218543046,1
0.3241034676853156,0.3655249724853854,0.8019959108086793,0.5224430801205456,0.750586087395348,0.6887417218543046,1
0.32292028314390525,0.3668210645313018,0.8034591035591669,0.5072931780308866,0.7500260774655151,0.6887417218543082,1
0.3241576783314367,0.36546327518013927,0.8014058949798417,0.48075905802940894,0.7492794461204598,0.6887417218543082,1
0.32287293190677757,0.3659588682741822,0.8028194633254171,0.5129805766624639,0.74890605760585,0.7019867549668781,1
0.3241923403123644,0.36539718397410237,0.80206428013864,0.5231792458568114,0.7475994163309618,0.7019867549668781,1
0.3228709269997967,0.3659042383424931,0.8033335647145996,0.5089843723129315,0.7468527849859068,0.7019867549668835,1
0.32404658662636987,0.36570879784689925,0.8018923998903016,0.48018279506806577,0.7459195322256292,0.7019867549668835,1
0.3217703919790933,0.36671156908065516,0.8034469522894682,0.49758655620645253,0.745359522295796,0.6953642384105887,1
0.32459963045544254,0.3652737881184731,0.8018000024911851,0.530506220663895,0.7446128909507413,0.6953642384105887,1
0.3224984757471276,0.3670803013913484,0.8035307418888376,0.5143912708997479,0.7448743940267162,0.6953642384105905,1
0.324546679878321,0.36483792052121,0.8017173814493638,0.5072393707611568,0.7439411412664383,0.6953642384105905,1
0.3225423835833359,0.36869890191900323,0.8027539379507784,0.4740237249714962,0.7430077428219953,0.6887417218542975,1
0.3238461057436927,0.3690451765856277,0.801546221327788,0.50101602041653,0.7422611114769406,0.6887417218542975,1
0.32194216652782826,0.3679115971383806,0.8021234490313609,0.5254387749625732,0.7415144801318851,0.688741721854301,1
0.32501565741611516,0.3649831521677069,0.8014047760805733,0.5147515381253197,0.7407678487868297,0.688741721854301,1
0.32199358831630753,0.36648470531085087,0.8043053441818788,0.4996881141774016,0.7402079845411623,0.6953642384105905,1
0.3251425084736575,0.36588950755958927,0.8021009443280314,0.4787437266031107,0.739461207511942,0.6953642384105905,1
0.32179657632528885,0.36654270321277316,0.8034006125818287,0.511246485715776,0.7387145761668866,0.6953642384105905,1
0.32539288077373024,0.365890420301643,0.8019248851602985,0.5259556077390742,0.737781323406609,0.6953642384105905,1
0.3216113853135045,0.365674461196028,0.8044937333489625,0.5002003836584786,0.7370348377457185,0.6887417218542957,1
0.3276490179078358,0.36570412404427477,0.8043998680816244,0.47516094335282655,0.7364748278158861,0.6887417218542957,1
0.32263171379636985,0.36552378953411696,0.8053823680032721,0.5103465316489794,0.7361014393012757,0.6887417218542975,1
0.3287074253658685,0.36615726699869744,0.8043910005487549,0.5200609552722691,0.7351681865409977,0.6887417218542975,1
0.3152133032210424,0.3633379538090998,0.7970004554339889,0.5092161622426914,0.7351681865409976,0.6953642384105887,1
0.2941191420648806,0.36275692529297215,0.7712889082882151,0.4921144917548853,0.7346081766111653,0.6953642384105887,1
0.3103964425881819,0.36668381842364894,0.7945937080005737,0.4846620182876835,0.7334883024356642,0.6953642384105851,1
0.3440203992244644,0.3690462516156311,0.8158651353795192,0.5294425839600614,0.7346081766111651,0.6953642384105887,1
0.3379837073460423,0.36020528013238007,0.8168958749074986,0.5205881294553297,0.735541429371443,0.6953642384105887,1
0.33687972564656093,0.3551361457547098,0.8086489186729343,0.517961992206517,0.7312482627163338,0.6953642384105887,1
0.33558273244439313,0.3549784666806681,0.813210350559612,0.45675079004020236,0.7336749238508873,0.6953642384105851,1
0.33560085892710084,0.3418264577232124,0.8022733371259441,0.5147630956675695,0.742447878576328,0.6953642384105851,1
0.3340369799224473,0.34916472845343854,0.8107887688915665,0.5270662978399934,0.7420744900617176,0.7019867549668781,1
0.3340383653694876,0.35143972214524344,0.8016042173640612,0.4792316936376846,0.7439411412664385,0.7019867549668781,1
0.3292088652787196,0.3532369583063539,0.8110548366811449,0.5078173654284658,0.749354182097048,0.7019867549668835,1
0.3380235331167572,0.34903362492901335,0.8011697953953265,0.4287015909628329,0.7420744900617179,0.7019867549668835,1
0.325681994156025,0.33961959674444586,0.8033308093517799,0.589819752006407,0.732368282575999,0.7019867549668763,1
0.32817873597201125,0.333360587399296,0.7884410915083326,0.6043193853779003,0.7262084647161696,0.7019867549668763,1
0.31857479390635113,0.33974482662300665,0.806487793935649,0.4889423695561279,0.72807511592089,0.7019867549668781,1
0.33373552835552145,0.33191815999823865,0.7855215003003738,0.3627090696172124,0.7243419591956141,0.7019867549668781,1
0.3128037441981458,0.33648265392537285,0.8131722557902568,0.526576628292257,0.7094093322945081,0.7019867549668781,1
0.3414509294885557,0.32945779249400586,0.7741250604056615,0.5083417981856762,0.7329282925058318,0.7019867549668781,1
0.2764855597019671,0.3528825010699653,0.8511176431043389,0.5059400975426547,0.7347947980263875,0.7019867549668799,1
0.3159993180936371,0.31837420163068186,0.6934809039979071,0.6184778181236403,0.7387145761668867,0.7019867549668799,1
0.5436119657339612,0.29976152778365006,0.863827162072291,0.43021512056997363,0.7403946059563844,0.7086092715231782,1
0.47591640993784773,0.4199421096977069,1.0000000000000002,0.4402243940283917,0.734981565125775,0.7086092715231782,1
0.5016784044555795,0.3258541950748436,0.8630321378850367,0.5275934009462335,0.7428211214067733,0.7086092715231782,1
0.5154675759228533,0.34834572628862215,0.9209826558646963,0.6067596048897308,0.746367656716827,0.7086092715231782,1
0.5196131142237593,0.3309405660117444,0.8802218251514776,0.46494289922786175,0.7508474447871581,0.7019867549668799,1
0.45531215778254563,0.3394103348585444,0.8977906156533149,0.45295998650745295,0.753273960237547,0.7019867549668781,1
0.28027339333450246,0.3001865747504266,0.713893297780074,0.50765596071054,0.7387145761668863,0.7019867549668799,1
0.27003958324081,0.3015752430301564,0.739319072843382,0.5619251540803925,0.735914817886053,0.7019867549668799,1
0.3519611311440253,0.34194567434024514,0.8168726898053239,0.6046621738857116,0.7273284845758349,0.7019867549668835,1
0.4351459112055889,0.35525572580249737,0.8711924848114689,0.43728925058556095,0.7318082726461664,0.7019867549668835,1
0.42935513786422463,0.35132089021423296,0.8626264439069262,0.4855530677770731,0.7346081766111654,0.701986754966887,1
0.42141211871258993,0.3423119299360559,0.8652164388970198,0.4779868182451348,0.7333015353362776,0.701986754966887,1
0.4235565477735784,0.3492452626327336,0.8626519008573956,0.4599716545609823,0.7310616413011113,0.7019867549668852,1
0.4224920342899804,0.3427617636076897,0.861287231252793,0.4632710853793378,0.7295683786110013,0.701986754966887,1
0.4294722308577523,0.3444312269647679,0.868524659199404,0.5659968832182466,0.7284485044355,0.7019867549668852,1
0.476053461800541,0.35125241676205987,0.8853851660495934,0.5372388930638693,0.7299417671256111,0.7019867549668852,1
0.5308824808354338,0.3916539947951407,0.9189861663309048,0.5245732646155447,0.7381547119212187,0.6887417218542957,1
0.48913026913059743,0.38922025837610236,0.9208591362981666,0.4617272949156348,0.7433811313366059,0.6887417218542957,1
0.26996776806679257,0.22252172305020826,0.6676715710494917,0.4829631816021073,0.731994894061389,0.6887417218542975,1
0.2799874956489497,0.15247578418820024,0.53837621147352,0.45487407051353257,0.7196755497100595,0.6887417218542975,1
0.23403976044687314,0.21837013837111124,0.5463838322652838,0.5240044117472259,0.7034361358499011,0.7086092715231729,1
0.1381887672635571,0.24158360492832437,0.5647271332878603,0.4882528431718788,0.714448984610508,0.7086092715231729,1
0.38244958718560207,0.2712896258176579,0.7024186141167605,0.5158022132949935,0.7088493223646757,0.7086092715231729,1
0.5531174829896466,0.3631368375184532,0.9685081218811877,0.5523910373996246,0.728635125850723,0.7086092715231729,1
0.2700013534248733,0.33496489244975136,0.7342955354769246,0.46060340539213945,0.7226620750902807,0.7086092715231747,1
0.11796542705017576,0.37713512688531997,0.5700448084987906,0.5680982333761675,0.7109025949846189,0.7086092715231747,1
0.2807568341688674,0.28559949196790513,0.6802838032381728,0.554315301933186,0.7101559636395637,0.7086092715231782,1
0.34657363571322475,0.2737000485376633,0.7780467662273445,0.39557229997636634,0.7015696303293456,0.7086092715231782,1
0.40796486907397705,0.2574600343268032,0.820407685308852,0.558152165306038,0.7095959537097308,0.7086092715231747,1
0.40119193642872425,0.26148051794435023,0.8244801168438949,0.4987875877028296,0.7150089945403402,0.7086092715231747,1
0.3893127366733388,0.2579168864518947,0.808981752234315,0.49595495716955246,0.7137023532654527,0.7086092715231782,1
0.3577715371651706,0.26078816641517477,0.8026679904890668,0.589738200199836,0.7116492263296742,0.7086092715231782,1
0.3604567594757388,0.259285880766432,0.7868225537793048,0.5154882636875934,0.7097825751249537,0.6953642384105958,1
0.3395684828478928,0.26506702872439847,0.786756083434635,0.44052276779779187,0.7032495144346788,0.6953642384105958,1
0.2802438986213198,0.2633847815187309,0.718267070949962,0.48631669851660614,0.6944765597092378,0.6953642384105958,1
0.21141201786581815,0.2586935298336771,0.6147480854770979,0.5575518502510851,0.6868236248434625,0.6953642384105958,1
0.22454673144134885,0.25670343767236964,0.6230839920005086,0.49248239645762637,0.6748775233225783,0.7086092715231782,1
0.22088166320056768,0.2598120984156373,0.6306808585666831,0.44605387219833076,0.6786106800478547,0.7086092715231782,1
0.23781672569689194,0.2599906560738213,0.6509986924777789,0.4796470832263763,0.6845837308082969,0.7086092715231782,1
0.23399318087158422,0.26259575698719645,0.6526182470126929,0.5093752373801795,0.684957119322907,0.7086092715231782,1
0.2352536669958588,0.25967473221686166,0.6438384023560486,0.4434914644588736,0.6825304581883533,0.70860927152318,1
0.22580402143901157,0.2604905896987254,0.641506988385971,0.5676340592912602,0.6799171756385777,0.70860927152318,1
0.2349460585744314,0.2586302625041956,0.6422048799040948,0.515030201940248,0.677117417357744,0.7086092715231818,1
0.23145391402076937,0.2611090307872551,0.6508191774871949,0.5054033306326131,0.6765574074279112,0.7086092715231818,1
0.24890937275916675,0.2597989603643127,0.6736247908619509,0.5066114999068381,0.6797305542233553,0.7218543046357571,1
0.27179360593563573,0.25455629791169354,0.725480208829656,0.5180913732146962,0.6883168875335731,0.7218543046357571,1
0.3865041261286623,0.21306760324200347,0.7943081706589796,0.4712209973776885,0.6989564934637341,0.7218543046357571,1
0.3962973228220667,0.14509197678667946,0.7500498349322111,0.5155566399952678,0.7030628930194561,0.7218543046357571,1
0.39976959311035914,0.10907107339504107,0.6038129561045572,0.5572033524613137,0.6845837308082967,0.7152317880794659,1
0.3453595956428781,0.05770770680452586,0.5239991143585508,0.4884389039388096,0.6674110641878606,0.7152317880794659,1
0.3858903754581274,0.0728606147571989,0.5228241047172075,0.4787536011131835,0.6668994214007711,0.7152317880794694,1
0.38519443981440815,0.052135290491099995,0.5333894929667693,0.49494126044733483,0.6696991796816048,0.7152317880794694,1
0.3806986535251077,0.05205577915082005,0.5300476992120843,0.4849108862198428,0.662606254745662,0.7218543046357695,1
0.36967445039614216,0.06155078922893731,0.5212473823118821,0.552319710225846,0.65812646667533,0.7218543046357695,1
0.38481765954135116,0.06145199488278674,0.5304617043838235,0.47621457168724596,0.6542065428506664,0.7218543046357695,1
0.38836598205772277,0.05432512101407144,0.5402503207939289,0.5156231554076034,0.6508467746399996,0.7218543046357695,1
0.3731139527227171,0.06495362300536278,0.5362725704363157,0.5297577718727674,0.6486067349206691,0.7086092715231729,1
0.37879599409923564,0.0601816600167816,0.5634831805113635,0.5550042465574686,0.6484201135054467,0.7086092715231729,1
0.39602694142096395,0.06419221666179675,0.5666805945665305,0.40618014823918835,0.6402071687098388,0.7086092715231782,1
0.3710591701101896,0.04701537107817311,0.5565121217553282,0.49249026021223963,0.6295677084638421,0.7086092715231782,1
0.39192352561232624,0.07129633462977131,0.557174311594447,0.572481201464457,0.6277010572591216,0.7152317880794659,1
0.369584516049229,0.05618017097008993,0.5600035534946475,0.6130771378199034,0.6269544259140664,0.7152317880794659,1
0.3869526346678398,0.07040426513944625,0.5574502359573916,0.41010616519668747,0.6232212691887898,0.715231788079473,1
0.33088156320566986,0.06228001615375234,0.6069349635402468,0.35517894173275444,0.6235945120192351,0.715231788079473,1
0.4437062203722881,0.10242240255735846,0.6733557476766615,0.6620561171137798,0.624901153294123,0.7152317880794659,1
0.5227743613306859,0.05484880583946106,0.685804820931121,0.4837033318781766,0.6374072647448402,0.7152317880794659,1
0.47799013209349284,0.06098777353969881,0.7182548280312833,0.3663395024094439,0.6383406631892831,0.7152317880794623,1
0.4982829054940751,0.08312917683436494,0.6925479941492503,0.5953835233926683,0.6418870528151718,0.7152317880794623,1
0.5056447143082313,0.03323630466356736,0.6991752865323794,0.5470203358796075,0.6407671786396715,0.7152317880794694,1
0.5449412944569805,0.06440731098779756,0.7001443847564869,0.6292735265400411,0.638900527434951,0.7152317880794694,1
0.5414941860530189,0.06527858057569941,0.7140437465895837,0.45774588880780037,0.6428204512596145,0.7152317880794694,1
0.5021775009365854,0.07189082015438164,0.7274849994121944,0.40977654678793834,0.6437537040198924,0.7152317880794694,1
0.5597767354520127,0.07234540314695043,0.6989875986730989,0.4876025449638827,0.6469268508153357,0.7152317880794659,1
0.4808594167980642,0.12201636732499466,0.675096897667707,0.47266020593628083,0.6407671786396716,0.7152317880794659,1
0.19221807039653221,0.25801163096485247,0.7314530086734887,0.5650360654953854,0.6409538000548938,0.7152317880794676,1
0.2506955837627069,0.24936061605538443,0.674787137521435,0.5044004434726936,0.6450603452947803,0.7152317880794676,1
0.23500248456706446,0.2647650104534146,0.6705865797336608,0.5103117425735041,0.6497267547803346,0.7086092715231658,1
0.2460439153977455,0.26266472307293426,0.6728049227564121,0.4888282421848867,0.6514066388856676,0.7086092715231658,1
0.2438456731469465,0.24860378769267935,0.6660921150654069,0.5011739137665926,0.6536465329208336,0.7086092715231658,1
0.25917702627077227,0.23921591229798556,0.6760758999820866,0.5157639390096221,0.6523400373301106,0.7086092715231658,1
0.34221290210213084,0.2625368033197771,0.7691068023538893,0.48861598239555415,0.652526658745333,0.7152317880794623,1
0.4061050370277536,0.3298485946833861,0.8586045770681419,0.5600934197456984,0.6542065428506665,0.7152317880794623,1
0.4154307160250633,0.3237180657240627,0.8481516154521275,0.5114239505412665,0.6579396995759426,0.7152317880794623,1
0.45135575000746375,0.3275908184660487,0.8780529799952455,0.4605225343741694,0.6588729523362209,0.7152317880794623,1
0.4632221733915852,0.33000772892909447,0.8736825614847683,0.4444725263495045,0.6607396035409412,0.7152317880794623,1
0.4414211044388998,0.319224852680212,0.8681348351188074,0.49871334303897996,0.6674592856464385,0.7152317880794623,1
0.4544596402167189,0.3301115774176246,0.8746011574404519,0.575906061801523,0.6670860428159938,0.7152317880794623,1
0.47901998049270866,0.3264617944453216,0.8862759033682179,0.5263430122951726,0.6659660229563282,0.7152317880794623,1
0.46698634623679686,0.32249665662097715,0.8742499166454294,0.5145765645607449,0.6674592856464387,0.7152317880794659,1
0.46090929101319283,0.31852261200331794,0.8761330400605127,0.5176585340037883,0.6689525483365496,0.7152317880794659,1
0.4607122886983951,0.3241082956229756,0.8708142874331186,0.4734612923899286,0.6702591896114373,0.7152317880794659,1
0.41608003643292524,0.31634490397294324,0.8576120204117779,0.48606796768501404,0.6711924423717147,0.7152317880794659,1
0.39978961998507634,0.3135441635318542,0.8375547343897479,0.5155333090605088,0.6683926840908814,0.7152317880794623,1
0.3991809865767794,0.31842668996219003,0.8451518335694108,0.5130336567022706,0.6648461487808277,0.7152317880794623,1
0.39685870944161017,0.3156702635033817,0.837131758678088,0.47484412480995675,0.6637261289211621,0.7152317880794659,1
0.3979866305347337,0.3177658418149261,0.8461076427897681,0.4810840494979979,0.6626062547456618,0.7152317880794659,1
0.39739264914051325,0.31603469556643027,0.8400294111127209,0.4519257681693034,0.6624194876462746,0.7152317880794623,1
0.3977911680359231,0.3175131394652078,0.8450333353112969,0.5426269886193176,0.6616728563012193,0.7152317880794623,1
0.39620949179948217,0.31624738923771234,0.8418330015712838,0.5342968273253108,0.6614862348859966,0.7152317880794623,1
0.3967043318878715,0.31727875566375163,0.8448971815651504,0.5287413715533734,0.660926224956164,0.7152317880794623,1
0.3967393055266723,0.317655607225111,0.8398617866349207,0.4874767749680393,0.6605529821257186,0.7152317880794659,1
0.39790749771792533,0.3184278667664976,0.8457825308155194,0.473080156985998,0.6601795936111088,0.7152317880794659,1
0.3994118768670437,0.3175397716602727,0.8427484707847117,0.5246806331825907,0.6601795936111086,0.7152317880794623,1
0.4003473714053925,0.3183791771680477,0.8459585020684082,0.5427542366167278,0.6598063507806633,0.7152317880794623,1
0.39581801376236286,0.3170474601610128,0.8403082774489524,0.5179295047730825,0.6594329622660532,0.7218543046357571,1
0.3914613372264869,0.3210112205066642,0.846620991498308,0.5078650504369171,0.6592463408508308,0.7218543046357571,1
0.3577073113921419,0.3158551372434721,0.8231399226553004,0.4642478735539297,0.6590597194356079,0.7218543046357571,1
0.33653906476739226,0.2714378135842074,0.7847386633622024,0.5136239960545909,0.6588729523362207,0.7218543046357571,1
0.24188126605427296,0.263818716977261,0.6849371021921606,0.5258033098953663,0.6579396995759426,0.7152317880794659,1
0.2409525895450922,0.20513249040678874,0.43913323913629904,0.5308966262207827,0.6523400373301109,0.7152317880794659,1
0.20483892578785873,0.20461330765154798,0.477826112155671,0.49422549132446764,0.6519666488155004,0.7152317880794659,1
0.19901430775660972,0.23494259399207645,0.5438233392940245,0.4947642634549494,0.6689525483365493,0.7152317880794659,1
0.27583706216718384,0.20841069427835857,0.5884136212293289,0.4784196275824484,0.6627928761608843,0.7152317880794623,1
0.24663984421695556,0.22970459100546003,0.6672810678890204,0.5148331161989426,0.6678326741610489,0.7152317880794623,1
0.25747252013417793,0.20762355865482765,0.6281070359550156,0.4964891481681447,0.6691393154359365,0.7152317880794605,1
0.25189350898663515,0.21100526634531436,0.635761159269846,0.5090314471456169,0.6685793055061042,0.7152317880794605,1
0.3007306610912921,0.2014274709098191,0.6876678138694146,0.5132207647397756,0.6659660229563282,0.7152317880794623,1
0.3675482191449288,0.23224964509058638,0.8086387639729218,0.540326970811488,0.6661527900557157,0.7152317880794623,1
0.4258616443775866,0.16391400801226585,0.7425895128428752,0.5009652555425723,0.6710058209564921,0.7152317880794623,1
0.4363116609137617,0.26409084116681436,0.8343770877692107,0.47609215155304063,0.6738057249214909,0.7152317880794623,1
0.41080262195512923,0.33873081162929697,0.8951181343579899,0.4590401551388788,0.6568198254004421,0.7152317880794623,1
0.4512207161167116,0.281307093938543,0.8410862334099065,0.4993184145224395,0.6639127503363851,0.7152317880794623,1
0.46542768480417,0.31770191836439376,0.8937407277588453,0.38481649207636603,0.6637261289211623,0.7152317880794659,1
0.4309925101634755,0.29603957593424657,0.8431034483532444,0.4633329560497767,0.6661527900557158,0.7152317880794659,1
0.46146429147859996,0.30282687698773614,0.8749280050794687,0.6178854378595675,0.6661527900557157,0.7152317880794588,1
0.4161060340848452,0.32159262723724374,0.8576215882905494,0.6139669767175138,0.6648461487808278,0.7152317880794588,1
0.20345883362200312,0.291507545365942,0.6748491377277344,0.5296400351718583,0.6642861388509949,0.7152317880794605,1
0.2858102873889456,0.21620231648481028,0.5015619229174603,0.4983964165997575,0.6532732900903883,0.7152317880794605,1
0.21190121649745824,0.18965282318361237,0.3219154472362813,0.47917829915311,0.6605529821257184,0.7284768211920465,1
0.2411662980751924,0.2022718767065786,0.41769848260378645,0.5529202363642137,0.6745523562665463,0.7284768211920465,1
0.32350983162755304,0.2599085077563975,0.7961560169634556,0.456960454045631,0.6471134722305587,0.7284768211920483,1
0.3915204134775567,0.3405674341919811,0.8165730127647206,0.5003548883059404,0.6441270925345027,0.7284768211920483,1
0.5200599649336484,0.33145779331962394,0.9049500627349115,0.5735724213459815,0.6493533662657247,0.7218543046357553,1
0.5417298451653578,0.29912264633401575,0.9026122570347725,0.2704196960737026,0.6584997095057753,0.7218543046357553,1
0.5407713366888799,0.33145542073292483,0.9041031880796184,0.5201478188292141,0.6607396035409413,0.7218543046357571,1
0.5070775120742771,0.31423331251637676,0.9009532701543925,0.6225721129995212,0.6674592856464387,0.7218543046357571,1
0.39249093665282636,0.3412733840937379,0.85084736027075,0.5435858831662567,0.6655927801258829,0.7218543046357535,1
0.21653714310261946,0.2035201666710822,0.5384937735028396,0.6072237576435305,0.651780027400278,0.7218543046357535,1
0.24808618731103904,0.2504459571053392,0.6426036395604483,0.5374444994044352,0.6411404214701165,0.7218543046357535,1
0.21174422753259514,0.24101215393610678,0.4650625639140672,0.4625763390400297,0.6056753597379084,0.7218543046357535,1
0.15067864142332033,0.27382933737754855,0.49446609095357735,0.3767128023588493,0.6394605373647833,0.7284768211920483,1
0.21897540770258955,0.26201964805851946,0.6236040330152948,0.5314828971221728,0.6445003353649478,0.7284768211920483,1
0.2536395440945452,0.21343445306775932,0.5904852119358328,0.503179643939828,0.6254611632239556,0.72847682119205,1
0.23737458421882524,0.2139942886462359,0.6008279629374407,0.5370352448481504,0.6278876786743443,0.72847682119205,1
0.24107855243793996,0.20045211646759292,0.5909681105473594,0.3564594295730019,0.632367612428841,0.7152317880794676,1
0.27859255911313774,0.2205258853927574,0.6949225688143702,0.6509570031357603,0.6321808453294532,0.7152317880794676,1
0.27594444084529285,0.20472572680455486,0.6629710550644524,0.5187957238107304,0.6334874866043413,0.7152317880794676,1
0.2674703348626425,0.204806150149028,0.6650997716730215,0.5431056136270958,0.6329274766745084,0.7152317880794676,1
0.275132723435844,0.199819742492973,0.656094584282994,0.48368758017559393,0.6288210771187869,0.7218543046357553,1
0.28825094337623053,0.202838088925392,0.6861466270347917,0.41145225364559845,0.6291943199492323,0.7218543046357553,1
0.30511692679479113,0.19474352079158372,0.687036065486366,0.5626057257103456,0.6303143398088975,0.7218543046357571,1
0.3153845110146083,0.19957896682875081,0.7192131633572231,0.5081032858383798,0.6288210771187868,0.7218543046357571,1
0.33436409862625277,0.19269171489783754,0.713343330492337,0.4552224823802876,0.6284476886041764,0.7284768211920412,1
0.32659615841688344,0.19890172471826095,0.7286786883606169,0.4994566613699879,0.6284476886041768,0.7284768211920412,1
0.3078181220997676,0.20305528476633933,0.7056284882526145,0.5265612220608131,0.6308743497387299,0.7284768211920412,1
0.30207232095776204,0.2111250090862472,0.7181513389047245,0.4821071265253762,0.6306875826393429,0.7284768211920412,1
0.30821356394487964,0.21213399922089263,0.7096983983840911,0.516278998782032,0.6293809413644548,0.7284768211920465,1
0.30252608440493933,0.2156630797099979,0.7183066060167295,0.4772690134609888,0.6277010572591217,0.7284768211920465,1
0.30878665590151705,0.21380569995011553,0.7102380196777691,0.47780862576810973,0.6265811830836211,0.7284768211920465,1
0.30420389723717534,0.21759025818967725,0.718728285845109,0.45269906777725843,0.6254611632239558,0.7284768211920465,1
0.30839762921142494,0.2159818870599971,0.708951252109776,0.5346443478680487,0.6245279104636775,0.7284768211920429,1
0.3032160044022672,0.2200494552417671,0.7228936316238238,0.5426839524406554,0.6245279104636777,0.7284768211920465,1
0.3084856236597809,0.21655331604040454,0.708820184896399,0.5384685915908235,0.624154521949068,0.72847682119205,1
0.30259768909579543,0.21794721036045864,0.7199315197734708,0.5126949877734085,0.6237812791186226,0.72847682119205,1
0.3069030101792248,0.21766679001528957,0.7061412897202934,0.4987901477296011,0.6230346477735674,0.7317880794701885,1
0.2979997910174735,0.21905073798353997,0.7188349605442537,0.45035001512845924,0.6226614049431223,0.7317880794701885,1
0.31070229457005605,0.21591507307146066,0.7077846448245103,0.5143239977291122,0.6221013950132893,0.7317880794701885,1
0.2817105064559281,0.22162036087306708,0.7226256782684438,0.5488190719490966,0.6213547636682341,0.7317880794701885,1
0.26885807301111003,0.18352341624594926,0.6522902339734462,0.5260674690166489,0.6200481223933461,0.7284768211920483,1
0.47101039177307324,0.19345685523985354,0.7952555906566245,0.5132361842684486,0.6217280064986793,0.7284768211920483,1
0.44098484413251715,0.181704595954273,0.7981492172672946,0.4748449109360945,0.6290076985340095,0.72847682119205,1
0.45285468543380536,0.2654247401066111,0.8669889432071618,0.48750952091666355,0.6351673707096744,0.72847682119205,1
0.49248825377158423,0.26887536288936725,0.8666064686641353,0.544463785334508,0.6347941278792291,0.72847682119205,1
0.5278969911122922,0.2654572545172847,0.888991093155711,0.5418891349690065,0.6344207393646192,0.72847682119205,1
0.502253031501358,0.2662605337937475,0.8681881951833818,0.47973798803453827,0.6377806532594503,0.72847682119205,1
0.47723939662782977,0.25877828279498427,0.8654153223372572,0.43407599420640414,0.6368472548150076,0.72847682119205,1
0.430734984160621,0.2529213884719444,0.8285439731058497,0.5627870923298307,0.6342341179493961,0.7384105960264851,1
0.4573653409177882,0.26788187667085966,0.8811424752883548,0.5606992865551189,0.6318076024990084,0.7384105960264851,1
0.3011060139371965,0.25637970764397167,0.7272359653436316,0.5058532024085826,0.6282610671889542,0.7384105960264886,1
0.26153526882987815,0.16566805421617412,0.5265828794505746,0.4707393634827768,0.6172482184283478,0.7384105960264886,1
0.2519261661018876,0.16022469550124707,0.4618532191732608,0.44033766453797624,0.6047421069776305,0.7317880794701903,1
0.2583140377387812,0.17085465571240616,0.4982952010012651,0.5014735943857589,0.591115975667248,0.7317880794701903,1
0.24280387313786056,0.17837265668776492,0.5201030506150275,0.5233175317647052,0.612851324647838,0.7317880794701939,1
0.2189682829748748,0.19175088366413098,0.5737346797482558,0.5254514142340571,0.6367436733737719,0.7317880794701939,1
0.2612686348527873,0.17356906903937305,0.5938191538183464,0.4882451015298537,0.6479431435496006,0.7384105960264886,1
0.4825684867891603,0.15980251909693927,0.7636914916493972,0.5329180397720756,0.6486897748946561,0.7384105960264904,1
0.5092702630164024,0.24890363426326462,0.9082772129746767,0.5208971337042715,0.625730824613165,0.7384105960264886,1
0.6270278942478177,0.28115347363687826,0.8894345465127835,0.5337625293052842,0.6361836634439388,0.7384105960264886,1
0.4780990512569885,0.24209984764103606,0.868840987055016,0.35447439879858467,0.6371170618883815,0.7317880794701903,1
0.3988629656675742,0.3220816591493887,0.786746012483061,0.4517833907007523,0.6328237495491078,0.7317880794701939,1
0.3332520210265548,0.39572708172529125,0.8184167684188165,0.6861237139371253,0.6229309206481662,0.7317880794701939,1
0.2316471451058293,0.3758749666284372,0.6984912843174442,0.5004517897802793,0.6253575817827198,0.7317880794701939,1
0.1705891589475752,0.35799061250003344,0.5654726118826662,0.40748469274424876,0.6195711524375002,0.7317880794701939,1
0.17194009226093776,0.3694526487514535,0.5977412876666074,0.45315583469166265,0.621064269443446,0.7317880794701939,1
0.181045320290103,0.38158792187922314,0.6027274856360445,0.5927325526707603,0.6218110464726659,0.7317880794701903,1
0.18416850882818053,0.3753018228879049,0.6054962231728768,0.5822128052109972,0.6156512286128365,0.7317880794701903,1
0.18690403241691056,0.39263848917164484,0.6242289393457111,0.568881385843097,0.6122914604021699,0.72847682119205,1
0.20242294500603802,0.3928046018526094,0.6520713437280597,0.3972843130582312,0.6152779857823912,0.72847682119205,1
0.2072863386555403,0.38962268681610285,0.664757232758478,0.4395706790910323,0.6145313544373359,0.7284768211920536,1
0.208170218541317,0.37983888645790415,0.6618146606622599,0.49289596186618856,0.6113580619577274,0.7284768211920536,1
0.1969451198879022,0.37535761167102444,0.6426636549814333,0.47871929785688755,0.6102381877822267,0.7384105960264851,1
0.2047137154773917,0.3615248956647279,0.6536906512618335,0.5550061732027506,0.606691652472173,0.7384105960264851,1
0.21199169800788326,0.36672056959811267,0.6633906599157436,0.5496146001786989,0.6038917485071748,0.7384105960264886,1
0.2098220878051587,0.3607254369532425,0.662301889866576,0.5272532347762184,0.6014652330567861,0.7384105960264886,1
0.21123257255207878,0.36522906896761326,0.6651300485329484,0.46235025767305044,0.600531980296508,0.7483443708609254,1
0.21001418321912846,0.3649528143288859,0.6660678160934586,0.5041506725292201,0.5992253390216207,0.7483443708609254,1
0.2127677898433839,0.36355326781102276,0.6651106467604034,0.5364999732420623,0.5981053191619551,0.7483443708609236,1
0.2097176527367614,0.36389873244564813,0.6660182257194225,0.5180091222001256,0.5971720664016772,0.7483443708609254,1
0.21146610745107008,0.3641096183737679,0.6671205797117851,0.4794292919180958,0.5960520465420118,0.7483443708609308,1
0.2103552220058899,0.36282154238453,0.6638368091189348,0.5121569862084141,0.5953055608811214,0.7483443708609308,1
0.21295010340363685,0.3639613922055552,0.6647229141331819,0.5413075729426593,0.594185541021456,0.7483443708609308,1
0.2105813277735361,0.36402193652732334,0.6631718856055071,0.5012414706542369,0.5934389096764007,0.7483443708609308,1
0.2128326195630807,0.3646065647015083,0.6674699427506344,0.47444811494066114,0.5921322684015128,0.7384105960264904,1
0.21067660873469046,0.3642145150832062,0.6631656152618237,0.5130430766756432,0.5911990156412349,0.7384105960264904,1
0.2127374711710363,0.36660416196294304,0.6641538274075351,0.5392882286571864,0.5904523842961799,0.7384105960264957,1
0.21080720864882846,0.36405799480782175,0.6627321687531649,0.503002852529313,0.5895191315359016,0.7384105960264957,1
0.21176066902626933,0.3662939061217503,0.664148281198633,0.4887042696354283,0.5887725001908463,0.7384105960264886,1
0.21063231352150252,0.36501628203146463,0.6627889846405405,0.4658034266526135,0.5878391017464039,0.7384105960264851,1
0.21266728778275706,0.3663451890998233,0.6640838214143121,0.5285949740079708,0.5870924704013482,0.7384105960264886,1
0.20972179364431925,0.36500233825200096,0.6628478988306078,0.507751008307019,0.5865326061556808,0.7384105960264886,1
0.21285419145164947,0.3663723774006272,0.6640414918037023,0.5110416892685237,0.5859725962258479,0.7317880794701956,1
0.2106774772999062,0.3649254528666709,0.6628408810522538,0.4699841665816869,0.5852259648807928,0.7317880794701956,1
0.2127558377609251,0.3666029582467728,0.6646175424332078,0.5084685030409157,0.5846659549509601,0.731788079470201,1
0.2107254208211095,0.3636754642958996,0.6641126237294731,0.5205382609477524,0.5837327021906823,0.731788079470201,1
0.21273054248797596,0.36433313734729444,0.6638681362702515,0.5090297688619607,0.583732702190682,0.7483443708609325,1
0.2107302503446561,0.36585096242042076,0.6638135866604786,0.46906606918212884,0.5824260609157941,0.7483443708609325,1
0.2127570857380408,0.3638394818307362,0.6664551471653408,0.5058122802617969,0.5814928081555161,0.7483443708609325,1
0.2106274928129408,0.3634362607181795,0.6643411465735115,0.5218519016488912,0.5813061867402937,0.7483443708609325,1
0.21327762862109745,0.36286850017582667,0.6665611379224977,0.5131982497668798,0.5809327982256832,0.738410596026478,1
0.21129863186475972,0.3647170140607478,0.6681343444235925,0.47934188504160274,0.5801861668806284,0.738410596026478,1
0.2101486612283413,0.366258512766031,0.6674145036318219,0.4826958632641219,0.5799995454654056,0.7384105960264833,1
0.2088207243465386,0.36945295874935136,0.6665629992461567,0.5343570128442455,0.5826128280151813,0.7384105960264833,1
0.2118939286689513,0.37350515874189344,0.6675386767424918,0.5224635020831246,0.5872792375007359,0.7317880794701956,1
0.21143579571831828,0.3719260188642121,0.6700056169371719,0.5186348666237539,0.5893323644365142,0.7317880794701956,1
0.21072137429480564,0.3733599508196343,0.6699567749089017,0.48264685736025864,0.5889591216060691,0.7317880794702027,1
0.2109622375601835,0.3714595924455526,0.6695969908938283,0.5118210387945656,0.5870924704013484,0.7317880794702027,1
0.213535405723696,0.3683671412991846,0.6669801693643914,0.5580706556361366,0.587652480331181,0.7483443708609272,1
0.21051039883749867,0.3724731955973474,0.6693372982381558,0.4889907012497701,0.5900791414657346,0.7483443708609272,1
0.2140301063889603,0.3641644503323407,0.6686478055823099,0.46568606671983015,0.5891457430212916,0.7483443708609236,1
0.2147396312025573,0.3592363141896414,0.6748702008333269,0.4451501749006985,0.5572272165991372,0.7483443708609254,1
0.21187515119392747,0.36024631654029793,0.6706683002122917,0.5037173369365647,0.533148246457981,0.7384105960264922,1
0.2384406729070243,0.3708304668558693,0.7184997251086067,0.5370662144527115,0.5329616250427585,0.7384105960264922,1
0.256820833105789,0.36902540483879387,0.7348007995950592,0.5279850218035969,0.5422945896980316,0.7384105960264957,1
0.2453438733184396,0.3629497580509363,0.726298879513435,0.44263460363916285,0.5609603733244136,0.7384105960264957,1
0.2883128563644624,0.37464614683534747,0.7721179609758864,0.48880546142718595,0.5671200455000784,0.7384105960264833,1
0.28431619508081823,0.3765966922896984,0.7711321659849164,0.5193034590893958,0.5770130200851846,0.7384105960264833,1
0.24892513362408442,0.3765854728441515,0.726548214648473,0.5513914534324056,0.5785062827752949,0.7384105960264851,1
0.24241873213053394,0.3679151694787342,0.7201754996973951,0.4536541981418634,0.5786929041905177,0.7384105960264851,1
0.24852679404107225,0.3681520774697899,0.7238551174789054,0.4793068175945434,0.5777596514302398,0.7384105960264762,1
0.2456672848900251,0.363893184070548,0.7226369159571969,0.6291757276077924,0.5775728843308525,0.7384105960264762,1
0.247635706949218,0.36536715211372817,0.7217536386865089,0.5527706636733651,0.5770130200851846,0.7384105960264762,1
0.24150931547211418,0.36376018351815337,0.7166196793308395,0.4433784250262643,0.5760796216407418,0.7384105960264762,1
0.24419619710653406,0.36366340678344705,0.7196066079617622,0.39478531191555366,0.5753329902956864,0.7384105960264851,1
0.24276522610311935,0.3632828426870209,0.7184041959538712,0.5522783794137698,0.5743997375354088,0.7384105960264851,1
0.24438677110477186,0.36415497759330484,0.7164822160800295,0.5412354528108265,0.5740264947049636,0.7384105960264851,1
0.24318811691611453,0.3653999851855842,0.7187051915229858,0.529898574530956,0.573466484775131,0.7384105960264851,1
0.2432920858549179,0.3627330693710482,0.7170125156091196,0.4747858911323155,0.5719732220850202,0.7317880794701903,1
0.24301303991928103,0.36270107599818563,0.7173033613815989,0.48846937344830305,0.5719732220850203,0.7317880794701903,1
0.24435326106569827,0.36305143450665417,0.7177041226264028,0.5431185393165234,0.571226590739965,0.7317880794701903,1
0.24298261789740622,0.362519270826878,0.7183444971868695,0.5203326846606814,0.5702933379796873,0.7317880794701903,1
0.2443691720888871,0.3625858906109116,0.7193749264116921,0.5094918208066959,0.5697333280498544,0.7317880794701903,1
0.24297456015162916,0.3608232911574094,0.7189917126884046,0.4672429128154571,0.5691733181200218,0.7317880794701903,1
0.24437242132952847,0.36135387075877223,0.7191652287252336,0.49280540710740756,0.5682400653597437,0.7317880794701903,1
0.24297455747810637,0.3619420434865892,0.7181444640077581,0.5392979843310013,0.5676800554299113,0.7317880794701903,1
0.24437001456176588,0.36230051622972326,0.7193519629066606,0.5168540195341,0.5669334240848557,0.7317880794701903,1
0.24297895203309833,0.36196508536707783,0.7189473059787974,0.5021088224085019,0.5663734141550233,0.7317880794701903,1
0.24436376236427632,0.3640245901676097,0.7193318295480737,0.46421791544921753,0.5658134042251907,0.7317880794701939,1
0.24298720467833496,0.36325203283018215,0.7186444630003032,0.5078772623956461,0.5650667728801355,0.7317880794701939,1
0.24435300677459404,0.3628323140832339,0.7178680056187238,0.5360034723740668,0.5646935300496904,0.7284768211920412,1
0.24300160879488575,0.3613261073577186,0.7189862999539511,0.5130300271196544,0.5641335201198576,0.7284768211920412,1
0.2443323264681143,0.3653936310582151,0.719190720854568,0.5032177439070677,0.5632002673595796,0.7284768211920465,1
0.24303570864394636,0.36369718464015705,0.7190814250604461,0.46229235697936144,0.5624536360145242,0.7284768211920465,1
0.24425560140692543,0.3650508436598091,0.7191740631102458,0.49720854478299614,0.5617070046694691,0.7317880794701956,1
0.24396069363015344,0.36306449729499535,0.7190842317675937,0.5316597459356274,0.5611469947396361,0.7317880794701956,1
0.24448938859240327,0.36376391476804765,0.7191769344175131,0.518156998690363,0.5605871304939684,0.7317880794701939,1
0.24294540968697587,0.36513332977818275,0.7190901233137268,0.5055768384666754,0.5600271205641358,0.7317880794701939,1
0.24433925912850596,0.36516084481615635,0.71849727763981,0.46785227777161137,0.5592804892190804,0.7317880794701868,1
0.2433646730390326,0.36000798698523834,0.718479509069377,0.4974815787587855,0.5587204792892481,0.7317880794701885,1
0.2450910362866217,0.3587478561646675,0.7181868912329901,0.5343342628654536,0.5583472364588027,0.7317880794701868,1
0.24313856437294257,0.35698115184925183,0.7189631906111997,0.5130479995715473,0.5590938678038575,0.7317880794701885,1
0.24910277402549857,0.3609177597207046,0.7268168486615136,0.5005663439783292,0.5497607574644194,0.7317880794701939,1
0.2506785192741201,0.36448452074668297,0.7300920102729018,0.4631561937014794,0.5402413170780888,0.7317880794701939,1
0.2512606423618962,0.3669220829701632,0.7277055042318864,0.5342463283483858,0.5378146559435354,0.7317880794701939,1
0.25074678169598336,0.36281998350354683,0.727785566074891,0.5261845653441501,0.5374414131130901,0.7317880794701939,1
0.25253006746358236,0.3670679535186057,0.7273185021028823,0.45638358422074904,0.5368814031832574,0.7384105960264851,1
0.25009687238118555,0.36461584498355315,0.726603944373758,0.44041098079114727,0.5385612872885907,0.7384105960264851,1
0.25165301543210655,0.3665908127627892,0.7263455735558335,0.5354385120486418,0.5391212972184231,0.7384105960264833,1
0.2503253417181899,0.36484517454823806,0.7268993790485893,0.5524915323192383,0.5389346758032006,0.7384105960264833,1
0.2526225396331768,0.36646102322833546,0.7266463351485347,0.5280915239340832,0.5387480543879779,0.7317880794701903,1
0.24992040000141819,0.364920448357269,0.7263259689308975,0.47465632888548426,0.5378146559435355,0.7317880794701903,1
0.25223813996734895,0.3664148913425431,0.7258805483394629,0.5108645879865726,0.537814655943535,0.7317880794701903,1
0.2510372146599601,0.3636190228326901,0.7262840074652166,0.5388641529924965,0.5370681702826451,0.7317880794701903,1
0.2522886653689891,0.3658530927866226,0.7259012026182404,0.518465549633014,0.5363215389375895,0.738410596026478,1
0.2502719920304661,0.3651878215976927,0.7262732214707596,0.49357156273818514,0.5353881404931468,0.738410596026478,1
0.25133776056231844,0.36621536779360014,0.7259066279396962,0.4696820889743812,0.5353881404931469,0.7384105960264833,1
0.2496436946959097,0.365122419869573,0.7262709994657887,0.5264684175104434,0.5344548877328692,0.7384105960264833,1
0.25025769608836856,0.3662397903042749,0.7259068396896873,0.5220783610659537,0.5340814992182584,0.7284768211920465,1
0.2501493044892188,0.36510983773139555,0.7262720323317915,0.5134545444329568,0.5333348678732037,0.7284768211920465,1
0.2516284217825339,0.36624848044233205,0.7259051690187133,0.49293056105050126,0.5325882365281481,0.7284768211920465,1
0.2492626219501035,0.36510202742937947,0.7262736829596925,0.4757968214598495,0.532214993697703,0.7284768211920465,1
0.25303494373160407,0.366256806157754,0.7259045627433225,0.5232575548000853,0.5312817409374252,0.7284768211920483,1
0.2504481589740605,0.3650924199736716,0.7262710492382807,0.518710284003023,0.53053510959237,0.7284768211920483,1
0.2528625617368414,0.36626820086316136,0.7259167872493597,0.5059400530513859,0.5301617210777599,0.72847682119205,1
0.24978356616744907,0.36507883017211373,0.7262208200924769,0.4749690921103512,0.5294150897327048,0.72847682119205,1
0.2523047854712206,0.36628438313710865,0.7265153935984985,0.5043500400424251,0.5286684583876493,0.7284768211920429,1
0.25086124119449066,0.36505960822206074,0.7271655260421678,0.5254831803359127,0.5281084484578163,0.7284768211920412,1
0.2524887303006753,0.36630719946109136,0.7270012877383627,0.511708059877674,0.527548584212149,0.7284768211920429,1
0.25081306900386097,0.3650324614950077,0.7263486409134379,0.4945050512430909,0.526801952867094,0.7284768211920429,1
0.2525317043482827,0.3663397088023807,0.7265279524098773,0.47776211448743894,0.5281504054973045,0.7284768211920412,1
0.24998482480021622,0.3649930587471122,0.7278598849487314,0.5206286158823609,0.5270303856376394,0.7284768211920412,1
0.25193119565413974,0.36638842890711626,0.7263557127140172,0.5181423298747839,0.526657142807194,0.7284768211920412,1
0.25007619772871986,0.36493084779880436,0.7261782550964321,0.507905098787544,0.5260971328773615,0.7284768211920412,1
0.2525313113080204,0.36647218254519714,0.7259277161588487,0.4869741794405263,0.5255371229475286,0.7284768211920465,1
0.2480661718949393,0.36480720163036284,0.7262862530597444,0.48027354068194744,0.5247904916024737,0.7284768211920465,1
0.25171585291973764,0.3666909656730701,0.7258652553420395,0.5233428868995568,0.5242304816726409,0.7284768211920483,1
0.24952703500791257,0.36417503935950835,0.7263390137670742,0.5158980060128633,0.5236706174269732,0.7284768211920483,1
0.25247242260944164,0.3656811569820137,0.7258063785828822,0.5084567704241715,0.5236706174269732,0.7284768211920536,1
0.25059514535747685,0.36558619871014647,0.7264258021039272,0.48111652186279197,0.5229239860819178,0.7284768211920536,1
0.251369302426297,0.36604742578612676,0.7256123208566956,0.4987850925642658,0.5219905876374751,0.7284768211920536,1
0.25071911605167596,0.36541114250216955,0.729075266074912,0.5218816628020858,0.5214305777076423,0.7284768211920536,1
0.2554670308304371,0.36714635523515843,0.7314128630612624,0.508843324879733,0.5210573348771971,0.7284768211920465,1
0.2498059827684182,0.3646054718524099,0.7334969587057647,0.48156875532374,0.5208707134619748,0.7284768211920465,1
0.25497048559897106,0.3667745436531686,0.7326307849095474,0.5036998491586389,0.5210573348771972,0.7284768211920483,1
0.2516358040360271,0.364496825454451,0.7335120419356761,0.5307795039402502,0.5212439562924197,0.7284768211920483,1
0.25825503857907856,0.36696802341185536,0.7324976960104759,0.49852122490566936,0.5212439562924196,0.7218543046357535,1
0.25332923997923246,0.36427255611955756,0.7337337314856067,0.4803990684956932,0.5208707134619747,0.7218543046357535,1
0.261740152720981,0.36707746147980996,0.7322305057173407,0.5223878434268268,0.5204973249473644,0.7218543046357517,1
0.24271210982242436,0.36648536737297477,0.733746134999933,0.5213845291980387,0.5199373150175319,0.7218543046357517,1
0.170976266281071,0.3383353452684906,0.6250268426405201,0.4819210171658141,0.5191906836724766,0.7284768211920465,1
0.2641438767675242,0.21106827122711594,0.5397935083910466,0.5051385484827315,0.5203107035321419,0.7284768211920465,1
0.3287303500130174,0.09960390562111066,0.5011518243518793,0.534583421364638,0.5229239860819179,0.7284768211920465,1
0.31600086848127956,0.08429939432616113,0.4283729753069828,0.5117323517572322,0.5201240821169194,0.7284768211920465,1
0.30371280539365925,0.11758789151016269,0.43023953984479085,0.513735545783383,0.5182574309121984,0.7284768211920394,1
0.2775787432676684,0.1422282885058616,0.43613411462971524,0.5058177757035092,0.5160175368770328,0.7284768211920394,1
0.24892940160932725,0.15419597591070638,0.4323199245842629,0.47016677454943306,0.5147108956021447,0.7284768211920465,1
0.23782205301216763,0.17675908773957416,0.45619243944305726,0.4988971914353079,0.5130310114968119,0.7284768211920465,1
0.24353458412292472,0.17456743870623886,0.4523006354310658,0.5089090216795028,0.5113511273914786,0.7218543046357517,1
0.2543309629397253,0.16483298500115223,0.4560532289778856,0.4855727388223493,0.5096710976019808,0.7218543046357517,1
0.24028045630281064,0.17566814731854766,0.45842387009430935,0.478615968923116,0.5087378448417026,0.7218543046357535,1
0.24425634825529707,0.1763807687349035,0.45087170518148834,0.5263702923304275,0.5072445821515923,0.7218543046357535,1
0.24368521465147952,0.17658066922962334,0.4468465602220687,0.5426804689837077,0.5053780766310363,0.7317880794701903,1
0.2437322103333175,0.17691568860017245,0.4479559607774528,0.522239038299105,0.503884813940926,0.7317880794701903,1
0.24365004481090463,0.17710955308291643,0.4478950736210278,0.45287539214395284,0.5022047841514276,0.7317880794701939,1
0.24365846920099882,0.17747881561244475,0.4485674618098907,0.5126409634089588,0.5014581528063725,0.7317880794701939,1
0.24371807629838943,0.17703272984676605,0.44960798296895194,0.5508241256588843,0.4997782687010391,0.72847682119205,1
0.2436062809730804,0.17748875943049267,0.44946936219293754,0.5113063682803916,0.4984716274261513,0.72847682119205,1
0.24375357339760217,0.17704428683721624,0.4514722090395238,0.4675282109410199,0.497351753250651,0.7284768211920536,1
0.24358147827340165,0.177468972064983,0.45050066859649734,0.5010312069045535,0.49623173339098553,0.7284768211920536,1
0.2419471912632889,0.1770670892979643,0.45341127877382537,0.5221388017056436,0.4951118592154848,0.7384105960264833,1
0.24332701238021942,0.17744549716972063,0.45342969410511313,0.5159756838590092,0.4941784607710424,0.7384105960264833,1
0.2439046723607357,0.17709012063869953,0.44784519725420896,0.4928073873172021,0.4928719651803191,0.7384105960264851,1
0.24346801366277593,0.17742344306656005,0.4507060958104338,0.48280566882838094,0.4921253338352641,0.7384105960264851,1
0.2438637537512307,0.177110958724011,0.45574661094138297,0.521049021812688,0.4910053139755985,0.7284768211920483,1
0.24349679198763297,0.1774039047843359,0.454775886188147,0.5109382637130304,0.489885294115933,0.7284768211920483,1
0.24383054508490032,0.17712919603362529,0.45419785523045914,0.5067572423321995,0.4891386627708781,0.72847682119205,1
0.24354497140110054,0.17738692607131773,0.45930362637705746,0.48140962338642596,0.48764554576493274,0.72847682119205,1
0.24375029001029985,0.1771449803730677,0.460444853414527,0.5028641719724294,0.48708553583509956,0.7317880794701956,1
0.2437093066476247,0.17737226228309486,0.46055174084569717,0.5187270156059197,0.48596551597543464,0.7317880794701974,1
0.2430258909077294,0.1771586000928261,0.4617629000710359,0.5100197912131679,0.4846588747005462,0.7317880794701956,1
0.24316436997319008,0.1773596113744244,0.46159510422076944,0.4862401144465413,0.48372562194026864,0.7317880794701956,1
0.24315255143535097,0.17717035412105905,0.46159888059489923,0.4950551720284601,0.48297899059521315,0.7384105960264851,1
0.24304259520970944,0.1773486866719752,0.4616641754358898,0.5210358471819994,0.4816723493203254,0.7384105960264851,1
0.24227347953283818,0.1771805122477695,0.46171108368374486,0.5153650343971313,0.4809257179752699,0.7384105960264886,1
0.2420379749861365,0.17733923724158696,0.4633448092683095,0.5038048812329861,0.48055247514482496,0.7384105960264886,1
0.24347510267630956,0.17718930613119527,0.4607928623616221,0.4780615123184435,0.4794324552851594,0.7483443708609236,1
0.24287104495440381,0.17733105023347714,0.46151354863387384,0.5054376190124477,0.47924583386993685,0.7483443708609236,1
0.24407088302203767,0.1771969307644268,0.46145527650098284,0.5293808109835556,0.4784992025248814,0.7483443708609236,1
0.24215794361142406,0.17732394731996587,0.46064411740983313,0.5123769084306505,0.47775257117982634,0.7483443708609236,1
0.24442612882264636,0.17720354909288974,0.4593238852198243,0.5016215883313481,0.4766326970043258,0.7483443708609254,1
0.2430274398738712,0.17731777965045808,0.46155671458577624,0.4811922731771631,0.47644592990493834,0.7483443708609254,1
0.24426920422469184,0.17720929711370534,0.4616866190433398,0.5058762283947347,0.47551267714466045,0.7483443708609272,1
0.24310723807743367,0.17731242291319863,0.46109677606571137,0.519515303278644,0.4743926572849952,0.7483443708609272,1
0.24421841214232748,0.17721428853525095,0.46102192479185233,0.514948150762461,0.4738327930393272,0.7483443708609254,1
0.24314307343051966,0.1773077730114542,0.4620369778269827,0.4904844165870741,0.47308616169427203,0.7483443708609254,1
0.24419154519170744,0.1772186187451698,0.46101560003851716,0.49238498984850193,0.4723395303492168,0.7483443708609272,1
0.24316406447677785,0.1773037424492419,0.46111089047374415,0.5225415078672107,0.4715928990041615,0.7483443708609272,1
0.24417463405398454,0.17722236808572098,0.46165862559815996,0.5141170589671363,0.4710328890743289,0.7549668874172148,1
0.24317802539943156,0.17730025737325267,0.46164777908096877,0.5015403930762893,0.4699128692146635,0.7549668874172148,1
0.24416287006037707,0.17722560451936456,0.46158721292854293,0.47975820291747706,0.46916623786960815,0.7549668874172148,1
0.24318811801778217,0.17729725517411823,0.46164802982245007,0.5093482917649022,0.4684196065245529,0.7549668874172148,1
0.24415406828703723,0.1772283857857791,0.4616316194192063,0.5217966376719025,0.4676729751794975,0.7549668874172148,1
0.24319591351024988,0.17729468254725167,0.4615384417752465,0.511087379940348,0.46673972241921985,0.7549668874172148,1
0.24414705977700774,0.17723076114533326,0.4619179055761211,0.49763309044580994,0.4661797124893872,0.7549668874172148,1
0.2432023092417428,0.17729249392474744,0.4594056013890242,0.4828491186559912,0.4656197025595546,0.7549668874172148,1
0.2441411337837351,0.17723277279025013,0.4592548421670052,0.5159892238182732,0.46487321689866395,0.7549668874172184,1
0.24320788758176037,0.17729065020454413,0.46093801986533833,0.5208456900017385,0.4643132069688313,0.7549668874172184,1
0.24413579386821316,0.1772344569900096,0.4612783692013256,0.5125914863301915,0.4635665756237762,0.7549668874172202,1
0.2432130926232144,0.17728911771714792,0.461952327855297,0.4964292915435623,0.46319318710916585,0.7549668874172202,1
0.24413061848415302,0.1772358450243613,0.46131112902869487,0.4860964546967242,0.46207331293366544,0.7549668874172148,1
0.2432183540553201,0.17728786738232669,0.46192199218766544,0.5122320366006327,0.46188654583427796,0.7549668874172148,1
0.24412513248800433,0.17723696394630925,0.46133363626214385,0.5162093407873276,0.46095329307399985,0.7549668874172148,1
0.2432242454667074,0.17728687401810653,0.461905507217406,0.5011039121550117,0.45983341889849977,0.7549668874172148,1
0.24411857808532172,0.17723783720854233,0.4613458117124669,0.48530325650941286,0.4592734089686669,0.7549668874172077,1
0.24323186403767666,0.17728611577233286,0.46189647513185783,0.5129908479215958,0.45852677762361177,0.7549668874172077,1
0.24410920571152023,0.1772384851797317,0.46135244646416096,0.5196447917717688,0.4574067577639465,0.7549668874172113,1
0.24324432701652138,0.17728557365331654,0.4618917877757904,0.5098381409093354,0.45684689351827873,0.7549668874172113,1
0.2440905986796721,0.17723892557156506,0.4613554114754244,0.4915426278757341,0.45610026217322325,0.7615894039735149,1
0.24327812467118265,0.1772852311409994,0.46189052169668454,0.48817431113751686,0.45554025224339073,0.7615894039735149,1
0.24399545863454908,0.1772391737930449,0.46135477527625446,0.5202027050105228,0.4549802423135579,0.7615894039735149,1
0.2422347722458721,0.17728507386393003,0.46189358351739224,0.5144828519320126,0.4540469895532801,0.7615894039735149,1
0.24426055863084317,0.17723924324515722,0.46134822189622937,0.509982097695313,0.45536513987719424,0.7615894039735025,1
0.2430757542462485,0.17728508933034606,0.4619057616092579,0.48727070774173725,0.45443188711691646,0.7615894039735025,1
0.24311817548938386,0.17723914556635478,0.4613258491682229,0.49303894578620167,0.4536852557718612,0.7615894039735078,1
0.24342021479744402,0.1772852667040505,0.46194967850767527,0.5203367543277908,0.4529386244268058,0.7615894039735078,1
0.24379944400092046,0.177238890837186,0.4612226020538434,0.5136399907554637,0.45275200301158297,0.7682119205297973,1
0.24233479018379378,0.17728559661761362,0.462399447707963,0.5068766620274022,0.4520053716665281,0.7682119205297973,1
0.2442986279146201,0.17723848775075304,0.46192308898527173,0.488043527582548,0.4512587403214729,0.7682119205298044,1
0.24312457457611814,0.17728607101690688,0.46189752437697423,0.4945579252307947,0.45051210897641736,0.7682119205298044,1
0.24419243206578684,0.17723794375439778,0.46247328865393406,0.518343305343499,0.4499520990465848,0.7615894039735096,1
0.24316976636593285,0.17728668303210318,0.4630532942245414,0.513154887347045,0.4493920891167521,0.7615894039735096,1
0.2441657896827228,0.1772372651670186,0.46256713826589385,0.497781408895224,0.44845883635647416,0.7615894039735078,1
0.24318964391213987,0.1772874268711206,0.46260868409719286,0.4855166618721255,0.4478988264266416,0.7615894039735078,1
0.24414600782140278,0.17723645727572374,0.46398458010738114,0.517190313915226,0.44733881649680896,0.7615894039735132,1
0.2432196210541911,0.17728829773205476,0.4663895596559615,0.5169262392315979,0.4465923308359184,0.7615894039735132,1
0.24405964003806502,0.17723552441511117,0.46628161949339186,0.5095202105645281,0.44603232090608563,0.7615894039735132,1
0.24216162956295229,0.1772892917313785,0.4664367175666333,0.48450036224615195,0.44547231097625306,0.7615894039735132,1
0.24434736571218624,0.17723447003243958,0.4647720080361993,0.4970641956239506,0.44453905821597506,0.7682119205298008,1
0.2429678401731727,0.17729040584446595,0.4676188644527962,0.5209531505589103,0.444165669701365,0.7682119205298008,1
0.2432599976006516,0.17723329674249108,0.46373518726730406,0.5144102162063104,0.4436056597715322,0.7682119205298026,1
0.24322419586929922,0.17729163785403768,0.46567075770557265,0.5034730287399769,0.4430457955258646,0.7682119205298026,1
0.2434478783194129,0.17723200637744935,0.4629888910786223,0.4834741659286135,0.4424857855960319,0.7748344370860831,1
0.24176678652913536,0.17729298629985302,0.465267933250552,0.5059753766530003,0.4419257756661993,0.7748344370860831,1
0.2430617513902502,0.17723060004042493,0.4670091233522165,0.5222337129545547,0.44173915425097654,0.7748344370860831,1
0.24355395148574505,0.17729445041821618,0.4684082510728562,0.5117492332339094,0.4408057558065339,0.7748344370860831,1
0.2439673506145456,0.17722907817802966,0.4684691609315114,0.5017159400381024,0.439872503046256,0.7682119205297955,1
0.24266702446594007,0.177296030050266,0.46860952767974373,0.4817948956403444,0.4393126388005883,0.7682119205297955,1
0.24332124260141197,0.17722744070105564,0.46748531548327815,0.5119270111355501,0.4387526288707555,0.7682119205297955,1
0.24266182880391785,0.1772977254785225,0.46906810028712576,0.5192142700658138,0.4380059975257005,0.7682119205297955,1
0.24398846307605848,0.17722568721024215,0.4681570160956239,0.5069060762622659,0.4376326090110903,0.7748344370860831,1
0.24346816689862227,0.17729953711091387,0.4689896667017987,0.48219282229725474,0.43707274476542257,0.7748344370860831,1
0.24372530878352017,0.17722381744261373,0.4681820447850464,0.5054280101656001,0.43669935625081224,0.7748344370860831,1
0.2426634805986852,0.17730146484573142,0.46898357909377253,0.5206746261202252,0.43595272490575715,0.7748344370860831,1
0.24310841591439708,0.1772218321808462,0.4681758966013217,0.5116126851201079,0.43501947214547926,0.7682119205298008,1
0.24012217044823064,0.17730350676091028,0.469003183271175,0.49674909598421674,0.4344594622156467,0.7682119205298008,1
0.24127978717117593,0.1772197351561197,0.4681330906528228,0.4834491845058746,0.4342728408004237,0.7682119205298008,1
0.24194010505589597,0.17730565632864365,0.46910843386025225,0.5170084523593128,0.4335262094553688,0.7682119205298008,1
0.24201658371281604,0.17721753716474917,0.467562578891155,0.5191308859975372,0.43315282094075847,0.7748344370860849,1
0.23933032619967903,0.17730789626251556,0.4685097914864079,0.5103438536810342,0.43221956818048074,0.7748344370860849,1
0.24265733733114764,0.17721526538581678,0.4684049003183475,0.48835575809645654,0.43165955825064833,0.7748344370860885,1
0.2426144024983593,0.17731018419021943,0.46881948626658204,0.4924407335989764,0.4312863154202028,0.7748344370860885,1
0.24339134869012508,0.1772129858065726,0.4683198288187978,0.5181039274602411,0.43053968407514737,0.7814569536423726,1
0.2430570815010109,0.1773124168180134,0.46886017172429695,0.5145713561342078,0.42997967414531496,0.7814569536423761,1
0.2434096280913115,0.17721086189245583,0.4682959102076108,0.49582304767353,0.4297930527300921,0.7814569536423761,1
0.2428309449474762,0.17731433109393263,0.46887594607053457,0.4888136779672328,0.42885965428564965,0.7814569536423761,1
0.24438045064621788,0.17720932683980523,0.468284682603083,0.5202298308491267,0.42829979003998175,0.7748344370860902,1
0.2412618513486886,0.17731519146862257,0.4688843994918409,0.5140167178019518,0.42811302294059417,0.7748344370860902,1
0.24148283484746114,0.17720968061754339,0.4682780287968403,0.5042022988075897,0.42736639159553874,0.7748344370860885,1
0.2397180209778571,0.17731257576195483,0.46888983271696005,0.4805818040334215,0.4266197602504836,0.7748344370860885,1
0.23831134718676067,0.17721677098493321,0.4682734524663977,0.5114386980543065,0.42624651742003833,0.7748344370860849,1
0.23835970752602104,0.17729574545953966,0.4688937887562015,0.5179200308083008,0.42568650749020603,0.7748344370860849,1
0.24347003193178235,0.17725841742066548,0.4682699619773293,0.5123715335767772,0.4249398761451505,0.7748344370860831,1
0.2395826083195678,0.1771688212159873,0.46889690857141625,0.48707199162560727,0.42475325472992775,0.7748344370860831,1
0.23842691467740923,0.17810799833669602,0.46826717173095966,0.4960872396779855,0.42400662338487244,0.7814569536423832,1
0.23839378463048272,0.18005702731908946,0.46889934635607305,0.5218864689594817,0.4236332348702626,0.7814569536423832,1
0.23851292111805156,0.17690145171807872,0.4682652095955109,0.5141902226662052,0.4228866035252072,0.7814569536423832,1
0.23819430861226476,0.17861326798989466,0.46890051684325723,0.5042559451198865,0.42269998210998483,0.7814569536423832,1
0.2413116104361891,0.17810708717297952,0.4682655790601762,0.48232780620225674,0.4217667293497069,0.7748344370860849,1
0.2397408516636627,0.1770506681475979,0.46889672458548054,0.5034471149506649,0.42120671941987425,0.7748344370860849,1
0.2392951928148157,0.17729395786707214,0.46827840839280027,0.5196106653825192,0.42083333090526376,0.7748344370860831,1
0.2411446902600755,0.17772097000845352,0.46885024822398347,0.5022118753238733,0.420460088074819,0.7748344370860831,1
0.24029477694469548,0.1781224321138206,0.4690598796076646,0.49112970026894115,0.41952683531454094,0.7814569536423797,1
0.24114580221855558,0.1777652313414066,0.4690808265750417,0.513274512602914,0.4187802039694859,0.7814569536423797,1
0.24141198106005318,0.17718679327182657,0.46819597698762677,0.518734207246574,0.41840681545487524,0.7814569536423797,1
0.24020341919416732,0.17729104288411401,0.4705339524776059,0.49738801149069733,0.41803357262443047,0.7814569536423797,1
0.23930200505122573,0.17724856849645707,0.4682533905518237,0.4860980707658151,0.41710017417998757,0.7814569536423761,1
0.2389369297961242,0.17726578802255147,0.4700964786932974,0.5167448352505639,0.4165403099343199,0.7814569536423761,1
0.24093792595646302,0.17726988789939566,0.4690959219954191,0.5207218512078183,0.4159803000044872,0.7814569536423797,1
0.23821964033132614,0.17723680919933696,0.4686471833159135,0.5100430166331388,0.4156069114898773,0.7814569536423797,1
0.23783216922294992,0.17732032747984203,0.468403035709597,0.48986873458978375,0.4148602801448216,0.7814569536423779,1
0.24105673621702262,0.17712272289145542,0.4688317826144984,0.4841647327095358,0.41448703731437675,0.7814569536423779,1
0.2401195543598108,0.1780541354432003,0.46824644365333035,0.5233468202639802,0.41392702738454384,0.7814569536423797,1
0.237375392865869,0.17744971507747154,0.46920257126476567,0.5153972012797425,0.41336701745471116,0.7814569536423797,1
0.23699523429914848,0.17785068785057861,0.4689685257176525,0.5111854729158222,0.4128070075248787,0.781456953642385,1
0.23808176389026786,0.17768101152582552,0.4700134528193106,0.48360387703971375,0.41243376469443344,0.781456953642385,1
0.23933135956324186,0.17701187055711842,0.4693042549280048,0.49587521438049953,0.4118737547646004,0.7814569536423868,1
0.2377921586322025,0.17745904587947808,0.4710163558950291,0.5186391343504514,0.41150051193415565,0.7814569536423868,1
0.24024890555414596,0.17709579626334854,0.47107118039258766,0.5151056673918792,0.41075388058910034,0.7880794701986673,1
0.23785648840772788,0.17740296767308877,0.4703552461760016,0.49115921045898436,0.4103804920744902,0.7880794701986673,1
0.23823375602490154,0.1771530245210537,0.4726914137660541,0.492238066756141,0.4098206278288225,0.7880794701986709,1
0.23642813496133175,0.1773098796920258,0.4734043119698038,0.5226489582475901,0.40907385079960223,0.7880794701986709,1
0.23904176730919008,0.17746571877187964,0.471547487012093,0.517152560990927,0.40851398655393445,0.7880794701986655,1
0.23923675440926528,0.17815657021856032,0.4745113703951838,0.5058792973738079,0.407953976624102,0.7880794701986655,1
0.23946376989074103,0.17685943699444945,0.4708154731097641,0.48265113834247686,0.40739396669426914,0.7880794701986673,1
0.23741768082892784,0.17759516170039671,0.47185044164360196,0.4980252434073932,0.40702072386382376,0.7880794701986673,1
0.2373305166948162,0.17694709125203953,0.47105975929938293,0.5250088426005991,0.40664733534921377,0.7880794701986726,1
0.23554811134589193,0.17758595051739098,0.4698607768293857,0.5125586769337663,0.40608732541938125,0.7880794701986726,1
0.2358115005739133,0.1768791698767773,0.4681789529059361,0.5069771834230757,0.4055274611737134,0.7880794701986744,1
0.2356101468766959,0.17855411961535134,0.4689962974424628,0.4816509860658029,0.40515407265910336,0.7880794701986744,1
0.23566813255219948,0.17862317394740648,0.46816371890477965,0.4993276090200286,0.40496745124388067,0.7814569536423832,1
0.23627417420978825,0.17906426220615315,0.4690058352163276,0.5198571386652592,0.4040341984836027,0.7814569536423832,1
0.23643552324637757,0.17941003415186021,0.4681543580979156,0.5153472982703574,0.40347418855377015,0.7814569536423832,1
0.23796113221257997,0.1781580221161731,0.4690193458844634,0.5035168188442939,0.402727557208715,0.7814569536423832,1
0.2376611299691777,0.17663496955350974,0.46813130542252657,0.48057188312019833,0.40179430444843695,0.7880794701986709,1
0.23824374595172088,0.17834260061107943,0.4690635314496775,0.5053778365889704,0.40160753734904975,0.7880794701986709,1
0.23683902748690855,0.17726160814903397,0.4680258464583485,0.5193460976068742,0.40142091593382695,0.7880794701986726,1
0.2382282552135051,0.1776428455850718,0.4696335448700251,0.5008334479261493,0.4004876631735489,0.7880794701986726,1
0.2367818720385751,0.17792753944926948,0.4686254443184233,0.4873847838283946,0.40011427465893856,0.7814569536423779,1
0.2379841195706231,0.17823577817547542,0.46878994668655233,0.5129578360821538,0.3995542647291063,0.7814569536423779,1
0.2382394400475113,0.17693838919684704,0.468317275176399,0.5191643820468949,0.3989944004834382,0.7814569536423761,1
0.23884627814010229,0.1776143380429136,0.4688732787042858,0.5068100881419335,0.39862101196882843,0.7814569536423761,1
0.23685398252797474,0.176822275111546,0.4682785313000802,0.48244576029092323,0.39824776913838306,0.7880794701986655,1
0.2372410075510924,0.17820736452186628,0.46889504974184015,0.5006283269283248,0.39731437069394043,0.7880794701986655,1
0.2380951371081652,0.17741028941528858,0.4682651259611607,0.526172259779691,0.3969411278634953,0.7880794701986655,1
0.2372033263113485,0.1773475157768444,0.4689036618949458,0.5139313800654235,0.3965677393488853,0.7880794701986655,1
0.2393624926624746,0.1772424491861614,0.46825956836909466,0.5018223516063199,0.39563448658860695,0.7880794701986655,1
0.23536917723716033,0.17838255608890605,0.4689070963684948,0.4770487510554751,0.3950744766587745,0.7880794701986655,1
0.23774917335817447,0.17672413396236203,0.4682577312311481,0.5176569473585725,0.3950744766587745,0.7880794701986709,1
0.23581302962613254,0.17777662074981426,0.4689076350997281,0.5169575632600123,0.3943278453137194,0.7880794701986709,1
0.23947188981633777,0.17672183315794132,0.4682583320283618,0.5161100219427526,0.3943278453137194,0.7913907284768129,1
0.23998794556226383,0.17785744271154863,0.46890595818515846,0.4859806709192099,0.39339459255344167,0.7913907284768129,1
0.2384453327802301,0.17655650536134243,0.46826109248999787,0.4887634051476516,0.39283458262360876,0.7913907284768129,1
0.23619935286658683,0.17850498938654366,0.4689020547573328,0.5158602952632081,0.3924613397931635,0.7913907284768129,1
0.23770772850819827,0.17706530836668607,0.4682662171899087,0.5210130549829152,0.39208795127855306,0.7880794701986709,1
0.23724532383286945,0.1777713610767069,0.46889571609839625,0.48959911775718373,0.3911546985182758,0.7880794701986709,1
0.2364597389675171,0.1766168767186654,0.46827327765349475,0.4965365554635854,0.39096807710305287,0.7880794701986726,1
0.23777690373279986,0.17803709699016024,0.4688907230131467,0.5212050387094637,0.39059468858844304,0.7880794701986726,1
0.23640209665975304,0.17630964571491547,0.4682595915271761,0.5167637524782498,0.3896614358281648,0.7913907284768182,1
0.238922718656925,0.1787074940042941,0.46913805370330813,0.4994949354676015,0.38910142589833224,0.7913907284768182,1
0.23761621353606427,0.17677079195306591,0.47002448799828145,0.4832627523155989,0.3887281830678869,0.79139072847682,1
0.23900215424748317,0.17833898034346776,0.4696289641828411,0.5084517039691382,0.38854141596849995,0.79139072847682,1
0.23759340209804947,0.17578506121212506,0.468135031989284,0.524672695482974,0.387794784623444,0.7880794701986673,1
0.23990111877197906,0.1793824727853502,0.4689046027185444,0.511266201844945,0.38779478462344463,0.7880794701986673,1
0.23583292789639387,0.17528547207118486,0.4680888090042904,0.5025128556083862,0.387048298962554,0.7880794701986709,1
0.22981788329173924,0.1848353862890106,0.46890327501363827,0.47663622403841405,0.38630166761749896,0.7880794701986709,1
0.213293392449876,0.16052673155932823,0.5122613628636804,0.5119669191413393,0.387048298962554,0.7880794701986655,1
0.28325738854120647,0.1519305392977221,0.5751400294406462,0.5143400884278316,0.3877947846234445,0.7880794701986655,1
0.2899928272985552,0.2298227497714955,0.6273030929566354,0.5136492975926693,0.3879815517228321,0.7880794701986673,1
0.23157696705541958,0.35280664624523134,0.695845407399881,0.4718065627528757,0.3855548905882788,0.7880794701986673,1
0.24533139128027998,0.4100508644205557,0.7386353447966488,0.4804562346138639,0.3844350164127781,0.7913907284768218,1
0.23512192763835427,0.40279107482025345,0.7246721309065199,0.5570834158563133,0.3829417537226679,0.7913907284768253,1
0.24651977750812332,0.4015511751887876,0.7264952575949859,0.5237823633265264,0.38480825924322315,0.7913907284768218,1
0.264050354589784,0.39405535781383727,0.7502136574669648,0.5016015094203672,0.3846216378280009,0.7913907284768218,1
0.25917343542032517,0.3935442023513629,0.739987082227854,0.47358938999581424,0.385741657687666,0.7880794701986709,1
0.2513536269074073,0.3902684685452126,0.7357979183724477,0.5286436466341241,0.38536826917305605,0.7880794701986709,1
0.2534302544704863,0.4087763762386417,0.7370803566497444,0.5180954723161593,0.39040806717322024,0.7880794701986709,1
0.25942735455705446,0.37226214665747925,0.7416152908997866,0.4856758448034831,0.39246133979316367,0.7880794701986709,1
0.25730011860543656,0.3833670078751171,0.7374110591983354,0.45952115517632924,0.3861149005181112,0.7913907284768129,1
0.26158793210763176,0.38247260883622247,0.7419226033712126,0.5574068016961164,0.3835017636525004,0.7913907284768129,1
0.2593362663460639,0.3884331884730436,0.7396849297398899,0.42777744022309294,0.3821951223776124,0.7913907284768129,1
0.25797581972071193,0.38500141970633206,0.7420674785290831,0.464850620172797,0.3808884811027245,0.7913907284768129,1
0.26041533230811187,0.3881837604827859,0.7419083158129023,0.5499472314765056,0.3815711570993932,0.7880794701986744,1
0.25840124390019364,0.382739133154224,0.7445884233859672,0.546747768858789,0.3806377586549507,0.7880794701986744,1
0.26226344930355855,0.38136719405678077,0.7410081015520208,0.5139350680112031,0.37989112730989544,0.788079470198678,1
0.2620255797564522,0.37850977708318395,0.745649138989149,0.5370411005077524,0.37821124320456234,0.788079470198678,1
0.2602180841752369,0.37912393332774674,0.7421203787286368,0.5052675406344157,0.37671798051445177,0.7880794701986744,1
0.26026776245152594,0.3782665461019434,0.7425688448566088,0.5122837073372359,0.37541133923956366,0.7880794701986744,1
0.2603605348040226,0.37923564351973665,0.7424968650182557,0.4953782173889857,0.37466470789450856,0.7880794701986797,1
0.25984712223368733,0.3752153440149091,0.7430717999871597,0.4804873920721866,0.3737314551342307,0.7880794701986797,1
0.2597353544782361,0.378455641403631,0.7400921757670694,0.5084843595697938,0.37279820237395267,0.7814569536423832,1
0.260186788464886,0.3778433281314413,0.7423937250006326,0.5218042755822422,0.3722381924441204,0.7814569536423832,1
0.259172728466228,0.38296813603653773,0.7434586896744357,0.5082429991701003,0.37167818251428747,0.7814569536423797,1
0.26013012828535764,0.3753226163227785,0.7415615319101247,0.4983031540813903,0.3711181725844546,0.7814569536423797,1
0.26064545386299764,0.37812719945048556,0.74198679427727,0.4811614155126534,0.37055830833878683,0.7814569536423832,1
0.2605264632818874,0.3775166076682821,0.7415054917581307,0.51180107210611,0.3698116769937317,0.7814569536423832,1
0.261675871294246,0.3730214931213977,0.7428284505534752,0.505728914347182,0.369251667063899,0.7814569536423832,1
0.2603078307599278,0.3722409307410456,0.7430705645492794,0.5142516302632063,0.3683184143036211,0.7814569536423832,1
0.2615415175725297,0.37311291932823576,0.7428481347135975,0.48623971642250724,0.3673850158591784,0.7880794701986744,1
0.25937512942178526,0.37214894969091733,0.742860460626354,0.5071746051836795,0.366638384514123,0.7880794701986744,1
0.2609172988253166,0.3733155038981383,0.7410582786138944,0.5098988475360793,0.3657051317538451,0.7880794701986797,1
0.259363261766416,0.3730321225590452,0.7418337586077258,0.5097029564048986,0.36533188892339985,0.7880794701986797,1
0.259946525198825,0.37299194282519776,0.7420824866599582,0.4850685887906443,0.3647718789935673,0.7682119205297955,1
0.2602506128184541,0.37355442828624313,0.7420379032154443,0.4975432230814166,0.3638384805491245,0.7682119205297955,1
0.2608344844094088,0.3735006834901014,0.7414158656948386,0.5194675749781336,0.3632786163034568,0.7682119205297955,1
0.2620018019543541,0.3722294975661862,0.7423413458720483,0.5106588010552867,0.36309184920406934,0.7682119205297955,1
0.26044153762476596,0.3730331662624147,0.7437363896395361,0.5072609655535192,0.36197197502856876,0.7814569536423832,1
0.26012090039671226,0.37229515976862965,0.7422522464071397,0.4896109414661795,0.3614119650987362,0.7814569536423832,1
0.2602894434703932,0.3730063311624503,0.741216085884666,0.4831438611554767,0.3606653337536809,0.7814569536423868,1
0.25916436740262766,0.37231178230673784,0.7454047393337926,0.5186482316563324,0.35973208099340315,0.7814569536423868,1
0.26021947559759706,0.3729932118010116,0.7420016859980859,0.5174375508885503,0.3591720710635704,0.7748344370860973,1
0.2603134282182733,0.3731961316960485,0.7408960810168479,0.5119470347249283,0.35879882823312514,0.7748344370860973,1
0.2596515212932254,0.3729808951317237,0.7391801309121591,0.49749629405576595,0.3582388183032924,0.7748344370860973,1
0.25960590464753436,0.372337534360975,0.7408928251939699,0.4813725635117664,0.3574921869582372,0.7748344370860973,1
0.2596208949493192,0.3729644339213295,0.7389498298004085,0.5130569920868655,0.35693217702840435,0.7748344370860814,1
0.26007163996753635,0.3723589640356092,0.7419959821613233,0.5222621348274439,0.3563721670985719,0.7748344370860814,1
0.26051638135172217,0.37293388414335216,0.7400381587648641,0.5124748215001453,0.35599892426812646,0.7748344370860849,1
0.2591189936676121,0.37240808012319887,0.7418785246374877,0.49985203274019396,0.35543891433829383,0.7748344370860849,1
0.26049759332277117,0.3728372106205107,0.7411278386639014,0.47846177185642697,0.35469228299323835,0.7748344370860902,1
0.26010649315467205,0.37273534558160115,0.7415292939353705,0.514780933126404,0.35450566157801616,0.7748344370860902,1
0.26057536395172076,0.3736550491735,0.741523081945507,0.5187666888916624,0.35357240881773827,0.7748344370860956,1
0.2596401696465822,0.3721829869887328,0.7407120901868951,0.5113710914839737,0.35319902030312833,0.7748344370860956,1
0.2596872322485362,0.3729772392542583,0.743025500428387,0.4816377810189755,0.35282577747268296,0.7748344370860956,1
0.2605224130261538,0.3727357428291438,0.7420807148724805,0.4977316848917947,0.35207900044346296,0.7748344370860956,1
0.2604749686222616,0.373665672573898,0.7406959144899921,0.5260560335581238,0.35151913619779496,0.774834437086092,1
0.26001437678200967,0.37203792293666244,0.7427830156953592,0.5162583037060584,0.351145747683185,0.774834437086092,1
0.2594560794755628,0.3731496280778003,0.7397189704580958,0.49897840684304345,0.3503991163381296,0.774834437086092,1
0.25971809777482036,0.3729584746080538,0.741729776656965,0.47876787389814446,0.350212494922907,0.774834437086092,1
0.2600423670523055,0.37327081669276935,0.7411161701800794,0.5186656920538789,0.3494658635778516,0.7748344370860956,1
0.26166904309458816,0.37286094388819185,0.7413218848585343,0.5209646439396352,0.34890585364801907,0.7748344370860956,1
0.258850198371696,0.3734069616712808,0.7402548092521917,0.514452859511804,0.3481592223029635,0.774834437086092,1
0.26038043946270994,0.3719696154624354,0.7413531663995226,0.49198819899352625,0.3477859794725186,0.774834437086092,1
0.25882360660959186,0.3733277309849791,0.7392418928120059,0.48126936036162427,0.3472259695426856,0.7748344370860956,1
0.26126387899826703,0.37198324169765623,0.7407452942169802,0.5188338167390311,0.3466659596128531,0.7748344370860956,1
0.2619396834070989,0.3733331316004731,0.7392169362656249,0.5198574388197345,0.3461059496830202,0.7682119205297937,1
0.2606364983146794,0.37197383491648056,0.7429088104010808,0.5111043659951391,0.34591932826779787,0.7682119205297937,1
0.25862942184407595,0.3733258884222821,0.74185203304557,0.4899739395910054,0.3453593183379652,0.7682119205297937,1
0.261398875433846,0.3720990140792373,0.7431425457125581,0.48745455529182913,0.34479945409229745,0.7682119205297937,1
0.2592558468745581,0.374301868539848,0.7412349809707184,0.522566372931456,0.3442394441624646,0.7682119205297955,1
0.26258890322321055,0.37158702633387636,0.7434274187351038,0.5137424207321275,0.3436794342326323,0.7682119205297955,1
0.258108480294117,0.37371382116145807,0.7411971600586147,0.5071964846008802,0.342932802887577,0.7682119205297955,1
0.26242206023044135,0.37155374067513947,0.7414206627177923,0.4778941977143245,0.34255956005713184,0.7682119205297955,1
0.2587656508678171,0.37382658693235526,0.7410984012979578,0.506355556677228,0.3419995501272989,0.7682119205297901,1
0.262081455959694,0.3713939604439211,0.7411526075121193,0.520575487094078,0.3414395401974662,0.7682119205297901,1
0.25587158699245194,0.37402974708089,0.739210133043436,0.5127393239786017,0.3408795302676337,0.7682119205297901,1
0.26276432974841046,0.371144558082521,0.7408393881308883,0.4956965151396796,0.3405062874371886,0.7682119205297901,1
0.25518677399301287,0.3743275147194644,0.7401132490045741,0.4836232509646019,0.33994627750735573,0.7682119205298008,1
0.2655663931838108,0.37081100696961866,0.7407328967417937,0.514281873415357,0.339386267577523,0.7682119205298008,1
0.25153784188332656,0.3746149665544588,0.7391716414544416,0.5219735317034957,0.33845301481724505,0.7682119205298008,1
0.26582310151904576,0.3716359172875423,0.7375013948585254,0.5099326118755576,0.33807962630263516,0.7682119205298008,1
0.15460340555295615,0.33065075769123126,0.6745013379063199,0.4913722523087616,0.3375197620569672,0.7748344370860849,1
0.23556529757419942,0.24600837834820014,0.6057386572537888,0.4825946358592664,0.33845301481724505,0.7748344370860849,1
0.31911442724873496,0.3357302472398961,0.6738805941518091,0.5294112195781755,0.33919964616230064,0.7748344370860885,1
0.2644384661138283,0.41658736488750714,0.8258957056781233,0.5204053343896701,0.351519136197795,0.7748344370860885,1
0.33058831327224697,0.31657286478682867,0.8043523107997372,0.5241770877284889,0.36159858651395876,0.7682119205297955,1
0.25243297227160094,0.33267116178869194,0.7208113470239783,0.44853355511934456,0.36402524764851213,0.7682119205297955,1
0.2590687001643761,0.3149219592398774,0.7190875127903726,0.5053052645235616,0.3634652377186793,0.7682119205297955,1
0.2215760341997544,0.34346582198621517,0.7072267674752601,0.5458294100549942,0.3629052277888466,0.7682119205297955,1
0.205353620921718,0.33417053604018243,0.6405190457028815,0.4974591100703452,0.3621585964437914,0.7615894039735096,1
0.21939482836014818,0.29948713769175683,0.5357027144644055,0.4980038954496395,0.35431904016279353,0.7615894039735096,1
0.16975519718793575,0.29664080541635623,0.5497669051159381,0.4993630190347345,0.3481592223029635,0.7615894039735078,1
0.17677955546428936,0.340772323806779,0.5794793556457396,0.5017080802339384,0.34013289892257825,0.7615894039735078,1
0.1749817705953941,0.37160415084870724,0.6117491970317265,0.5006347794006577,0.34479945409229734,0.7615894039735025,1
0.19426815907271333,0.3757333189194372,0.6282987259413535,0.47788193043209704,0.34386605564785483,0.7615894039735025,1
0.1835056026359812,0.37567607427277694,0.6048361423219497,0.5047741003359977,0.34349281281740934,0.7615894039735025,1
0.1798566225628061,0.37487320467660656,0.5968388252210085,0.5835121177522167,0.34050628743718825,0.7615894039735025,1
0.18379389432888416,0.37578692304471867,0.6010219012266388,0.46371225558646173,0.3393862675775226,0.7615894039735078,1
0.18443916916940645,0.37418657736856625,0.6054546888401756,0.4541145431450109,0.33919964616230064,0.7615894039735078,1
0.1883024530851019,0.3742005551965564,0.6107499516121572,0.47590392210227234,0.33901302474707784,0.7615894039735078,1
0.1862870868222981,0.3772302789022976,0.6204452310315968,0.563483490628973,0.3377063834721898,0.7615894039735078,1
0.19572170313499904,0.37899900763886907,0.6274565257142777,0.5338652904027171,0.33695975212713464,0.7615894039735078,1
0.19281993412682275,0.3802462364368062,0.6311147715519401,0.515478447417241,0.3365863636125244,0.7615894039735078,1
0.1966460333215651,0.37903272318962844,0.6317313993422686,0.4756073752124099,0.3360264993668565,0.761589403973506,1
0.19308639290912843,0.38023399552049,0.6331917485646045,0.5233772455939618,0.33565311085224675,0.7615894039735078,1
0.19606583002344424,0.3790181923958433,0.6312760221582815,0.5092859619261957,0.3352798680218012,0.7682119205297955,1
0.19458534957934215,0.38031009054860915,0.6312496157394887,0.49921697128802434,0.3350931009224142,0.7682119205297955,1
0.19703175488011093,0.37862781830988507,0.6327551098763832,0.4662721565848803,0.33453323667674595,0.7682119205297955,1
0.19447912461448325,0.3782346592972762,0.6316844276606592,0.4985233050092247,0.3341598481621362,0.7682119205297955,1
0.19702954725367533,0.37882296894014983,0.6324837648774249,0.5366221314793701,0.33378660533169086,0.7615894039735025,1
0.1938188134722421,0.3800863976068443,0.6322277484190757,0.5180673546454784,0.33341321681708075,0.7615894039735025,1
0.19518807880688804,0.3792095040972167,0.629592698199122,0.50955450179226,0.3332265954018582,0.7615894039735078,1
0.19235993902698545,0.3800501982759313,0.6314494247047274,0.48227928541685866,0.3330399739866357,0.7615894039735078,1
0.19594281291676113,0.3792221054265111,0.6277525055375524,0.47864538816587965,0.33247996405680263,0.761589403973506,1
0.1934219900375978,0.3800421272055329,0.6311518960808097,0.5310590797066473,0.3319199541269703,0.761589403973506,1
0.1959742236982196,0.37922861297139243,0.6297383212355281,0.5199634131132508,0.33154656561235996,0.7615894039735078,1
0.19428489584863134,0.3800367526500114,0.630757918636281,0.5119540484067245,0.331173322781915,0.7615894039735078,1
0.19724589297212602,0.37923264201337015,0.6332810271443536,0.4916011843213245,0.3309867013666923,0.7615894039735096,1
0.1936070767231558,0.38003463119955305,0.6322279106351216,0.47604063283199094,0.3306133128520823,0.7615894039735096,1
0.19665307175679186,0.37923178082095,0.6315986792082132,0.521479468863053,0.33005344860641445,0.7615894039735132,1
0.1948253255753648,0.38004076933546255,0.6332253425161121,0.521492473144274,0.32968006009180456,0.7615894039735132,1
0.19608783167364263,0.37921423107873925,0.6294440105115963,0.5079561253663882,0.3293068172613591,0.761589403973506,1
0.19306085607270562,0.38009496882385374,0.6352223607755833,0.478688223736394,0.32930681726135935,0.761589403973506,1
0.19730987138188577,0.3784199894902237,0.6366466507557813,0.4907185670184074,0.3287468073315267,0.7615894039735078,1
0.19433465038184783,0.3798737292351616,0.6368220807819189,0.5316021928084845,0.3285600402321393,0.7615894039735078,1
0.19713498329560503,0.37933162018096805,0.6347842405286834,0.5141770083427406,0.32874680733152634,0.7615894039734954,1
0.19441966830793556,0.37995371928045363,0.637257796241677,0.5073286758816786,0.32781340888708393,0.7615894039734954,1
0.1970805920111105,0.3793064373758524,0.6360818508141022,0.477866531602531,0.32744016605663867,0.7615894039734954,1
0.19445950840641968,0.37996522556830903,0.6369671632441486,0.5160540717315744,0.3270667775420285,0.7615894039734954,1
0.19704937188678556,0.37930035968025416,0.6349028313874671,0.5119189563516949,0.32650691329636083,0.7483443708609254,1
0.194483911586384,0.37996869756313084,0.64029686485653,0.5055945395684411,0.3263201461969735,0.7483443708609254,1
0.19703431080417344,0.37929825720485955,0.6401322719827767,0.48802529319904786,0.32576028195130535,0.7483443708609254,1
0.19446907835765875,0.37997005728822036,0.6421869493756058,0.47787578035554046,0.3257602819513056,0.7483443708609272,1
0.19785392804370067,0.3792972899378192,0.6415617729428738,0.5264990196984755,0.3250136506062501,0.7549668874172148,1
0.19565959980798875,0.37997084171732876,0.6402717557825646,0.52681356521372,0.3248270291910275,0.7549668874172148,1
0.1970325699396298,0.37929655671164936,0.6400360620301917,0.5051669072564074,0.3246402620916401,0.7549668874172148,1
0.1945614273271643,0.37997160899821564,0.6401541090763627,0.47478975657480466,0.32389363074658484,0.7549668874172148,1
0.19692392263421055,0.3792956995742296,0.6408633753285675,0.5100206022813825,0.32370700933136204,0.7549668874172113,1
0.19464133488824847,0.3799725916372043,0.6419149584300161,0.5289617570148001,0.3235203879161399,0.7549668874172113,1
0.196810343228996,0.3792945710346348,0.6406101165523146,0.5116380867173538,0.32277375657108437,0.7549668874172131,1
0.19492013992416402,0.37997387321560566,0.6430608169580362,0.48297370759058883,0.32258698947169673,0.7549668874172131,1
0.1987251252568888,0.3792931429896877,0.6405706706792385,0.4849172644491137,0.3224003680564741,0.7549668874172113,1
0.19480837566756715,0.3799754243286528,0.6427613703129613,0.5343424091420457,0.3218403581266417,0.7549668874172113,1
0.19788260574302097,0.37929151586417414,0.6407849299958778,0.5157442755946575,0.32146711529619626,0.7549668874172113,1
0.19424422135519526,0.37997704384849323,0.6425732331113259,0.5066440868459318,0.3210937267815863,0.7549668874172113,1
0.19816678019791867,0.3792900480091968,0.6394729220498944,0.4674280431723166,0.32090710536636385,0.7483443708609165,1
0.1944041477355058,0.3799781102979204,0.6404099728846951,0.5183198128087251,0.3205337168517538,0.7483443708609165,1
0.19708933978185444,0.3792898283426197,0.6390879611814118,0.5252316215056169,0.3199738526060859,0.7483443708609165,1
0.1944518341498423,0.3799766504104696,0.6425585087038992,0.5141983068954207,0.3196004640914759,0.7483443708609165,1
0.1980592052654659,0.3792946377380785,0.6421717083149724,0.48486117227027575,0.31922722126103015,0.7549668874172077,1
0.19445975578298924,0.3799647769076291,0.6429688060400236,0.48623531496115086,0.3188538327464206,0.7549668874172077,1
0.19710127592378623,0.3793233124432162,0.6426126179023697,0.5249486831700981,0.31848058991597533,0.7549668874172131,1
0.19591404008754754,0.37988479608985265,0.6444505669795959,0.5199316907395564,0.3181072014013653,0.7549668874172131,1
0.1998208481811693,0.3797344249087078,0.6440155772340697,0.4950576001671123,0.31754733715569744,0.7483443708609183,1
0.19936387247249843,0.38066957081744823,0.6506903493446459,0.4782618468130321,0.3173605700563101,0.7483443708609183,1
0.20020209084270202,0.3789311031072226,0.6479409556297886,0.5232078493069461,0.31680056012647734,0.7483443708609201,1
0.19879214290032765,0.38032308657310715,0.6512546976238595,0.5210629437781976,0.3164273172960323,0.7483443708609201,1
0.20003916360454466,0.37885481107433777,0.647691666719798,0.5055190850036453,0.3162406958808091,0.7483443708609183,1
0.20118022650200268,0.3809577233689241,0.6549976079524358,0.4736105173956068,0.3156806859509769,0.7483443708609183,1
0.2048451070010433,0.38041688177269106,0.655033778677177,0.5034886720136602,0.31549406453575407,0.7483443708609201,1
0.20980632426722,0.3838641429624857,0.6731047410284969,0.5297998031608444,0.3149340546059214,0.7483443708609201,1
0.2201880100095287,0.38785335616653377,0.6855413052026835,0.5145394174868606,0.3143740446760888,0.7483443708609183,1
0.20790559015162252,0.381269292283725,0.6702338517186435,0.49564289192281274,0.3140008018456438,0.7483443708609183,1
0.22228728358127808,0.3840160095148665,0.6885851409553864,0.47398906583322864,0.31418742326086624,0.7483443708609201,1
0.22766219601549165,0.38718037677536615,0.7013043780587421,0.5271535463811607,0.3140008018456438,0.7483443708609201,1
0.22942905612043712,0.38621000774653363,0.6987960303992615,0.516762321709837,0.3128807819859779,0.7483443708609201,1
0.22613917691013835,0.3869710730296903,0.7041940178376835,0.5042960055691235,0.3125075391555332,0.7483443708609201,1
0.22924812935868238,0.38626684591010835,0.701659853867412,0.47816699360924114,0.31194752922570035,0.7483443708609201,1
0.2261624685969903,0.3869543983895707,0.7030585858495904,0.5067331860141314,0.31157414071109046,0.7483443708609201,1
0.22924035108556023,0.38626898409406996,0.6994124686923688,0.5103664578895606,0.3110142764654225,0.7483443708609201,1
0.22616489625218417,0.38695846994694005,0.6998837361170003,0.5046197052793875,0.3106408879508124,0.7483443708609201,1
0.22924246328231074,0.38626195803007074,0.6988630644531378,0.4784734322833023,0.31008087802097994,0.7483443708609254,1
0.22615726265329816,0.3869670275075293,0.6995966862949631,0.5213062231503229,0.3097076351905347,0.7483443708609254,1
0.22925852394424678,0.38625253468737575,0.6999679421517565,0.5282006839189077,0.31226220702186036,0.7483443708609254,1
0.22612371188222197,0.3869769948677413,0.6993518820025489,0.5014913537057735,0.3115155756768054,0.7483443708609254,1
0.2293561446769498,0.3862421775884114,0.698449054073524,0.4741041728241219,0.3113289542615824,0.7483443708609254,1
0.22716013610622926,0.38698767350293317,0.7014822933197836,0.5235740860029322,0.3111421871621951,0.7483443708609254,1
0.22910931184402755,0.386231199364919,0.6985290800524853,0.5252306899567235,0.31058232291652693,0.7483443708609236,1
0.2262472763320289,0.3869989552753637,0.700119396357477,0.5102129720661608,0.3100223129866946,0.7483443708609236,1
0.22916959970193712,0.3862195948839884,0.6970008109376506,0.4716497308447065,0.3098356915714718,0.7483443708609254,1
0.226233493174618,0.38701091110585023,0.6996707042798823,0.5074208602288709,0.3092756816416393,0.7483443708609254,1
0.22750566671869277,0.38620725260645195,0.6979514010115493,0.5294001610554676,0.3089022931270291,0.7384105960264833,1
0.22576840325849012,0.38702367986795533,0.6990289006405372,0.5169947034527754,0.30852905029658406,0.7384105960264833,1
0.22941236555518946,0.3861940130174394,0.6974154347466802,0.48764763982110787,0.3079690403667513,0.7384105960264833,1
0.22602918222846063,0.38703743883840724,0.6990595019992476,0.4864260668866638,0.3079690403667512,0.7384105960264833,1
0.2293691676615086,0.38617968163167493,0.6977735978515518,0.5218569400101251,0.30759579753630595,0.7384105960264886,1
0.2260322538348074,0.3870524006844406,0.6998691143434914,0.5172885765101872,0.3070357876064735,0.7384105960264886,1
0.22938198957701028,0.3861640255162896,0.6969677994088286,0.48724130371972546,0.30684916619125074,0.7384105960264886,1
0.22601026270726293,0.38706882160656725,0.699493399946057,0.49213146081258136,0.306475777676641,0.7384105960264886,1
0.22941111183027563,0.3861467613328939,0.697004079620166,0.5286293047849238,0.3061025348461955,0.7483443708609236,1
0.22597375180132806,0.38708701686959784,0.6995163837067635,0.5148222403998748,0.3057291463315855,0.7483443708609236,1
0.22945791748649702,0.3861275360509178,0.6969567905972616,0.4987656036437753,0.3049825149865301,0.7483443708609254,1
0.2259070328947571,0.38710738437262004,0.6995780888539769,0.47411047622795294,0.3049825149865302,0.7483443708609254,1
0.22958497498867536,0.386105898234019,0.6968842827034725,0.5161863925766295,0.30423588364147464,0.731788079470201,1
0.22510002308086863,0.3871304397378806,0.6996600416617575,0.5241151363693602,0.3040492622262525,0.731788079470201,1
0.22809534732778192,0.38608125488500333,0.6967932168480571,0.5121326884746386,0.30348925229641954,0.731788079470201,1
0.22620058574818364,0.387156869827612,0.6997604591652904,0.49566591585890896,0.3033026308811968,0.731788079470201,1
0.2288538973524039,0.38605280444425744,0.6966828229249264,0.475334259790593,0.30255599953614165,0.7384105960264886,1
0.22523038780971927,0.3871876175160871,0.6998817696872339,0.5143929861319835,0.3021826110215318,0.7384105960264886,1
0.2297938276114067,0.3860194282921321,0.6965493544352994,0.5236883303259808,0.3018093681910865,0.7384105960264886,1
