wrist_ACC_1,wrist_ACC_2,wrist_ACC_3,wrist_BVP_1,wrist_EDA_1,wrist_TEMP_1,label
0.7207517412855925,0.44504597275177077,0.6298069976034169,0.4704954926757991,0.012826875198422613,0.043478260869573404,1
0.6157276182807697,0.7302223739523632,0.6690962654805462,0.6811098284161737,0.012826875198423404,0.04347826086959472,1
0.7766856310617859,0.6726247910705442,0.5531608392181235,0.48844252613482003,0.011757899309907241,0.032608695652184494,1
0.7758568004943738,0.6217716588507184,0.36504386064516775,0.5505142229594933,0.012826875198422918,0.032608695652179165,1
0.800434185279307,0.5974561577003255,0.33368125039444224,0.7064334279313584,0.012826875198423127,0.032608695652179165,1
0.7799876059757094,0.5757817136366076,0.2116915124525531,0.5913829711433235,0.012292178388223829,0.032608695652193376,1
0.796439732129042,0.5532183671805008,0.22060271784087054,0.2409139831000931,0.012292178388223648,0.021739130434795584,1
0.7750012271373528,0.5442526805744409,0.34397873807355434,0.5492198036070808,0.01282687519842296,0.02173913043478848,1
0.803587799075417,0.5516626623960063,0.2566695651323675,0.5438745873922552,0.01015464434307524,0.021739130434795584,1
0.7843076051325591,0.5521624443109633,0.2659572788802228,0.25404690597495705,0.01175789930990745,0.021739130434800913,1
0.8036726146768336,0.5574392837822504,0.2708436635731018,0.6705363544272651,0.011223620231590972,0.021739130434779597,1
0.7870215449281581,0.5556968698033724,0.29383290066496714,0.7745862533247153,0.011757899309907185,0.021739130434790255,1
0.8044321968203025,0.5611303481583954,0.2959748525164358,0.48488611595701314,0.01175789930990738,0.021739130434813347,1
0.7874566962802783,0.5598187944812283,0.3121615889824464,0.48953134329475056,0.011757899309907519,0.021739130434795584,1
0.796485449090999,0.5661592617449368,0.3045772531397038,0.48905680068620594,0.011757899309906866,0.032608695652179165,1
0.790575281960844,0.5588633482586548,0.29131753568909885,0.5524914134022634,0.012826875198422821,0.032608695652179165,1
0.7996628460073824,0.5646832820105032,0.2700194811861274,0.5781977522577852,0.01282687519842296,0.03260869565218805,1
0.7858318738451819,0.558560966092891,0.28567498886685905,0.5243378699031834,0.01229217838822387,0.03260869565219515,1
0.8028294373205062,0.5638229538346067,0.28186128001712063,0.5482776714033107,0.011757899309907185,0.021739130434793807,1
0.7874897387337937,0.5582971378910073,0.30015516026002914,0.5434157944035211,0.01122362023159132,0.021739130434793807,1
0.8019156423424105,0.5623434402398821,0.29383193984681444,0.5119804387738045,0.01175789930990745,0.021739130434804466,1
0.7895603709501335,0.5577357621608803,0.3067136008992424,0.4387364831265367,0.011223620231590972,0.021739130434779597,1
0.7985570741260637,0.5658910566224186,0.3010158687190645,0.463659949797558,0.01175789930990738,0.010869565217404897,1
0.790145404147798,0.5601225224520279,0.30796657765971525,0.602300065830354,0.011757899309907241,0.010869565217404897,1
0.7958009893188488,0.5669626385529625,0.30646627007986954,0.5025095978882677,0.011223620231590847,0.010869565217404897,1
0.8020406140262909,0.5503769057748397,0.31291910672775364,0.5330003417605612,0.011223620231590709,0.010869565217397792,1
0.7961181622152437,0.5533237979314175,0.3151603693627446,0.5768872608746746,0.011223620231590806,0.02173913043478315,1
0.8009680620405653,0.5436753775962527,0.33471717022033665,0.5465472931622646,0.012292178388223648,0.02173913043478848,1
0.7949579661234785,0.5623192706485132,0.3280732617657589,0.4884069871455084,0.011757899309907172,0.021739130434795584,1
0.8333170037576421,0.5576224991257585,0.3593658956372442,0.5740243186543265,0.011223620231590847,0.021739130434818676,1
0.7211646540834474,0.6276124593177345,0.5992126366453921,0.5760080630495048,0.011223620231591083,0.010869565217399568,1
0.6633247358249915,0.5871343625699674,0.6229242270569231,0.52565796856311,0.01175789930990763,0.010869565217412003,1
0.8172750093260769,0.541910064385741,0.5146244713548813,0.5469460925409659,0.011223620231590806,0.010869565217404897,1
0.7470584225470284,0.5449836780839576,0.5131704520440158,0.6658103451137772,0.010688923421391688,0.01086956521738891,1
0.8355694458724928,0.538548854915632,0.43452504109166007,0.5658276369131049,0.010154644343075267,0.021739130434795584,1
0.7156041696313306,0.640999407134277,0.22087250050622279,0.36381221663235097,0.0096199475328759,0.021739130434779597,1
0.9127333852717902,0.6040774161271889,0.2389851433114622,0.3726890713508768,0.008550971644359986,0.021739130434795584,1
0.42822897608582067,0.6455978271784505,0.785265087779102,0.5753034137401201,0.010154644343075059,0.021739130434784926,1
0.41789219534194344,0.5537862861059015,0.9409773468676699,0.7152548423692677,0.01175789930990738,0.021739130434784926,1
0.4516360183368515,0.6077685960225362,0.842952892380689,0.5599682181073629,0.013361154276739298,0.02173913043477249,1
0.545345305876339,0.5954862278411903,0.7918665651547637,0.46849694243176787,0.01336115427673916,0.021739130434779597,1
0.8340728710583625,0.5680874595499649,0.5105990670369202,0.5737518690640839,0.009619947532875706,0.02173913043477782,1
0.7583259537421385,0.6040676724563048,0.4357631569923447,0.47573422785477004,0.009085668454559631,0.02173913043478848,1
0.7983806404375862,0.7059890369034276,0.5485460458369936,0.5129111584349755,0.00855097164435989,0.02173913043477782,1
0.42836764854940357,0.6815693789907812,0.792857851195002,0.4806521767108438,0.009619947532875706,0.02173913043478315,1
0.3665580698326707,0.6091691461882919,0.9088091919031513,0.5000065764617944,0.012826875198423154,0.02173913043480802,1
0.5415155902474156,0.6798369617596383,0.7846757369333581,0.4662348245259119,0.0133611542767397,0.021739130434813347,1
0.40860529541695423,0.6264359760691987,0.8772206243484189,0.5912323382134487,0.013895851086938762,0.021739130434779597,1
0.4825590415856851,0.5699453380426744,0.8645143998052354,0.57062327170024,0.012826875198423307,0.02173913043480802,1
0.5765640793486115,0.6089051585965346,0.7890454741920405,0.5524259824575787,0.012826875198423265,0.02173913043480269,1
0.6718414014473975,0.5813185535889188,0.717344541806972,0.5322191341431778,0.010154644343075142,8.881784197001252e-15,1
0.6132807817483733,0.5824490926964125,0.7566185725920787,0.549619267273794,0.00801669256604351,0.0,1
0.509352069374135,0.5718885374081175,0.8309723471434517,0.381691431911522,0.008550971644359917,1.2434497875801753e-14,1
0.5416286355794774,0.5784263672354015,0.8220083989332849,0.41014434591753424,0.011223620231590972,1.7763568394002505e-15,1
0.5067680311999473,0.5663297125567262,0.8373501351980462,0.6528849760184614,0.010688923421391508,0.021739130434800913,1
0.4906260869036604,0.5734923550498124,0.843651195207445,0.592347919499606,0.010688923421391189,0.02173913043478315,1
0.57924912424214,0.579143756145361,0.8019614884662734,0.4571072289281246,0.01068892342139155,0.02173913043476894,1
0.5168463941509205,0.5734151933987164,0.8222299851205254,0.48026397255638203,0.010154644343075142,0.021739130434804466,1
0.5000521621143734,0.5752091573634359,0.8376636073285572,0.5859384638418397,0.011223620231590847,0.02173913043478848,1
0.6205901590882097,0.5802581553904103,0.7467169119049308,0.5843592942986238,0.010154644343075128,0.02173913043478848,1
0.6907254164233448,0.5936777419282977,0.6811508134278971,0.43068537022387254,0.007482413487727144,0.02173913043478848,1
0.660670056245882,0.5946675507454167,0.7116956642925414,0.529503518861115,0.005344461710696247,0.02173913043478848,1
0.6452850642489482,0.592526786941057,0.7221036127077818,0.6402057082121106,0.005344461710696011,0.032608695652198705,1
0.64803897441068,0.5932404048937903,0.7212125779165302,0.4076956085649744,0.005878740789012377,0.03260869565218627,1
0.6684384485832056,0.5964667252022317,0.6937334959323573,0.39161065049945754,0.005344461710696219,0.032608695652198705,1
0.6998788522355628,0.5952837942729479,0.6433776938665288,0.7625890820100176,0.004810182632379673,0.032608695652179165,1
0.8002923364269158,0.6061069486120105,0.41676788306169044,0.5737175289282734,0.006413437599211466,0.021739130434784926,1
0.781198775602648,0.6036491468621098,0.3437795431665564,0.4518873870789786,0.005878740789012349,0.021739130434804466,1
0.7983491252928201,0.6072148523230604,0.36336325415185255,0.6093885363583761,0.00534446171069608,0.021739130434793807,1
0.7756113177589429,0.600099996796654,0.3856971658728306,0.5913537907158594,0.005878740789012668,0.021739130434793807,1
0.8067867318222737,0.6023368408154974,0.37663971723178574,0.5086065231913246,0.006413437599211647,0.02173913043478848,1
0.7660238779591388,0.5937120757719329,0.3997208547864658,0.5170786478950393,0.006947716677528096,0.021739130434779597,1
0.8444309394202337,0.6096340122305288,0.3762609676824528,0.5361115576462139,0.0069477166775282345,0.02173913043480802,1
0.5524076095763255,0.5778238597268295,0.7340819736637667,0.5047049693803053,0.006413437599211383,0.02173913043480269,1
0.48627160523121593,0.5768466016903788,0.8334050932105186,0.48161760309496654,0.008550971644360056,0.021739130434784926,1
0.7554785777486801,0.596843193564181,0.6076306944095676,0.5762592579266279,0.008550971644360236,0.021739130434784926,1
0.7212595253871941,0.5948758334690633,0.6032286347832849,0.5846478244895627,0.008016692566043648,0.02173913043480802,1
0.7478239182839755,0.5968497226619038,0.590393962269812,0.5783099934880845,0.007482413487727185,0.021739130434784926,1
0.734750925528658,0.5969079815024388,0.5843997409251673,0.587845552523776,0.0074824134877273935,0.02173913043480802,1
0.7365117766989023,0.5939502267575648,0.5941151378910912,0.4546043399279844,0.00855097164436,0.02173913043478315,1
0.7945157006486071,0.5835929070537598,0.5106910501230275,0.43701544019431443,0.008550971644359931,0.02173913043480269,1
0.7604719575311804,0.609220580219303,0.3087135646259323,0.4898285228717307,0.006947716677527707,0.021739130434790255,1
0.7477579748005475,0.6855448371077764,0.2656175474423308,0.5213472088395169,0.01015464434307517,0.021739130434784926,1
0.7686994091307442,0.6065617955562529,0.2581024732096739,0.5845980870091078,0.011223620231590847,0.02173913043478848,1
0.9159214362441798,0.6397426467703211,0.3008402973191691,0.3975602323110553,0.011223620231590847,0.021739130434790255,1
0.5314784517530645,0.5945759788758075,0.7444840447091314,0.4387116880448994,0.013895851086938693,0.021739130434800913,1
0.49036034975777876,0.5926751245397853,0.8629326949701004,0.7282687132182953,0.014964409243571508,0.010869565217404897,1
0.4380638434333265,0.6083438331877854,0.8236136199193707,0.7035125674097881,0.01656808194228647,0.010869565217399568,1
0.48702426864929516,0.528743386676041,0.8635922094202411,0.4618245206082412,0.017102361020602877,0.010869565217392463,1
0.7047587083539896,0.5996548388222406,0.6895690209652714,0.7550259097343266,0.01496440924357155,0.01086956521739424,1
0.7224085102196338,0.581836765023503,0.6099038325403876,0.5488699749795757,0.013361154276739007,0.02173913043477782,1
0.7367079568074476,0.6006528164507005,0.6015661008939246,0.2706373628855411,0.012826875198422752,0.02173913043477782,1
0.7116517031569017,0.59814715391707,0.6330668288040646,0.475542023609094,0.013895851086938901,0.021739130434800913,1
0.7213270034344408,0.6034195400072516,0.6195061468388807,0.42517972289007916,0.013895851086938443,0.021739130434784926,1
0.7041969657733708,0.5894145673831466,0.6447919034397936,0.6327483989852248,0.013361154276739187,0.032608695652179165,1
0.7086848718405324,0.5981449291273324,0.6458986761063791,0.505618961540365,0.013361154276739395,0.03260869565218627,1
0.6877954079930293,0.5887397576572933,0.6635696656981181,0.44193952039993517,0.011757899309907116,0.032608695652193376,1
0.7227987245131041,0.5964620366237192,0.621448064111731,0.4504946820483897,0.011757899309907519,0.032608695652173836,1
0.7446776225717442,0.5875960172973261,0.5823234752881983,0.5600226192361979,0.011757899309907074,0.03260869565218094,1
0.7445313111144676,0.5934963025625268,0.5819517341041955,0.5135570357112561,0.011757899309907074,0.03260869565218805,1
0.7403655948379876,0.5838228450569891,0.581207286321792,0.4610008259414915,0.009085668454559284,0.032608695652184494,1
0.7457579870349955,0.5872255189379805,0.5809006112920136,0.5316454956752563,0.012292178388224065,0.03260869565218805,1
0.7398668216873956,0.583179438920554,0.5811678221549554,0.7244032015205373,0.013361154276739534,0.010869565217410226,1
0.7480357038377632,0.591124340604581,0.5796369176285628,0.456750102593525,0.013361154276739187,0.010869565217392463,1
0.7454549826477975,0.5899307910690167,0.576458835142853,0.5163119616615034,0.013895851086938651,0.01086956521739424,1
0.7551851428185211,0.5950524424050105,0.5672220514994111,0.6456916773196336,0.014430130165255031,0.01086956521739424,1
0.7336951564549152,0.5868975721409508,0.590234467100365,0.5979022658675429,0.012292178388223204,0.03260869565218094,1
0.739620082553089,0.5893785764891468,0.601004255503236,0.5016840107161801,0.013895851086938443,0.03260869565218094,1
0.7240529269613311,0.5855186284747536,0.6176001567918031,0.4581901637185077,0.01496440924357137,0.032608695652198705,1
0.7248903917022899,0.5893756693146585,0.6216340296633878,0.5519336702941267,0.014430130165254795,0.03260869565217561,1
0.7177015568219073,0.5876129397275427,0.6244764485342762,0.572556297389756,0.014964409243571675,0.032608695652193376,1
0.7284165083799895,0.5874873296649888,0.6094769531134876,0.6183101876799877,0.014964409243571647,0.032608695652193376,1
0.7298362685798259,0.5855479015674632,0.6061021725326707,0.509781623580859,0.014964409243571744,0.03260869565218627,1
0.7309309590128678,0.5879238442172089,0.6079192094023261,0.41417411113670777,0.01496440924357148,0.032608695652179165,1
0.7183757535565464,0.5865481211975031,0.6219333038577883,0.4998539849588378,0.01496440924357148,0.03260869565220048,1
0.727644942708909,0.5913234806126135,0.6182135190814849,0.5802053470135848,0.016568081942286303,0.03260869565217561,1
0.6915184315490062,0.5936218023695103,0.6561062455662627,0.4869736167670076,0.016033385132086866,0.032608695652173836,1
0.7188189774299214,0.6011045259867392,0.6413862983995431,0.48870897863292245,0.016033385132087005,0.032608695652184494,1
0.6477050550902178,0.5939053177092879,0.7147947724757195,0.5479439219322095,0.01496440924357137,0.04347826086958406,1
0.506542556928446,0.5824314427195862,0.8323590455403722,0.46983132777109987,0.015499106053770764,0.04347826086957696,1
0.5284582638404576,0.5832384587708228,0.8208219464295823,0.44728614870953765,0.017102361020602794,0.04347826086958939,1
0.5482553361809829,0.5823878882875342,0.8109203289283009,0.49927711747427767,0.01656808194228647,0.04347826086957163,1
0.5743590965491165,0.5832098570075591,0.7914560229026333,0.6483794274704798,0.016033385132087227,0.03260869565217028,1
0.5828551214810642,0.584950673377609,0.787040540558433,0.6907016538393314,0.01656808194228672,0.03260869565217561,1
0.5820430983740905,0.5855747728929604,0.7863821045388597,0.43138556784380144,0.016568081942286247,0.032608695652179165,1
0.5806009144750967,0.5860830764827443,0.7869345262614742,0.4522097375629123,0.01656808194228672,0.03260869565218094,1
0.5792791254881584,0.5822237737762093,0.787492932431079,0.5472797779982456,0.016033385132087477,0.03260869565218094,1
0.5857102952069103,0.5849945153937745,0.7837511616077355,0.5286597049131435,0.01603338513208745,0.03260869565219515,1
0.581478203260568,0.5832530601538927,0.7836629656050333,0.5042737298352835,0.01603338513208709,0.03260869565220581,1
0.5845527940541748,0.5832550332931091,0.7837583456868358,0.5689592484071673,0.01549910605377107,0.03260869565218627,1
0.5808060791417601,0.5823385804440783,0.7858651521861982,0.5784507421224149,0.01656808194228647,0.010869565217378252,1
0.5849862631591055,0.5823805791949725,0.7850850862958351,0.5267879431407472,0.016568081942286386,0.01086956521739424,1
0.5804220384469049,0.5814830183802853,0.7852582617869083,0.4744562044530949,0.016568081942286608,0.010869565217404897,1
0.5853561662246268,0.5820364145301103,0.7834552934133778,0.5586430842256473,0.016568081942286664,0.010869565217417332,1
0.5800523690562038,0.5824341488282145,0.7874211567487897,0.5725854967179866,0.016568081942286747,0.021739130434795584,1
0.5857336726028639,0.581075296251443,0.7863400692106741,0.5406879693458903,0.016568081942286497,0.021739130434790255,1
0.5796616090968499,0.5820828753672362,0.7899306708779834,0.47373939600445164,0.016568081942286608,0.021739130434800913,1
0.5861393953794041,0.5810016586309162,0.7866402525731022,0.5343892160486161,0.017102361020603016,0.021739130434790255,1
0.5792566519998162,0.5823234479963673,0.7899902916259465,0.5781745782147558,0.017102361020602516,0.03260869565217028,1
0.5863120691103152,0.5799864090944377,0.7874243259033298,0.5493371713385897,0.017102361020602905,0.032608695652184494,1
0.5733449943520478,0.5747570895902482,0.7909225621546152,0.4914032561016265,0.01496440924357112,0.03260869565218094,1
0.5771706213876477,0.5729069332918688,0.7915217226915809,0.5017594302555378,0.017102361020602794,0.03260869565218094,1
0.5681032981446318,0.5742077460819223,0.7952995362538846,0.5801661974597844,0.014430130165255073,0.032608695652179165,1
0.5778332874758251,0.571686239997599,0.7895042115782686,0.5546939822434028,0.01656808194228608,0.03260869565217561,1
0.567848394223524,0.5756132122497029,0.7976360219584966,0.4998068664006835,0.01496440924357148,0.03260869565218627,1
0.5818333351206593,0.571302181425581,0.7836787841609656,0.4960467575386524,0.016568081942286553,0.03260869565218094,1
0.5648549945522229,0.5776040307645832,0.8110989906611985,0.5686993039652716,0.016568081942286247,0.04347826086957163,1
0.5438829459026009,0.565747404786359,0.8156826895800654,0.5402155088968941,0.01656808194228636,0.043478260869573404,1
0.5094806912850316,0.5856118437085165,0.8751335661821467,0.49365202407472636,0.015499106053770653,0.04347826086955209,1
0.5083692076795452,0.626002402829777,0.8268872424753345,0.5076626520076186,0.01549910605377082,0.043478260869553864,1
0.5624577627324658,0.5985867231174362,0.7529365079913737,0.5831069177383448,0.014964409243571064,0.043478260869573404,1
0.6035709407884802,0.5161156188047128,0.7926606974362639,0.5132730248401961,0.015499106053770847,0.04347826086957696,1
0.5879296765856831,0.45300831721141344,0.7651262012482591,0.5074428097507396,0.01603338513208709,0.04347826086959472,1
0.5872377472549305,0.4174902590109819,0.7920322874465053,0.5360880822803717,0.016033385132086922,0.04347826086957873,1
0.5259096236550042,0.3801324562705767,0.812123068635642,0.6204849252221157,0.01710236102060296,0.032608695652193376,1
0.5478222181579532,0.3893413348334573,0.8496183220761939,0.5991733948012122,0.01763664009891945,0.032608695652198705,1
0.45380013569197475,0.4358709771535927,0.8172825756050217,0.4880828156832636,0.01763664009891934,0.032608695652193376,1
0.45486999945121454,0.4228331415909768,0.8886114300515047,0.46577637191573973,0.017636640098919285,0.03260869565217028,1
0.4239807513224806,0.41666382345542874,0.8396754416861785,0.5183687874012207,0.01763664009891934,0.04347826086957163,1
0.6131785760336734,0.3547269985125098,0.9032549688266596,0.6331776284920776,0.018705615987434906,0.043478260869568075,1
0.620815018146833,0.5390984435649919,0.6138332632790504,0.6302922465614096,0.01496440924357137,0.0434782608695663,1
0.41003575089541433,0.7555852117440454,0.659931266096424,0.42981363635163927,0.016033385132087033,0.04347826086956452,1
0.5820776159763509,0.6939961695911239,0.8915013600653443,0.3996839605173683,0.013895851086938527,0.054347826086951656,1
0.4413503264388883,0.5974033681687332,0.8490618781766364,0.44774100289772184,0.016033385132086977,0.054347826086951656,1
0.5361686041399097,0.5776651706207243,0.8501541277370326,0.5237576831808417,0.01710236102060271,0.054347826086962314,1
0.48984692443421307,0.5803617212121976,0.8293200320556795,0.5533952992049732,0.016033385132087033,0.05434782608696942,1
0.5818358921913575,0.5851066945969222,0.8060611097393666,0.5938414890825732,0.01549910605377057,0.032608695652173836,1
0.5448740306735651,0.5943288903420787,0.7943415623275016,0.4807172890826244,0.014964409243571411,0.03260869565217028,1
0.5756489553599183,0.5960470908569818,0.8013912894269903,0.5220443641214252,0.014964409243571508,0.032608695652193376,1
0.5509194834316354,0.6039418665491699,0.7900817153374566,0.575099088255346,0.016033385132086866,0.03260869565216851,1
0.5735376899106504,0.5972248654405629,0.7980688685544006,0.47832300386947174,0.016568081942286303,0.0434782608695663,1
0.5529923940955935,0.6021640388010485,0.794923624699121,0.492768690294691,0.01603338513208709,0.04347826086956452,1
0.5717326490373954,0.5938251101068514,0.7968948326913117,0.5112687618462957,0.01603338513208706,0.043478260869568075,1
0.5547866053523779,0.5932003444711923,0.7972476018531405,0.5504493644354761,0.014964409243571578,0.04347826086957163,1
0.5720550412124569,0.5803949181553363,0.7999597545316348,0.5155995789649565,0.016568081942286497,0.054347826086956985,1
0.5502743351625676,0.5715943108549604,0.802361104701885,0.5255920912319346,0.016033385132086977,0.05434782608696409,1
0.5543744727450137,0.5597447549224998,0.8139608565823038,0.5920330869888064,0.016033385132087227,0.05434782608696942,1
0.5373653395258485,0.5518885171598714,0.8158628873364848,0.5544964252697959,0.01656808194228644,0.05434782608696409,1
0.5462397409640892,0.5406977502218854,0.8205095039126524,0.48242766206666554,0.013361154276739215,0.0434782608695663,1
0.5328761489549577,0.5444699276924868,0.822901773445309,0.5015505239885593,0.014964409243571439,0.04347826086957696,1
0.5466357180763319,0.5454536407315793,0.8197885705141605,0.5995236947411768,0.014964409243571675,0.04347826086958406,1
0.5316899578415538,0.552565696236822,0.819970988290714,0.5475851025495443,0.0149644092435713,0.043478260869573404,1
0.5472347817909777,0.547833623882327,0.8185786691944326,0.5112611651282879,0.01496440924357148,0.04347826086957163,1
0.5368796889320353,0.5561405422073977,0.8179323779336811,0.5217341715642949,0.01443013016525535,0.04347826086958406,1
0.5471098180014572,0.5535385215046026,0.8157663855672519,0.5822651562772526,0.01229217838822362,0.043478260869568075,1
0.5305078836356878,0.5575597826047692,0.820831042167836,0.5195123369062552,0.012826875198423238,0.04347826086958584,1
0.5217068247840478,0.5547260670170879,0.8376555913664404,0.5080043874379576,0.011757899309907047,0.054347826086937445,1
0.49629443299936415,0.5589715784438731,0.8441515071929662,0.5234759355739605,0.012292178388223648,0.05434782608695876,1
0.5025295760403646,0.5559313393890033,0.8454330231722433,0.5710568852981317,0.01229217838822351,0.05434782608695876,1
0.44867337594134526,0.5515877110705766,0.8664454875111796,0.5167760503215607,0.01229217838822369,0.05434782608696409,1
0.41364676453731253,0.5445537970286327,0.8871496359938156,0.5160301843422759,0.012292178388223204,0.05434782608696409,1
0.41181964745667005,0.5502384721653555,0.8863582408812278,0.57937993771869,0.012292178388223857,0.054347826086937445,1
0.4159127649093487,0.5483675559735587,0.8848171385315136,0.5556735598808107,0.012826875198422918,0.05434782608697475,1
0.4171708503749847,0.5461144748085704,0.881553929850948,0.510070673884139,0.01282687519842303,0.05434782608696942,1
0.42095496106833913,0.542804587461975,0.8807118331074395,0.5537835115130304,0.012292178388223274,0.04347826086956452,1
0.4184450816309486,0.5456571085362436,0.8812505795165846,0.5335521957787401,0.011757899309907241,0.043478260869553864,1
0.4188765979173474,0.5468078410811068,0.8805032215557573,0.5074022041190659,0.012292178388223829,0.04347826086958939,1
0.4165813074754363,0.5413423599600555,0.8814416876757811,0.5003876769348856,0.01229217838822344,0.043478260869573404,1
0.4218124810739362,0.5465691034667282,0.8827108114355704,0.526643696900503,0.012292178388223524,0.04347826086958584,1
0.41780089710260016,0.5492131836235196,0.8815017723862439,0.5390510701440996,0.011757899309907394,0.04347826086959827,1
0.42400676504810075,0.5540183061309829,0.8809012170034483,0.49562490258443054,0.01229217838822376,0.04347826086958939,1
0.41989695188002396,0.5543729582189658,0.8815876850742042,0.5156453660548758,0.011757899309906963,0.04347826086957163,1
0.41991293868371127,0.5545677973656762,0.8793292517876516,0.5505157051880687,0.0112236202315905,0.04347826086958939,1
0.4227488121330737,0.5527760932216113,0.8810740469332878,0.5067684895706258,0.012292178388223732,0.0434782608695663,1
0.4313258727800511,0.549246883464656,0.8792839491160962,0.5234904861025734,0.009085668454559395,0.04347826086957873,1
0.43179854845885757,0.5509309304125763,0.881196007245771,0.5386580476880665,0.011223620231590473,0.043478260869553864,1
0.43303396676465766,0.5506166643880248,0.8791170367847114,0.5156824344167231,0.01015464434307528,0.03260869565218627,1
0.432605741502037,0.5495016224652387,0.8814330010506972,0.5052188538370981,0.010688923421391897,0.03260869565218094,1
0.4329980894342318,0.552879411175459,0.8785322996789542,0.5521152016138666,0.010688923421391758,0.032608695652184494,1
0.4382058888948749,0.5557237372396095,0.877977818068286,0.5231809083868223,0.011223620231590362,0.032608695652173836,1
0.43944413906643265,0.5584492583924205,0.8744530194952032,0.49371672772239866,0.010688923421391688,0.03260869565218094,1
0.4441510278346109,0.5560866947184907,0.8753753857198503,0.5413524497119173,0.011223620231590944,0.03260869565218094,1
0.4404707567899031,0.5501453199822154,0.8718493987763289,0.5562290238957504,0.01068892342139123,0.03260869565218805,1
0.4488667943938044,0.5496043695741439,0.8749311912299218,0.5012856908975196,0.010688923421391619,0.032608695652184494,1
0.45167520896970126,0.5512562346470863,0.8667909925825148,0.5420514870049526,0.011757899309907185,0.032608695652179165,1
0.4566031082304626,0.5562408478050509,0.8724460654724757,0.557250333228919,0.01015464434307535,0.03260869565218627,1
0.44806186134942205,0.5573277577490704,0.868791755640461,0.49794306019783846,0.0106889234213913,0.03260869565218094,1
0.4589352027547884,0.5527822923891802,0.8735864454042808,0.4860926255587582,0.008016692566043856,0.03260869565218094,1
0.44405501266922665,0.5579892738801411,0.8686381338140323,0.594637948073446,0.010688923421391827,0.03260869565217561,1
0.4659545669385887,0.5547435691033978,0.8719685262388739,0.5654439136446763,0.010688923421391258,0.03260869565218627,1
0.43303327018764515,0.5585413550028372,0.8718088442781498,0.4770808000782313,0.0106889234213913,0.03260869565218627,1
0.6922327700509496,0.5212636435760262,0.6992612127838633,0.5162750238598487,0.011223620231590833,0.032608695652193376,1
0.7616427808017948,0.5756185769929699,0.22457098512575702,0.5788331825548383,0.009085668454559853,0.04347826086956452,1
0.8565844042337085,0.6349572096442607,0.30506430088650666,0.5195542297882401,0.006947716677527818,0.04347826086957163,1
0.7177725585993775,0.5809693872193812,0.6030490433864228,0.4673790254037928,0.0042754858221803055,0.04347826086957696,1
0.49700848673997,0.5195060925820949,0.799160313961149,0.4679178952024079,0.009619947532875872,0.04347826086956097,1
0.5494207825698025,0.5548176554372393,0.8518388945810114,0.5017130680734864,0.01229217838822376,0.043478260869553864,1
0.549044362074454,0.596745893634711,0.7908728866398098,0.5838762356245636,0.012292178388223551,0.04347826086957873,1
0.6632969740087361,0.5999234459206891,0.7258279537202141,0.7026943545299611,0.010688923421391508,0.04347826086957163,1
0.6998237380306175,0.6180744370716441,0.626839388479695,0.7491529982744441,0.01015464434307535,0.0434782608695663,1
0.7145468998921046,0.6191038709112244,0.6431305329245086,0.4761847675058361,0.010154644343075406,0.03260869565218627,1
0.6822942736807999,0.6295158973408815,0.6465799447072176,0.43250713049738154,0.010688923421391064,0.03260869565218627,1
0.6831091912889001,0.6254329033954674,0.6766313547282063,0.5803767503545301,0.010688923421391883,0.03260869565220936,1
0.665962478020135,0.6323432132569685,0.6666645978511866,0.5019034213632658,0.01015464434307542,0.03260869565217561,1
0.6795493177055335,0.6221333230131876,0.6845026896829748,0.404777017270219,0.010154644343074865,0.043478260869573404,1
0.6587755903710771,0.6178200492320643,0.6832684569751402,0.3795323817526336,0.010154644343075309,0.0434782608695663,1
0.6680614793687181,0.6056168216533572,0.7042396948356686,0.4832230351344643,0.010154644343075198,0.043478260869568075,1
0.6515309189980479,0.6077499685105062,0.7016856205920772,0.5439621759248195,0.009619947532875664,0.04347826086955742,1
0.6675988060191805,0.603107731404558,0.7103109936989909,0.5461775492054484,0.009085668454559145,0.04347826086955742,1
0.6565238484262284,0.6054721117550647,0.7011275786252469,0.48986042806773594,0.009085668454559354,0.04347826086956097,1
0.667849235159473,0.5990390394324798,0.7102175790668479,0.5907177064663314,0.00961994753287615,0.04347826086957696,1
0.651782618203608,0.6028771936897329,0.7032042020230449,0.5828620692748221,0.009619947532876011,0.04347826086958939,1
0.663291934226669,0.5990430300558838,0.7099181953163793,0.5603080395023032,0.009619947532875484,0.04347826086956452,1
0.6519659809944913,0.6005945354588086,0.7038696295232347,0.4795558174264584,0.0096199475328759,0.04347826086959827,1
0.6581040789166251,0.5978633456689979,0.7152631357861159,0.5493556610525139,0.009619947532875428,0.04347826086955742,1
0.6464042401930675,0.5987256426557951,0.7111701272366734,0.5790593079678463,0.009085668454559437,0.04347826086957873,1
0.6574338042927576,0.6083447857563034,0.7114617179401848,0.5332140229028487,0.009619947532875706,0.03260869565218805,1
0.6554136947987977,0.6243006305550687,0.6933278614913171,0.49388769863172766,0.01015464434307517,0.03260869565217561,1
0.660214944960552,0.6271505809854983,0.701726687433284,0.5545675519930979,0.008550971644359986,0.03260869565218627,1
0.6406900984029921,0.6367238987693047,0.7024829503744225,0.5582452603180303,0.009619947532875775,0.03260869565218094,1
0.648543342795044,0.6350499784196885,0.7078159983478985,0.5191691089209949,0.00801669256604387,0.04347826086957873,1
0.6368359785820524,0.6383634170602542,0.7072610598385822,0.4923813459641536,0.009085668454559576,0.04347826086955209,1
0.6461897533299115,0.6352124303501516,0.7139318285334637,0.567963491977034,0.00855097164435989,0.043478260869568075,1
0.6300343353464934,0.6385173011743993,0.7149027843210307,0.5606283089459505,0.008550971644359792,0.043478260869573404,1
0.6399228670238865,0.630965598414741,0.7182960207848837,0.5069913433240528,0.008550971644360125,0.032608695652204034,1
0.6279510579817,0.6299178049856158,0.7139506296718113,0.5032399460615481,0.009085668454559673,0.032608695652193376,1
0.6406929954656898,0.6278269701355395,0.7180512321403847,0.5812456629798225,0.008550971644359931,0.032608695652198705,1
0.6295770761031849,0.6298904193438561,0.715005079497125,0.5476362481009291,0.008550971644360514,0.032608695652198705,1
0.6403796732339798,0.6241800842726505,0.7172176228850493,0.5072419389189051,0.009085668454559145,0.04347826086956097,1
0.630769678371186,0.6262157080624348,0.718688575700906,0.48420897755748243,0.009085668454559437,0.043478260869553864,1
0.6393233248890676,0.62122662083186,0.7243610478938516,0.5629871806220921,0.008550971644359986,0.04347826086956097,1
0.626018523662021,0.6174860813966047,0.7321199482363987,0.5407435217637333,0.0074824134877271575,0.043478260869568075,1
0.6260248140774184,0.6046547134843724,0.7456076801919781,0.5000671775844181,0.008550971644360347,0.04347826086958939,1
0.6021896495405109,0.5962403787226165,0.7567060665161813,0.5231469145573989,0.006413437599211577,0.04347826086958406,1
0.5975176691418397,0.584185507033103,0.7771519088179454,0.5712759958048064,0.008016692566043135,0.04347826086955742,1
0.5803746976528702,0.5757946401297088,0.7825682875946669,0.5237512033672396,0.008550971644360236,0.043478260869573404,1
0.5747627718680808,0.5742981229008683,0.797626860704066,0.48805755671042217,0.008016692566043787,0.043478260869573404,1
0.5561037299247612,0.5686907167911259,0.8014259046429001,0.5173490532181663,0.008550971644360236,0.043478260869573404,1
0.5513584921545496,0.5600799974465225,0.8153825732049209,0.5891141247869849,0.009085668454559437,0.04347826086958406,1
0.5315798288155018,0.5591670054792598,0.8210998595421759,0.5210122126095279,0.009619947532875775,0.04347826086957696,1
0.5381190926399185,0.5606354368813616,0.8196784491819411,0.4897090519063266,0.009619947532875803,0.054347826086951656,1
0.5384094557132245,0.5676232488036193,0.8149137311423353,0.5160982208604518,0.009619947532875636,0.0543478260869481,1
0.5386189443637018,0.5724574122071617,0.8210885437772784,0.5681254702744433,0.008016692566044106,0.05434782608696409,1
0.5368617591099597,0.5748463279088563,0.8143754376476424,0.5381003777764443,0.009085668454559326,0.05434782608695343,1
0.545573735643886,0.5722912235226864,0.8177771467000723,0.5275867838504061,0.009085668454559506,0.04347826086957163,1
0.5417492773989933,0.5776780423856251,0.8105413014928651,0.5171433307433061,0.009619947532875636,0.04347826086957873,1
0.5520010379780561,0.5768879681868919,0.8135659190396177,0.5327853170769111,0.009085668454559326,0.04347826086957163,1
0.5418958270356768,0.5787081053015485,0.8110031689515842,0.484644255100685,0.009619947532875567,0.043478260869573404,1
0.5478634019300962,0.5751684250951374,0.8136867674694389,0.5392981397717362,0.009085668454559326,0.054347826086962314,1
0.5393762186612842,0.574812696649394,0.8111890623468477,0.564880839369797,0.0096199475328759,0.054347826086962314,1
0.549098703909972,0.5763609265959712,0.8137607032943044,0.53966610201691,0.010154644343075059,0.054347826086956985,1
0.5400671316226454,0.5781707673234014,0.8109716091283352,0.4764547712127375,0.009085668454559298,0.054347826086962314,1
0.546764037865983,0.5781047301061271,0.8167836386520895,0.5216210252949445,0.009085668454559354,0.05434782608698008,1
0.5384315822988492,0.5741805971616112,0.8107954729431051,0.5529229084428762,0.008016692566043926,0.054347826086962314,1
0.5479333567048017,0.5744239219816034,0.8166967529856306,0.5498812631613592,0.009085668454559423,0.054347826086981854,1
0.5406768938795461,0.5734086153787468,0.8140204797490855,0.49662280090801797,0.009085668454559256,0.05434782608696409,1
0.5462487448541602,0.5738982292163207,0.818298195532569,0.5003985850972362,0.008550971644360028,0.04347826086957696,1
0.5408257544115448,0.5734466656693042,0.8139117783558987,0.5568915483964565,0.009619947532876039,0.04347826086957163,1
0.5476501397677557,0.5742698286857354,0.8162946151078007,0.5594031937988918,0.006413437599211785,0.043478260869568075,1
0.5393791290716822,0.5754649969006302,0.8144634528450421,0.5114080598127216,0.008550971644359862,0.04347826086957163,1
0.5488732130606063,0.5753657334620866,0.8169368425849155,0.4969605959257719,0.009085668454559714,0.05434782608698008,1
0.5393920634640231,0.5772985638233348,0.810972916591146,0.5466299363668957,0.00908566845455891,0.05434782608694455,1
0.5471915297157092,0.5762903674052506,0.8178322607808685,0.5635413595285987,0.009085668454559284,0.05434782608695876,1
0.5393465504626103,0.5759542687716631,0.8128268439321433,0.4955749459913917,0.00855097164436007,0.05434782608697475,1
0.5475415617636917,0.5759246319739817,0.816077633207574,0.5229133346166221,0.007482413487727491,0.04347826086957696,1
0.5409869211708193,0.5797848804987035,0.809699845916487,0.5522093303851062,0.008550971644360417,0.04347826086957696,1
0.5553489734101787,0.5808020989431102,0.8105606244188287,0.5490649157429909,0.00801669256604401,0.04347826086958406,1
0.5466383053978889,0.5822225276090434,0.8067263208165805,0.47514719615693635,0.00855097164435957,0.043478260869573404,1
0.5543713514556252,0.5805364703171642,0.810215694186011,0.5220769570465957,0.008550971644360306,0.03260869565218627,1
0.545581134614999,0.5792194877053872,0.8056180836742589,0.556577692250201,0.009085668454559645,0.03260869565218627,1
0.5625174430089485,0.5817347771384479,0.8072012409994971,0.5573113237218241,0.00855097164435982,0.03260869565218627,1
0.5466713656295902,0.5815050950789683,0.8037272151523134,0.542043172024621,0.00801669256604387,0.03260869565218094,1
0.5620240856523745,0.5816554208854134,0.8072571336356855,0.5308541010487444,0.008550971644360417,0.043478260869573404,1
0.5485012324391794,0.5814691407884801,0.802449042926857,0.514349383943788,0.008550971644360403,0.0434782608695965,1
0.5603512334248706,0.5817484531662342,0.8086254860553432,0.5273031198666333,0.0069477166775276655,0.043478260869568075,1
0.5480047870556797,0.5813185209918768,0.8021928599095741,0.4936497228409271,0.007482413487727768,0.04347826086958406,1
0.5590136346521994,0.5820019804153337,0.8089233076247608,0.5330680000568878,0.00801669256604401,0.05434782608695876,1
0.5481468663509528,0.5806184461737631,0.8021442910314929,0.5724489901373117,0.008550971644360167,0.05434782608696764,1
0.5656507656268831,0.5816395826665874,0.8039335337340455,0.5255931719191463,0.008016692566043856,0.05434782608695876,1
0.5514513755918539,0.5829151697108238,0.8018923622307625,0.4727460626448795,0.008016692566044037,0.05434782608698008,1
0.5530993495643433,0.5836980872678272,0.8171765851094952,0.5575347905814683,0.008550971644360333,0.05434782608696942,1
0.5044678581492371,0.5786968186443184,0.8250235376668242,0.554356850792361,0.009085668454559326,0.054347826086962314,1
0.5149186964447993,0.5772000492460313,0.8387401281820239,0.5201120609430502,0.011223620231591333,0.054347826086976525,1
0.5055355398384705,0.5820274344918062,0.8313737967495118,0.519009805263302,0.011757899309907213,0.05434782608696764,1
0.5253496451028417,0.582140444868327,0.8342442043762125,0.7970572661047054,0.010688923421391328,0.054347826086956985,1
0.5123658255683584,0.5785285392424794,0.8216764127987928,0.5120151764426683,0.010688923421391466,0.05434782608696409,1
0.5272422049815071,0.5809011317800636,0.8403037315829661,0.4307784279162843,0.009619947532875622,0.0543478260869481,1
0.44079871899922496,0.572378290898044,0.8506685265014758,0.3593762489958718,0.010688923421391716,0.054347826086962314,1
0.39070573202657016,0.5565300474243388,0.8988170866215859,0.46058241284588886,0.009619947532875983,0.06521739130434412,1
0.42436803237696274,0.5508401612592813,0.8825314818767218,0.5405194299205139,0.010688923421391341,0.06521739130435478,1
0.49332483130138005,0.5581081348354235,0.8567785715959708,0.7076033059142663,0.009619947532875942,0.06521739130436188,1
0.45144148832913045,0.5562259213193551,0.8616388778382713,0.49081127076715103,0.008550971644359862,0.06521739130434057,1
0.5028981173476463,0.5556459054772808,0.8607270842498824,0.3663395235649961,0.008550971644360236,0.07608695652175257,1
0.42501614755815864,0.551290611814321,0.8669143105105486,0.5772198127434807,0.008016692566043343,0.07608695652173125,1
0.6216628543902581,0.5573373331284738,0.849227871583731,0.5065716631036754,0.008550971644360167,0.07608695652173125,1
0.7305288518233088,0.6934050760504145,0.572416557001413,0.4890803676967508,0.00801669256604394,0.07608695652175257,1
0.5182976227094557,0.8020381577160811,0.4889327445393667,0.5512957493059761,0.005878740789012307,0.05434782608695343,1
0.6467094526391576,0.8319478251904759,0.5049027977790159,0.5671301706757613,0.004275485822180264,0.05434782608697475,1
0.6142292534436627,0.8208698218670245,0.4986402533938608,0.4095451722169194,0.0064134375992115356,0.05434782608696764,1
0.6267217030269912,0.8288112059793273,0.4864017647946379,0.3386336441825671,0.005878740789012377,0.05434782608696764,1
0.6194320138710357,0.8244026955702044,0.5244898224276298,0.5894222580254374,0.006413437599211466,0.054347826086962314,1
0.5778893036384058,0.7953318530641983,0.5556708693480936,0.6790286218989369,0.004275485822180555,0.05434782608698363,1
0.5754235702007254,0.6988421036705028,0.7286689372640713,0.644307343019174,0.006413437599211827,0.05434782608696409,1
0.589856634838036,0.5929247690054819,0.8577395330077403,0.5179734240437476,0.009085668454559354,0.05434782608696764,1
0.5509351689902682,0.5906905565314635,0.7968087998047886,0.6075219663026813,0.009085668454559562,0.06521739130436188,1
0.5728988469934073,0.5809008171636303,0.8123103016914623,0.6325923260097244,0.009619947532875706,0.06521739130435833,1
0.5457745991652896,0.5814040361967641,0.7994878644442703,0.6788031773516785,0.005878740789012557,0.06521739130434767,1
0.5600950351934467,0.5758325130772431,0.8104819149585052,0.5174606440704559,0.008016692566043926,0.06521739130434767,1
0.5446919759046474,0.5726782908624897,0.8068188154079827,0.3073932443146385,0.008016692566043787,0.06521739130435833,1
0.553010758981593,0.5745784525545252,0.8153321021535558,0.4393964652115683,0.008550971644360125,0.06521739130436188,1
0.5394329626914123,0.5726427853164198,0.8088639843911808,0.5156309475564467,0.009085668454559631,0.06521739130434767,1
0.5471948430338072,0.5731459651724992,0.8164094253610608,0.5901520295311752,0.00855097164435989,0.06521739130435833,1
0.530771031300158,0.5706328704174055,0.8182202751379011,0.562177800041476,0.009085668454559812,0.05434782608698896,1
0.5379936962060214,0.5691523321295852,0.822056441123022,0.5121942191479051,0.0090856684545597,0.05434782608695876,1
0.5202687248073444,0.5645654550028218,0.8283931458147114,0.48034070638111365,0.00908566845455916,0.05434782608698008,1
0.5188916684629244,0.5662003492069356,0.8390593774948705,0.5832367761653807,0.009619947532876039,0.054347826086956985,1
0.47942849823549405,0.5588005067655395,0.8519422170213847,0.5480447024024636,0.01068892342139137,0.05434782608696764,1
0.4600081246116493,0.5591418605256977,0.8662976425511946,0.5309775821860968,0.011223620231590709,0.05434782608695876,1
0.45251294693145383,0.5571056280923766,0.8665963089820232,0.46907671439036125,0.011757899309906825,0.054347826086942774,1
0.4577903246670392,0.556507328111979,0.8681421636640141,0.573747519913666,0.010688923421391439,0.05434782608696942,1
0.45623678156845127,0.5581992465599571,0.8644628757720267,0.6506605614742969,0.012292178388223524,0.04347826086956452,1
0.45913867878539916,0.5589020773278159,0.8708079809929181,0.5109047875754255,0.01282687519842296,0.04347826086959117,1
0.4635284721151093,0.5569106406486759,0.8601464720876806,0.5068000877757982,0.01175789930990731,0.04347826086959472,1
0.47400263487037975,0.5618993847462498,0.8616591760019605,0.4793322887286853,0.012292178388223551,0.04347826086958939,1
0.47134111633181275,0.5626496830130491,0.8579509337072875,0.5177342739887769,0.009619947532875733,0.04347826086957163,1
0.4740040099258255,0.5635766155546158,0.8628181695742465,0.5409251685252555,0.01175789930990738,0.04347826086959117,1
0.4715109391031689,0.5652161894112647,0.8584976322756213,0.5218196246507711,0.011757899309907421,0.043478260869573404,1
0.47434279664576395,0.5644016516798965,0.8586011520803436,0.5362962212779481,0.01175789930990745,0.04347826086957873,1
0.4778444389320018,0.5658365029964797,0.855971239654056,0.5279074725037631,0.011757899309907241,0.04347826086957696,1
0.4840479717797107,0.5666012018141142,0.8537164711517258,0.5009723045462349,0.011757899309906977,0.043478260869573404,1
0.4816731605387917,0.5651609749682233,0.8518979505165394,0.5155696372345534,0.010688923421391605,0.04347826086957696,1
0.4836179479511451,0.5663809754973068,0.853689114982902,0.5367218218697435,0.011757899309907213,0.043478260869553864,1
0.4827582960844091,0.5652605368080146,0.8519291746633209,0.5228457271021898,0.011223620231590778,0.05434782608696409,1
0.48426416487508517,0.5663262711808549,0.8536659136433453,0.4906964922948846,0.011223620231590986,0.05434782608696764,1
0.4812708723941179,0.5652850026859926,0.8519403422704198,0.530926645399869,0.011223620231590847,0.054347826086976525,1
0.48956513616171216,0.566337175543115,0.8536690334545807,0.552201156612109,0.011223620231590917,0.05434782608695343,1
0.4865908536067838,0.565200872185078,0.8519209166681148,0.5041356845576404,0.011223620231590875,0.043478260869568075,1
0.4861098485115347,0.5668076905051803,0.8537053176664121,0.5055486400248788,0.008550971644359986,0.04347826086958406,1
0.48521631131067366,0.566170695286813,0.8518816424286999,0.5749372793020946,0.010688923421391675,0.0434782608695663,1
0.49024512468811243,0.568868605080937,0.853527971700065,0.5201314446032017,0.011223620231590695,0.043478260869548535,1
0.4923748690717715,0.567820566274233,0.8476627832829313,0.5011928507695325,0.010688923421391189,0.04347826086957696,1
0.4945008939458049,0.5679325299628964,0.8462807650322682,0.5485878822821578,0.010688923421391716,0.04347826086957873,1
0.5090203879543626,0.5683956567408434,0.8383953630371705,0.5483765411420392,0.008550971644360056,0.04347826086957873,1
0.5122490036561952,0.5655965388681365,0.83850887179365,0.4934760198504628,0.011223620231590625,0.04347826086958939,1
0.5130729230907604,0.5667809299557366,0.8381385279763921,0.534369807314544,0.011223620231590972,0.05434782608696942,1
0.5124585943109047,0.5671291157820422,0.835397777466605,0.5560421541655017,0.010688923421391605,0.05434782608698363,1
0.5115414370978677,0.5656552552007745,0.8408723010096961,0.5017443492493143,0.011223620231591042,0.05434782608696409,1
0.5050134534561438,0.5657736276386348,0.8426027426415689,0.47299863733056935,0.011223620231590986,0.054347826086976525,1
0.5023174510025238,0.565985790608935,0.8437378257977166,0.5684099081937071,0.010688923421391397,0.043478260869568075,1
0.502969994775359,0.5652628625834843,0.8437954948589431,0.5780977627400797,0.01229217838822376,0.043478260869568075,1
0.5008910512574378,0.5651781656254724,0.8434248330080909,0.5333185818139308,0.012826875198422738,0.043478260869568075,1
0.5021847974753271,0.5657874211704242,0.8439941081703471,0.48933665379535085,0.012826875198422988,0.04347826086957873,1
0.5016005829187726,0.5659956914032975,0.8432875591592928,0.5818346351457189,0.011223620231590667,0.04347826086956097,1
0.5000435696140283,0.565476941439431,0.8440465204799578,0.573507787477979,0.011757899309907796,0.04347826086957696,1
0.4978532102921238,0.5662228070967765,0.8434913098594727,0.5459251033643211,0.010154644343075198,0.04347826086956097,1
0.5112948268036238,0.5666019778144553,0.8379978182078913,0.48475685102326566,0.011223620231590944,0.04347826086958406,1
0.5149232379237307,0.5684277134679909,0.8300542857876791,0.5036086177731712,0.010688923421391744,0.03260869565218627,1
0.5136973184154959,0.567372929428385,0.8388685554812239,0.5691563520700215,0.01122362023159118,0.03260869565218627,1
0.5083931246767012,0.5717991563942548,0.834069388459706,0.5208563205476009,0.010688923421391508,0.03260869565218094,1
0.5238258118313787,0.5492337656926498,0.8562290654241854,0.4595049877240147,0.01015464434307542,0.03260869565218094,1
0.6723649382686889,0.5387722007794846,0.6922618089613625,0.5385930782830762,0.010688923421391577,0.043478260869573404,1
0.771106992592437,0.5876638991205639,0.35645453135798777,0.6040903699839604,0.008016692566044079,0.04347826086958406,1
0.869898602111124,0.5769527884488299,0.29476269681221723,0.5133851440090943,0.003741206743863662,0.04347826086957873,1
0.723916942504089,0.5754607017078534,0.616871575575545,0.5150598463739783,0.0016032549668323903,0.04347826086955742,1
0.5155265398976738,0.5924478106535744,0.7873371260048372,0.6181349390021664,0.004810182632379978,0.04347826086957873,1
0.5141882745729036,0.5898830232599445,0.8214683571415167,0.5201943539264933,0.006413437599211647,0.043478260869573404,1
0.54866078792069,0.6019590430516657,0.8199671012735255,0.3146990944564815,0.0096199475328759,0.04347826086956097,1
0.5793929485589946,0.6170594355972283,0.7950630869856482,0.6249403209853842,0.00961994753287615,0.04347826086957873,1
0.5326200115832596,0.6124447769861241,0.8035814056165005,0.7653784732700736,0.009619947532875983,0.03260869565218627,1
0.6478219462651256,0.6293260575972158,0.7101534764912556,0.5833652688741178,0.01068892342139141,0.032608695652193376,1
0.6851902706864788,0.6230564364826761,0.6574890692418853,0.3868928061270792,0.008550971644359959,0.03260869565218627,1
0.6708832460885927,0.6430831897486482,0.6771820629817967,0.44740946175497465,0.008550971644359917,0.032608695652173836,1
0.6552492588591423,0.6376826854755755,0.682883218869234,0.5938455180573879,0.00908566845455977,0.03260869565218094,1
0.6560534488241626,0.650638844240397,0.6858267796067001,0.5521721353736426,0.008550971644359986,0.03260869565217561,1
0.6463333246864469,0.6493490232679986,0.6980119185512772,0.5178091835721285,0.008016692566043926,0.03260869565218094,1
0.6345920543060486,0.6583528388032688,0.7108897887344185,0.40816532292594576,0.008550971644359986,0.03260869565218094,1
0.6217622099590472,0.655102019642565,0.7191846481283075,0.40353012096921803,0.008550971644360056,0.021739130434790255,1
0.6205461197541089,0.6626762396548915,0.7201395016116802,0.491387922243234,0.009085668454559562,0.02173913043480269,1
0.621894047488479,0.658310804552928,0.7179389191655303,0.48222413686859145,0.008550971644360097,0.021739130434795584,1
0.6243115706815444,0.6607617209370151,0.7136539155279693,0.5723870024390251,0.009085668454559853,0.021739130434800913,1
0.6238510014092209,0.6576175159063402,0.7144029260507381,0.6098931884820807,0.008016692566043579,0.03260869565218094,1
0.6225624019166435,0.6605326454747783,0.7135842304762825,0.5315328368822078,0.008016692566043787,0.03260869565217028,1
0.6243635923038693,0.6582530975163535,0.7156268232851168,0.4618565708961656,0.008550971644359709,0.03260869565216851,1
0.6224271574934631,0.6608385377022995,0.7141310116082464,0.5661499199147676,0.008016692566044065,0.03260869565219515,1
0.6230910635363193,0.6594392408596226,0.7164598552017125,0.59231361172806,0.00855097164436007,0.03260869565218094,1
0.6227085940283452,0.6615423083029643,0.7141345217493354,0.5498124337849507,0.0069477166775282345,0.03260869565219515,1
0.6221639651813633,0.6593080404175509,0.7142706283652549,0.4731675928063907,0.008016692566043898,0.03260869565219515,1
0.6229717674806725,0.6613200721152551,0.7157581256492346,0.5587715437903634,0.008016692566043454,0.03260869565217028,1
0.6237907531673,0.659818122986032,0.7148819656623413,0.5897735935662163,0.008016692566043926,0.02173913043480269,1
0.620750987913502,0.6612521695023494,0.7167268212035214,0.5409744965858146,0.008016692566043523,0.021739130434800913,1
0.6191005958991667,0.6596421404397506,0.7196334009871478,0.4775502875062555,0.008016692566043968,0.021739130434795584,1
0.6201306345921294,0.6612818412101328,0.7209154789060888,0.5678771506595892,0.008016692566043968,0.021739130434795584,1
0.622538190472375,0.6596444481630213,0.7175893128459062,0.5798252186739136,0.008016692566043829,0.03260869565218094,1
0.6166313907650297,0.6612679352154041,0.7211986376946318,0.5401351595168518,0.009085668454559492,0.03260869565218627,1
0.6156900707150129,0.6596633143146001,0.7247417333725611,0.46239814456931494,0.008016692566043801,0.03260869565216318,1
0.6123341256985576,0.6612468897221504,0.7246947375157472,0.5333115859740982,0.00801669256604376,0.03260869565218805,1
0.6132855041895832,0.65968520453311,0.7251871443526925,0.5886863396052486,0.006413437599211758,0.03260869565218627,1
0.6123862594700956,0.6612248474684942,0.724656760373263,0.5544673859970034,0.008550971644360417,0.032608695652173836,1
0.6131486293205161,0.659707024129633,0.7252047204926263,0.4861914796072495,0.007482413487727518,0.032608695652173836,1
0.6130075442694833,0.6612034553711361,0.724642303865274,0.5047716938852953,0.007482413487727491,0.03260869565218627,1
0.6142266600654577,0.6597278795118545,0.7252182015154824,0.5784456454472067,0.00748241348772738,0.010869565217410226,1
0.6119291391940921,0.6611831900954085,0.7246293773750567,0.5471684877243885,0.008016692566043829,0.01086956521738891,1
0.613606593282745,0.6597475346378718,0.7252307795073469,0.49862194203569093,0.006947716677528054,0.010869565217410226,1
0.612063623198625,0.6611641450229122,0.7246169148915724,0.49517581996581456,0.006947716677527804,0.010869565217383581,1
0.6135531954803698,0.659765981888822,0.7252434498037102,0.5723233398334716,0.007482413487727352,0.032608695652179165,1
0.6120874266215078,0.6611462761884142,0.7246035647042987,0.5429032656072421,0.007482413487727282,0.032608695652179165,1
0.6135437134806433,0.6597832957570504,0.7252582088772492,0.5017570135111136,0.006947716677527735,0.03260869565217028,1
0.6120887951996605,0.6611294917829146,0.724586184690077,0.4786731616014105,0.006413437599212299,0.03260869565220936,1
0.6135474585727831,0.6597995769839466,0.72528041887294,0.5797216725876931,0.0069477166775284704,0.032608695652193376,1
0.6120815487648379,0.6611136874799639,0.7245546124681365,0.5441564083169375,0.006947716677527957,0.03260869565218627,1
0.6135572823459514,0.6598149300798589,0.7253323735788424,0.5295784465750565,0.0069477166775276655,0.03260869565218094,1
0.6120696915106185,0.6610987607215246,0.7244464905331365,0.45735567084716927,0.0074824134877273935,0.03260869565220936,1
0.6135708604780076,0.6598294543450346,0.7257324702497474,0.5626633193038881,0.007482413487727324,0.02173913043480269,1
0.6120545493448142,0.6610846162214743,0.7255623669954552,0.555418131171289,0.008550971644360278,0.021739130434795584,1
0.6135875281384233,0.6598432406590586,0.7249301987136574,0.5481399104814318,0.00748241348772731,0.021739130434790255,1
0.6120362910210974,0.661071167658534,0.7248405823597277,0.46520061268585755,0.00801669256604401,0.021739130434795584,1
0.6136075485549656,0.6598563707909675,0.7250215612715993,0.5290141021473406,0.007482413487726977,0.03260869565218094,1
0.61201421088019,0.661058337708007,0.7248852579112754,0.5657600281969769,0.00748241348772756,0.03260869565218627,1
0.6136321559688444,0.6598689177928385,0.7268690580513633,0.5547798332076039,0.006413437599211647,0.032608695652184494,1
0.6119863542920686,0.6610460573807488,0.727077116267974,0.4832862299582032,0.007482413487727532,0.032608695652179165,1
0.6136644049997826,0.6598809468209978,0.728053391648648,0.5120026997013036,0.007482413487727116,0.021739130434795584,1
0.6119477837360329,0.6610342651145351,0.7251556965308514,0.5592844183883237,0.007482413487727255,0.021739130434813347,1
0.6137129581968215,0.6598925160830145,0.7281878877871064,0.545218076152644,0.0069477166775281235,0.021739130434809795,1
0.6118805678728007,0.6610229058214055,0.7260856790319661,0.47925714981510453,0.007482413487727907,0.02173913043480802,1
0.6138321735591891,0.6599036777746533,0.7264364516072221,0.5294367288554817,0.007482413487727671,0.02173913043482223,1
0.6107197730119596,0.6610119299799242,0.7289830171455582,0.5623523663086892,0.006947716677528373,0.021739130434804466,1
0.6133154894581273,0.6599144789503457,0.7301998278490796,0.5417466753061367,0.007482413487727324,0.02173913043478848,1
0.6101638056138229,0.6610012928062472,0.7333515042527947,0.4661569207568609,0.006947716677528082,0.021739130434790255,1
0.6122790415526773,0.6599249623089156,0.7307862758921118,0.5279857360015933,0.0074824134877271575,0.03260869565218094,1
0.6065957015724779,0.6609909535115055,0.7325529580109054,0.5727996780844363,0.006413437599211688,0.03260869565217561,1
0.6027672085102141,0.6599351668943787,0.7348948905605748,0.5384277778505249,0.006947716677527915,0.03260869565217561,1
0.6024829237135634,0.6609808746407484,0.7334037641623947,0.46067003644663806,0.0053444617106958026,0.0326086956521614,1
0.6032854120517119,0.6599451287198251,0.7346467637182372,0.5115338872727828,0.006947716677527985,0.02173913043480269,1
0.6022545510513935,0.6609710214833561,0.7335122416069547,0.5687373105380511,0.007482413487727449,0.02173913043480802,1
0.6034173181636864,0.6599548813257605,0.7345873860519367,0.5558156906652885,0.005878740789012668,0.021739130434804466,1
0.6021666558451626,0.6609613615428249,0.7335487173379139,0.5265800155494195,0.007482413487727449,0.021739130434800913,1
0.6034814405890362,0.6599644562853408,0.7345632220059874,0.5441746553043126,0.0069477166775280125,0.03260869565216851,1
0.6021168208216149,0.6609518640533703,0.7335658917333148,0.5740698487296872,0.004810182632379548,0.032608695652173836,1
0.6035220342925551,0.6599738836690505,0.7345497002813404,0.5393745390459215,0.006947716677528429,0.03260869565220048,1
0.6020825298777841,0.6609424995308792,0.7347203939505711,0.46724901067439634,0.006947716677528193,0.032608695652184494,1
0.6035518559519178,0.6599831924811841,0.7345337560619507,0.5341314871904593,0.005878740789012377,0.021739130434784926,1
0.602055967945056,0.660933239345926,0.7336065123381368,0.5628993063573997,0.007482413487727449,0.021739130434795584,1
0.6035759952319851,0.6599924110804233,0.734460248389124,0.5384518781370651,0.006947716677527804,0.02173913043477782,1
0.6020336459293185,0.6609240553064751,0.7346473410991976,0.4704384877068455,0.006413437599211341,0.02173913043478848,1
0.6035969574370512,0.6600015675970552,0.7347479450970329,0.5223842156534896,0.006947716677528221,0.02173913043480269,1
0.6020136812233381,0.6609149192374215,0.7334613169374811,0.5778139781656692,0.006947716677528096,0.021739130434784926,1
0.6036162272361626,0.6600106903601547,0.7346167441647083,0.5529989639319183,0.006947716677527915,0.021739130434790255,1
0.6019948379119837,0.6609058025430056,0.7336049744388806,0.49467964373140777,0.006947716677527985,0.02173913043480802,1
0.6036348981853761,0.6600198083495092,0.7357269356378261,0.49176965213736495,0.00748241348772774,0.021739130434795584,1
0.6019760834510376,0.6608966757362755,0.7340060197664793,0.5723703187880215,0.007482413487727491,0.021739130434795584,1
0.6036540043066857,0.6600289516894458,0.7369977073041288,0.5545364558186259,0.006413437599211466,0.02173913043480269,1
0.6019563516742061,0.6608875079168116,0.7334299275335027,0.5042069806616821,0.005344461710696219,0.021739130434804466,1
0.603674571306881,0.6600381522053118,0.7388021367233575,0.49952850245408625,0.006413437599211813,0.03260869565218805,1
0.6019351373540691,0.6608782661735666,0.7370387812434591,0.5638544157712778,0.005878740789012182,0.032608695652184494,1
0.6036942402452941,0.6600474440686412,0.734891374082784,0.5452942936103518,0.006413437599211688,0.032608695652184494,1
0.6019314277875556,0.6608689148833315,0.7385625883873153,0.4941827900984048,0.0064134375992119935,0.03260869565220048,1
0.6022620128217084,0.6600568645646651,0.7395382936585,0.4944742917805771,0.005878740789012141,0.03260869565218805,1
0.5989008508342427,0.6608594148661452,0.7432033325282119,0.5725227791581294,0.0069477166775280125,0.032608695652173836,1
0.603058194825173,0.6600664550268824,0.743280853503947,0.5500150180783576,0.006413437599211785,0.03260869565216318,1
0.6019758232714947,0.660849722345668,0.7428280939414733,0.511359349064569,0.006947716677527735,0.03260869565216318,1
0.6039459465049104,0.6600762619994591,0.7422489180895537,0.48022721029828586,0.0064134375992115356,0.04347826086957163,1
0.5993384754320469,0.6608397876430818,0.7432786768055192,0.5689357297335298,0.0064134375992115356,0.043478260869568075,1
0.597946761294268,0.6600863387118805,0.7432298168401124,0.5538951067743949,0.005344461710695844,0.043478260869568075,1
0.6014276409918582,0.6608295535042185,0.7431068736069797,0.5172922983165283,0.006413437599211577,0.043478260869573404,1
0.5977496175346598,0.6600967469856435,0.7433079452609774,0.4798176607563016,0.006413437599211508,0.04347826086957696,1
0.5960082733459908,0.6608189529160811,0.7430945495367105,0.5617078355939723,0.0069477166775281235,0.043478260869573404,1
0.6044998218341212,0.6601075597466761,0.7423821854469534,0.5558757264114749,0.004275485822180375,0.04347826086959117,1
0.6003338031439795,0.6608079062018004,0.7417331051150875,0.5133252766797007,0.006413437599211827,0.04347826086957696,1
0.6029496002050253,0.6601188644012586,0.7433115921071562,0.49110658094963766,0.006413437599211758,0.032608695652179165,1
0.601005937108597,0.6607963170770296,0.7430083389984806,0.5615575843459686,0.006413437599211785,0.032608695652179165,1
0.6034593588347007,0.660130767467928,0.7434077034003919,0.5423972598113391,0.006947716677528401,0.03260869565218094,1
0.5988546053059929,0.6607840671783125,0.7429541559024022,0.5009601101203167,0.006413437599211716,0.03260869565218094,1
0.6010916000637877,0.660143401080511,0.7434966526768704,0.4816446705706813,0.00641343759921148,0.04347826086955742,1
0.6013431621752847,0.6607710082838708,0.742592105127408,0.5799506759822776,0.005344461710696011,0.04347826086958406,1
0.6028417942325822,0.6601569323591453,0.7423155373631193,0.5542504543543658,0.006413437599211716,0.043478260869568075,1
0.6023573019956331,0.660756950939499,0.7435164538328223,0.525567669826546,0.005878740789012349,0.043478260869568075,1
0.6033705543584825,0.6601715773295564,0.7426644601181973,0.46209503790316775,0.006413437599211549,0.032608695652184494,1
0.6022170964451122,0.660741647270518,0.7409483354791986,0.5695607325686809,0.006413437599212091,0.032608695652198705,1
0.6033860967220535,0.6601876223593688,0.7399947556100457,0.5609837585652329,0.006413437599211827,0.032608695652198705,1
0.6023339047872359,0.6607247639505563,0.7394204666096243,0.5456684062021566,0.006413437599212063,0.032608695652193376,1
0.6027347946970005,0.6602054586680165,0.7418248690791718,0.4679575455712778,0.006413437599211758,0.032608695652193376,1
0.6013832445351522,0.6607058375259355,0.7397682456617332,0.5340484923953249,0.0069477166775280125,0.03260869565217028,1
0.6028070391736746,0.6602256410860036,0.7430486898123096,0.5687762747241827,0.006413437599211827,0.032608695652193376,1
0.6014277653380004,0.6606841957155609,0.742620020491841,0.548562025657102,0.006413437599211383,0.03260869565217561,1
0.603903015074585,0.6602489957057698,0.7437096083056709,0.4856370501670918,0.005344461710695733,0.04347826086956452,1
0.6018772203149756,0.6606588064866614,0.7427308040023424,0.5224090875553695,0.005878740789012488,0.04347826086955742,1
0.603432852756557,0.6602768377325884,0.743617656325134,0.5642576662024736,0.006413437599211647,0.0434782608695663,1
0.6008807013506043,0.6606279524289755,0.7428087950532155,0.5326644739435925,0.006413437599211619,0.04347826086957873,1
0.6021073629138163,0.6603114792717003,0.7435432111323705,0.47314036524085923,0.006413437599211605,0.04347826086957163,1
0.5984669885992332,0.6605883963979344,0.7428946089323119,0.538654793673327,0.006413437599211966,0.04347826086956097,1
0.6005052780272444,0.6603576936055382,0.7433901125177844,0.5686212693978651,0.0058787407890121685,0.04347826086958406,1
0.598191342785023,0.6605325827523256,0.7417454096837408,0.5291678377834511,0.006413437599211855,0.0434782608695663,1
0.6021742725282855,0.6604287202066086,0.7436434270658658,0.46795979474773836,0.006413437599211577,0.03260869565217561,1
0.6009138087161506,0.660433383557429,0.7427996825925678,0.545013738031562,0.006413437599211855,0.03260869565219515,1
0.6030541500743579,0.6605978846373624,0.7436465659547411,0.5754786691287412,0.0069477166775277766,0.032608695652184494,1
0.5963166850813999,0.6588877710031021,0.7410725569254653,0.5397442732256555,0.005344461710695983,0.032608695652184494,1
0.5991995310623749,0.659828400777898,0.7421384014546487,0.47285780012120326,0.006413437599211896,0.04347826086957163,1
0.59814562403894,0.6606301429917931,0.7405073898077459,0.5231724533185614,0.006413437599211383,0.0434782608695663,1
0.6023185863891453,0.6604285888204777,0.7410112381470142,0.5849895325629338,0.006413437599211411,0.04347826086958406,1
0.6001606374353393,0.6603893431847706,0.7423229669543239,0.5373615273882677,0.00694771667752829,0.04347826086958939,1
0.5960570086739291,0.6606353764730815,0.7424853610304734,0.49879455366277037,0.006413437599212035,0.05434782608697475,1
0.592866327996685,0.6601776993936675,0.7434715757092596,0.5302637976068763,0.006413437599211952,0.054347826086976525,1
0.6121659516323379,0.6607702891694409,0.7316586773800627,0.5720600083472359,0.006413437599211896,0.05434782608698008,1
0.6347965826412697,0.664136924492419,0.7099392175632313,0.5013167296621397,0.00587874078901246,0.054347826086962314,1
0.6323374782647568,0.6899137322427421,0.646346499547912,0.5120143462542502,0.005878740789012349,0.043478260869573404,1
0.6679345207592167,0.6774974666903193,0.6791476882229532,0.5445378856117918,0.005878740789012252,0.04347826086959117,1
0.6090860634368048,0.6602300920407312,0.7286888745955191,0.4926464559375999,0.004275485822179986,0.04347826086956097,1
0.5598111517814347,0.6591721673745117,0.7735030996503827,0.45612929066622565,0.0064134375992115356,0.04347826086956452,1
0.5208768682113134,0.6500959545766718,0.805142629268164,0.5346429692421968,0.006947716677527943,0.04347826086956452,1
0.5078511051683746,0.6498059518025723,0.8090498397627752,0.5665566397604713,0.007482413487727227,0.04347826086957696,1
0.5051917158165002,0.6450506294878176,0.8219051447274462,0.574179790834721,0.007482413487726949,0.04347826086957163,1
0.5194796923361323,0.6467189999630734,0.8060880102841247,0.6623146537882139,0.0042754858221803055,0.04347826086957163,1
0.5378548194256786,0.6523437816840059,0.7977158697675125,0.5879117861010811,0.006947716677527874,0.043478260869573404,1
0.5340109592177413,0.6528388918772844,0.7920119414570943,0.4554432400989476,0.006947716677528332,0.043478260869568075,1
0.544157960936977,0.652330415567331,0.7917369171253545,0.4955984648384151,0.005344461710695775,0.04347826086955742,1
0.5395856531315449,0.6526757967320603,0.7882310959002661,0.5294513484190779,0.00694771667752829,0.04347826086957696,1
0.5484870377385068,0.6505502976587149,0.7910983745714162,0.49635726775070577,0.0064134375992115356,0.0434782608695663,1
0.5662079687539638,0.628613799681883,0.779059349301569,0.45519443170952145,0.0053444617106958026,0.04347826086957163,1
0.5857329961107297,0.5970639647884486,0.7752990182783324,0.5099923446890043,0.0032065099336646696,0.04347826086957163,1
0.5758559463226118,0.5765870420442555,0.7884007675608322,0.5721489083864167,0.005344461710695844,0.0434782608695663,1
0.574505803788337,0.564340944926942,0.7955921000590164,0.5316838331113352,0.004810182632379534,0.05434782608698718,1
0.5626631189170942,0.5572017433373694,0.8013677212576822,0.4720022225427216,0.004810182632379673,0.05434782608698718,1
0.5451441733004643,0.5527400271697958,0.8206918708926183,0.4495543819401775,0.0037412067438638424,0.05434782608698008,1
0.5388271055143631,0.551637392450525,0.8173273303430364,0.5885875509469172,0.0026722308553481233,0.05434782608699251,1
0.5395748402123023,0.5554488349581256,0.8187218020584628,0.5827775962490236,0.0032065099336641145,0.05434782608696409,1
0.5297524578345213,0.5601945697977575,0.823491743193679,0.556013420241208,0.0042754858221804165,0.05434782608696764,1
0.5686447067892881,0.558229562668716,0.8011128415664066,0.49966750718681685,0.003741206743863801,0.05434782608695343,1
0.5772005424445981,0.5663147883884839,0.7930929001354434,0.5643949470833408,0.0037412067438638424,0.054347826086962314,1
0.5828588403298398,0.5647540391038895,0.7905748450087693,0.5637734074116892,0.0021379517770315215,0.04347826086957163,1
0.5829169792201861,0.5692200021507665,0.7886777726866796,0.5045564963945719,0.0026722308553485674,0.043478260869568075,1
0.5789118223940971,0.5677710673843155,0.7937278234981915,0.5154921025061505,0.003206509933664281,0.04347826086956097,1
0.5733422846825411,0.5658958855401064,0.7929256618845899,0.5702000248191043,0.0032065099336642117,0.043478260869568075,1
0.5736325564381919,0.5657694070585879,0.80014471488219,0.5634914272452032,0.0032065099336646696,0.04347826086959472,1
0.5681037787439023,0.5701520004278631,0.7962401342750245,0.5090508433277467,0.0037412067438640784,0.04347826086957696,1
0.5661132407197835,0.567190573960548,0.7995196208032489,0.5142919543950089,0.002137951777031785,0.04347826086958584,1
0.5628099798649414,0.5664252638643308,0.7976125755678877,0.5521379056129228,0.0032065099336643504,0.04347826086957163,1
0.5630981268144123,0.5682639304490583,0.7994684759569982,0.5162701888287728,0.003206509933664392,0.054347826086956985,1
0.5623390543202107,0.5674515350814392,0.8022540994981979,0.5069114549796504,0.003206509933664531,0.05434782608696409,1
0.5631810479447865,0.5661156358920294,0.8083344940688778,0.5417613113675843,0.0032065099336643504,0.05434782608695343,1
0.5549454650978768,0.5703798604203104,0.8052312120817966,0.5383335446068659,0.002137951777031896,0.05434782608698008,1
0.5541136533096875,0.5697160193332836,0.8089860400533359,0.502329231228574,0.0032065099336645586,0.04347826086958584,1
0.5534216367044686,0.5670059232265103,0.8053039770547125,0.5286499873877795,0.0032065099336643227,0.04347826086955742,1
0.5530048455719953,0.5698652800519648,0.808953856867673,0.5469521376643973,0.003206509933664628,0.04347826086956452,1
0.5524651405284831,0.5717306208232983,0.805304134045726,0.5161899651181403,0.003206509933664642,0.04347826086960538,1
0.5531081684879058,0.5719682499371767,0.8089784148330461,0.5106200167984385,0.003206509933664531,0.043478260869548535,1
0.5524588934400664,0.57412894000403,0.805257755596084,0.5461285433117391,0.0037412067438638286,0.0434782608695965,1
0.5530640663410337,0.5734215940893109,0.8090472391414771,0.5240834924548013,0.003206509933664392,0.0434782608695663,1
0.5525445950029398,0.5738583427572139,0.805161533293083,0.5100158938817667,0.0032065099336646974,0.04347826086957163,1
0.5529379936757974,0.5736343691563525,0.8091846301629866,0.5394160799405991,0.003206509933664281,0.05434782608696764,1
0.5526983086026305,0.5735253897431932,0.8049428285402083,0.5340681086483783,0.0026722308553479984,0.054347826086976525,1
0.5529568923156978,0.5755878991697112,0.8096401587630644,0.5018091023726988,0.0021379517770316603,0.054347826086951656,1
0.5559031047086788,0.5902811036438771,0.7988115056210652,0.5372411253133333,0.002672230855348151,0.054347826086962314,1
0.5522051148928586,0.6076505923714635,0.7976056194200418,0.5392687274536969,0.0010689758885157746,0.043478260869553864,1
0.5588038209030138,0.625648647198638,0.7990719507380171,0.5042215489503018,0.003741206743863662,0.04347826086957163,1
0.5647356359731452,0.6446055307975928,0.7809925828348303,0.5341914306350315,0.0037412067438638286,0.043478260869573404,1
0.6051944558935738,0.6568662626081119,0.7118222222409307,0.5662908355927772,0.008550971644360306,0.04347826086957873,1
0.6117491922863973,0.6580393409373322,0.7402908839353242,0.5222104533349786,0.008550971644360139,0.04347826086958939,1
0.5783087810580119,0.6228148149215555,0.7612628063179325,0.5454292591503881,0.007482413487727491,0.043478260869568075,1
0.5862548088423621,0.62978798694001,0.7837284415688117,0.5357360628294232,0.007482413487727074,0.043478260869553864,1
0.6178659221201253,0.6391629217727807,0.7326370832978668,0.48212776265779017,0.006413437599211619,0.043478260869548535,1
0.6147541465750113,0.6065795896257116,0.7379853978637236,0.5382051850210597,0.00748241348772738,0.0434782608695663,1
0.5897078653718423,0.6103736506543499,0.7625556678839297,0.5334034233286689,0.005878740789012002,0.043478260869568075,1
0.5881705598675249,0.6131116434036221,0.7767817492116468,0.5529529140614359,0.006413437599211758,0.04347826086958584,1
0.573795569819201,0.617000202243353,0.7823612356190973,0.5767760491439792,0.006413437599211716,0.04347826086956097,1
0.5675651080711482,0.6190548094928778,0.7950307184331047,0.47759684539178265,0.003206509933664392,0.043478260869568075,1
0.552492930753065,0.6203028255085892,0.7940813911063074,0.43452252783841594,0.006413437599211896,0.04347826086959472,1
0.5519464935973911,0.6048108754794083,0.8022803597085881,0.5077664425669168,0.005878740789012696,0.04347826086959472,1
0.5505432230961099,0.5913154678868758,0.8001280072985382,0.5864655490585745,0.005344461710695664,0.043478260869568075,1
0.5562982302877988,0.5839077849280857,0.8087862890879145,0.5259244261736522,0.00587874078901246,0.043478260869573404,1
0.545123393347229,0.579400094451357,0.8050135685487279,0.5468320368466271,0.003741206743863773,0.0434782608695663,1
0.5552415426633776,0.572845135002257,0.809822054307165,0.5252645318519154,0.005344461710695983,0.043478260869568075,1
0.5520937018848107,0.5811936989152389,0.8021351996921908,0.4874545071766953,0.00587874078901196,0.04347826086957163,1
0.5652528941409,0.5971946403699304,0.8014362181195572,0.570048133869177,0.004810182632379395,0.05434782608696409,1
0.5661548714735695,0.6126022529502935,0.7808986672052027,0.5456787898515622,0.006947716677528082,0.054347826086956985,1
0.5741900480828006,0.6292158769982651,0.7790683585146458,0.4730941162799471,0.004275485822180264,0.054347826086976525,1
0.5820594791056644,0.6393757349204797,0.7641201904835726,0.5780161681329647,0.0064134375992113135,0.05434782608695876,1
0.5873236985276475,0.6433019023329056,0.7636312349596974,0.5777700341876497,0.0069477166775282345,0.04347826086959827,1
0.5791445627481933,0.6431434458623145,0.7595894011861954,0.5215155309171199,0.0064134375992118825,0.043478260869573404,1
0.5839474556279007,0.6325727890019299,0.7741073177795639,0.5634668703133618,0.0069477166775277766,0.04347826086957163,1
0.5765342073496988,0.626560105878244,0.7712610045906869,0.5718254926714686,0.006947716677528304,0.04347826086957873,1
0.5764182112856046,0.6140683327904523,0.7873296870796094,0.4792132195375652,0.006947716677527985,0.04347826086956452,1
0.5802092994945223,0.6007549667778967,0.7775249968479037,0.5011712996364149,0.006413437599211383,0.04347826086956097,1
0.7143916301169265,0.5650880474254931,0.6678747934309701,0.5615039588603336,0.005878740789012252,0.043478260869573404,1
0.7484936456955564,0.5684748752817286,0.3813475733589641,0.531084537073848,0.0042754858221799585,0.043478260869573404,1
0.8916628544599052,0.6088279423138263,0.40338503440324874,0.46699896941702973,0.0021379517770321044,0.05434782608696764,1
0.5868306140217703,0.5273048256590552,0.764294656234081,0.4893915680386082,2.3592239273284576e-16,0.05434782608697475,1
0.4827265236068877,0.5414410335523283,0.8132279455185065,0.557131030313227,0.004275485822180097,0.054347826086962314,1
0.5340929094411059,0.588659120783298,0.8367086650552124,0.5471694041333862,0.007482413487727449,0.054347826086981854,1
0.5394870966074142,0.5773007953662744,0.8064831920838451,0.40918156080397894,0.008016692566043593,0.054347826086962314,1
0.5289908433034212,0.6004277336765605,0.8266609783660238,0.7154429870973638,0.008016692566043385,0.054347826086956985,1
0.49024702013232013,0.606812721310531,0.8330808253977181,0.7374408183877126,0.008550971644360347,0.054347826086962314,1
0.4921487018835844,0.6211205742447887,0.8399609620813069,0.4281905629768864,0.010154644343075614,0.05434782608696764,1
0.48126060155934025,0.6306658107172233,0.8288315969919726,0.34786570810361256,0.009619947532875553,0.05434782608695876,1
0.5016810893581888,0.6529829163068401,0.8247034382672431,0.5576584771182674,0.009619947532875595,0.054347826086962314,1
0.5132519924093846,0.6555385160400775,0.8041711771088171,0.6043287296830393,0.0069477166775284704,0.05434782608696942,1
0.5271281671809839,0.6600714866171086,0.7991389776211371,0.4709915940779523,0.008550971644360209,0.05434782608695343,1
0.5181464878233741,0.6543438087970257,0.7999496234230223,0.5292759242904986,0.009085668454559298,0.03260869565218094,1
0.5225704366240025,0.6541968400963427,0.7977340848790829,0.542495923844454,0.00855097164436,0.03260869565217028,1
0.5304777306860329,0.6559361774449858,0.7944973796030755,0.5159862603621344,0.00801669256604369,0.03260869565218627,1
0.5413663637043816,0.658281987509892,0.7870755473593474,0.5400115056379289,0.008016692566043593,0.032608695652198705,1
0.5481540578441839,0.659424441174986,0.7817390175143522,0.5924107361192683,0.006947716677528165,0.05434782608696942,1
0.5472781804786088,0.6601784305110129,0.7851324900109766,0.49569106525950546,0.00748241348772731,0.05434782608696942,1
0.5474020418716424,0.6570057140088532,0.7826616439271461,0.44316281380570743,0.008016692566044134,0.05434782608696942,1
0.5523734090600154,0.6602697452335238,0.7818310620284412,0.4300713850004826,0.006947716677527679,0.054347826086962314,1
0.5527031666248143,0.6600606290019877,0.7784388835245137,0.5872034310480188,0.006947716677528026,0.06521739130434767,1
0.5528154140655406,0.660952791224745,0.7807962196936865,0.5136479518488432,0.0058787407890127374,0.06521739130435833,1
0.5528172319707771,0.6599345270989827,0.7788113861637668,0.5350206182796347,0.006947716677528193,0.06521739130436188,1
0.552641945570267,0.6610009098019091,0.7805327051658966,0.6184832097035823,0.006413437599211577,0.06521739130434057,1
0.5530463159951968,0.6599145481876482,0.7790342108696172,0.519063011022777,0.005878740789012377,0.03260869565218094,1
0.5522578665705149,0.6610074363672258,0.7803148237164349,0.4875087729516519,0.007482413487727657,0.032608695652204034,1
0.5547704318942719,0.6599153694035437,0.7793176569007543,0.562897098444091,0.004275485822180486,0.03260869565219515,1
0.5538556842961823,0.6610022892146754,0.7787468049196045,0.5589079263187834,0.0064134375992118825,0.03260869565219515,1
0.5547120228139609,0.6599231881405547,0.7757344078138975,0.4776199371199872,0.006947716677528054,0.04347826086958939,1
0.5543135856166991,0.6609927584796786,0.7764179174848922,0.5201465996765059,0.006413437599211827,0.043478260869568075,1
0.5528901164249487,0.6599338613395321,0.777696699931735,0.5888768769286885,0.006947716677528054,0.04347826086957873,1
0.5526525702492765,0.6609812731518707,0.7801307287854544,0.5359222804740519,0.004275485822180208,0.043478260869573404,1
0.5529438915370344,0.6599459904751743,0.7793545202985839,0.4808759421926828,0.005344461710695941,0.03260869565217561,1
0.5525731684011791,0.6609685429486382,0.7800643843496674,0.5336517870484825,0.006947716677528165,0.03260869565218627,1
0.5530169881545056,0.6599593960656207,0.7794373748100528,0.5789248369525126,0.005878740789012377,0.03260869565217561,1
0.552507940753101,0.6609542525570261,0.7799855384171659,0.5026293308449806,0.006947716677528054,0.03260869565216851,1
0.5530752813268485,0.659974970262692,0.7795115492814126,0.49776149503676625,0.003741206743863801,0.032608695652193376,1
0.5524555874094663,0.6609366855961897,0.7799153964396608,0.568495388196323,0.006413437599211716,0.03260869565219515,1
0.5531224609581485,0.659995811410466,0.7795783161794295,0.5658588335763708,0.006413437599211605,0.03260869565220048,1
0.5524130409779827,0.6609100987989444,0.7798514485333904,0.4850790374315279,0.006413437599211855,0.032608695652184494,1
0.5531607236214312,0.6600334727813411,0.779639913687417,0.4909562488701412,0.0069477166775281235,0.04347826086957163,1
0.5523788808595974,0.660847547752744,0.7797917931755338,0.5813010060689779,0.006413437599211855,0.04347826086958406,1
0.5531907980041174,0.6601719390095191,0.7796980001834698,0.5608086421602236,0.0069477166775277766,0.0434782608695663,1
0.552353058875049,0.6599708970501482,0.7797349123844822,0.5091715780624058,0.005878740789012377,0.043478260869573404,1
0.553211967091741,0.6586593849782878,0.7797540577713745,0.4688330708393857,0.006413437599211758,0.04347826086958406,1
0.5523372782750373,0.6612542036603319,0.7796792325827967,0.5741939604668912,0.006947716677528096,0.04347826086958406,1
0.5532210926377951,0.6597335283461955,0.7798099452181673,0.5723915794930979,0.006413437599211619,0.0434782608695663,1
0.5523369973578041,0.6612161557438941,0.7796222554532617,0.539274114862649,0.006947716677527888,0.04347826086958939,1
0.553208571395553,0.6594393395985385,0.7798695498213605,0.4741030875577069,0.006413437599211952,0.05434782608696764,1
0.5523700802588979,0.6602350270459542,0.7795568898950218,0.5321264748579164,0.006947716677528054,0.054347826086962314,1
0.5531376253869343,0.6601244772213347,0.779948317406731,0.5540896838134866,0.006413437599211758,0.05434782608696409,1
0.5525263656273484,0.6608962397528968,0.7794410431265802,0.5099914936146915,0.0069477166775282345,0.054347826086962314,1
0.5527044457868225,0.6599514485454148,0.7802107061585681,0.47496345189774997,0.00587874078901221,0.05434782608696942,1
0.556143156654124,0.6611505971902051,0.775994294005226,0.5641845245226195,0.006947716677528096,0.05434782608695876,1
0.5682082399508395,0.6609486201943886,0.7641862920501163,0.5673649186773414,0.00481018263237927,0.05434782608696409,1
0.5710708662137606,0.6606848658738643,0.7607372865141513,0.5173863286743818,0.006413437599211383,0.054347826086956985,1
0.5739954540915991,0.6601568047179046,0.7619982355455548,0.4673751884791393,0.006413437599211758,0.043478260869573404,1
0.5701955931664466,0.6607940013270658,0.7609620172936655,0.5756222318099327,0.006413437599211369,0.04347826086957163,1
0.570420120164491,0.6601122456530465,0.7619707899342494,0.5708728454560874,0.006947716677528165,0.04347826086956452,1
0.570155254655397,0.6608170510173577,0.7609279957147155,0.5262573574802761,0.006413437599212021,0.04347826086956452,1
0.5677332198432828,0.6600992290333072,0.7620371509654504,0.47449473832128775,0.006413437599211549,0.04347826086957163,1
0.5640762052374793,0.6608245266916255,0.7608354624419598,0.5275360549906405,0.006413437599211716,0.04347826086957163,1
0.5671328741161992,0.6600951441887661,0.7633005821847242,0.5705505532598311,0.0069477166775280125,0.04347826086957163,1
0.5643283732201932,0.6608263880150212,0.7606842727305958,0.5104035716012201,0.0064134375992115356,0.04347826086957873,1
0.5667725379594589,0.6600948153233988,0.7642286383768073,0.4939112031557491,0.006413437599211577,0.05434782608695876,1
0.5624459708205037,0.660825620158454,0.761334758671673,0.5560553022157255,0.005344461710696122,0.05434782608696942,1
0.5639477101654515,0.6600963917574689,0.7672100324274607,0.5641023384286225,0.006413437599211647,0.054347826086956985,1
0.5616557204252686,0.6608234328350613,0.7641141025197624,0.49333151522776186,0.005878740789012446,0.0543478260869481,1
0.5638888200757157,0.6600990503933694,0.7638488100733161,0.4773544693867241,0.005878740789012377,0.05434782608698008,1
0.5616896633327516,0.660820403642548,0.7667163151534158,0.5729367375458253,0.006413437599211341,0.05434782608696764,1
0.5638824495036446,0.6601023762059655,0.7673958574362896,0.569445396125185,0.006413437599211438,0.054347826086976525,1
0.5616627930819102,0.6608168360555146,0.7633949854893559,0.5129129975722045,0.006947716677528082,0.054347826086976525,1
0.5639976413248639,0.6601061446958727,0.7625743198117712,0.4723317567176187,0.006413437599211411,0.054347826086951656,1
0.5629621082375267,0.6608128970209777,0.7634656270204521,0.5736656424573285,0.006413437599211577,0.054347826086956985,1
0.5636943479717557,0.6601102320556536,0.7659206064982387,0.5695730879435033,0.006413437599211674,0.054347826086951656,1
0.5618039807323058,0.6608086770542414,0.7672908944544141,0.5203169995472444,0.0064134375992115356,0.054347826086951656,1
0.5637962624763205,0.660114574292036,0.7699319373089895,0.4623313875525957,0.005344461710695608,0.054347826086976525,1
0.5617496340081638,0.6608042182456145,0.7669605769985874,0.5486003735486339,0.006413437599211758,0.054347826086962314,1
0.5638396165393831,0.6601191481665223,0.7682483782007137,0.5860637663065267,0.005878740789012488,0.05434782608697475,1
0.5617076486760655,0.6607995268291247,0.7674773795973416,0.506864772267738,0.005878740789012071,0.05434782608694455,1
0.5638849985951382,0.6601239635895112,0.7652485497181554,0.4909555466502049,0.005878740789012377,0.054347826086976525,1
0.5616547579176248,0.6607945767318703,0.7700915906374479,0.570997249973995,0.005878740789012793,0.05434782608698008,1
0.5639508735027671,0.6601290636703556,0.7672452288293145,0.5568942262270954,0.005878740789012141,0.05434782608696764,1
0.5615662911955063,0.6607893060196004,0.7644095889937021,0.49462307937666483,0.005878740789012141,0.05434782608695876,1
0.5640830161195457,0.6601345320170574,0.7695696792545236,0.4804955592557443,0.006413437599211647,0.05434782608695876,1
0.5613271057827847,0.6607836052482106,0.7662869761979807,0.5824272251890686,0.006413437599211383,0.054347826086981854,1
0.5648638563948049,0.6601405097835544,0.7663911214478343,0.5598656530691517,0.005878740789012252,0.05434782608696764,1
0.5620777295562254,0.6607772933623209,0.7654417835226486,0.5253564178300031,0.005344461710695914,0.054347826086956985,1
0.5656416327961712,0.6601472293571424,0.7675299256510453,0.4591972323470036,0.005344461710696011,0.054347826086956985,1
0.5628917017193418,0.6607700705612535,0.7666941233943819,0.5587258321343812,0.006947716677528082,0.054347826086962314,1
0.5632686522754499,0.6601550808880561,0.7681284164917107,0.5638354146615085,0.004810182632379506,0.054347826086962314,1
0.5631578764757597,0.6607614230338912,0.7652602297257429,0.5471222941444287,0.005878740789012252,0.05434782608696942,1
0.5640062863675755,0.6601647513210124,0.7659213057586504,0.4644281693695058,0.005878740789012252,0.0652173913043761,1
0.5610504988538386,0.6607504152316687,0.7700940421932757,0.4953748686188537,0.005878740789012182,0.06521739130436544,1
0.5629950738247226,0.6601775436747195,0.7662062081820991,0.5731944779193603,0.005878740789012377,0.06521739130436544,1
0.5609488010780312,0.6607351821380208,0.7678500907318588,0.6063563815321953,0.006413437599211647,0.06521739130435478,1
0.5633422189298107,0.6601962185111108,0.7716567298428586,0.481276041515094,0.005878740789012377,0.06521739130435478,1
0.5620812555145122,0.6607114615255951,0.7665943459304543,0.4478720619266481,0.005878740789012182,0.06521739130435833,1
0.5635444468887698,0.6602277266953755,0.7667892793863701,0.5748205294000872,0.004810182632379395,0.06521739130435833,1
0.5619952926738228,0.6606670420054067,0.7678572893499453,0.6083031638681693,0.006413437599211508,0.06521739130432991,1
0.5635844837187932,0.6602960003256964,0.7708571703599929,0.5224880095978283,0.005878740789012377,0.054347826086956985,1
0.5619932206781403,0.6605454809536777,0.7662186902844177,0.45978214958880953,0.005878740789012307,0.054347826086956985,1
0.5635285094779426,0.6606084850540297,0.7655186413761074,0.5508181523382806,0.005878740789012099,0.054347826086956985,1
0.5645227590937373,0.6613319912911537,0.7661601467861974,0.554074680472185,0.005878740789012585,0.05434782608696942,1
0.5692311676365116,0.6617623169926181,0.7617276657499885,0.5107429818220558,0.0064134375992115356,0.054347826086962314,1
0.5745124849111137,0.6634635807971703,0.758239571958538,0.4876454019047111,0.005878740789012252,0.05434782608696764,1
0.5732316585165931,0.6615294812421726,0.7622490486411914,0.5569591101642413,0.0058787407890121685,0.05434782608694455,1
0.5646050733196181,0.6630992492158964,0.7673424039267607,0.5433516459116655,0.006413437599211716,0.05434782608695343,1
0.5616459705082961,0.6591599787068344,0.7716137402216219,0.4940124818590959,0.0037412067438635926,0.054347826086951656,1
0.5569090475000711,0.6608135464901586,0.772211941621465,0.5474127377898863,0.00534446171069608,0.05434782608696409,1
0.5595065054128616,0.6600107231807414,0.7737494764631225,0.5875881092791593,0.0058787407890123905,0.054347826086962314,1
0.5530914737425551,0.660970577887756,0.7766553004486849,0.49511803686865374,0.005878740789012252,0.054347826086951656,1
0.5552527897734697,0.6597789331943662,0.7790643761836029,0.46528127207869235,0.005878740789012488,0.05434782608696764,1
0.5559305032999733,0.6599577254154749,0.7734581862783783,0.5447875776595764,0.0058787407890120436,0.05434782608698008,1
0.556642809383331,0.660254802835942,0.7779068348148639,0.5606515307630362,0.005878740789012626,0.05434782608696409,1
0.5571529393376717,0.6607433331058553,0.772553263157145,0.4787060082456758,0.006413437599211549,0.05434782608698008,1
0.5604135583033129,0.6601491549938673,0.7729597785579142,0.5239453022785893,0.005878740789012349,0.0760869565217277,1
0.5615724891728388,0.6607861742260651,0.7683112650835726,0.5623934464871432,0.006413437599211647,0.0760869565217348,1
0.5545545549417473,0.6601269384599029,0.7765647867412311,0.4604699249030007,0.00587874078901221,0.07608695652174546,1
0.5554752245438258,0.6607981840400727,0.7739711072343398,0.47220330108439845,0.005878740789012238,0.07608695652174546,1
0.55527092338444,0.6601223106382477,0.7792295514946928,0.5820445242780843,0.004810182632379673,0.05434782608695343,1
0.5504619479623623,0.660794152900744,0.7769430499319241,0.6022708543445515,0.005344461710696358,0.054347826086962314,1
0.5536943350887369,0.6601434035608549,0.7794941159627924,0.5269825267359681,0.005878740789012182,0.054347826086962314,1
0.5518412345260792,0.6607098824502522,0.77515296385187,0.5258354161720443,0.005878740789012071,0.054347826086956985,1
0.555510393706588,0.6591080309339641,0.7795767756824024,0.6016538783286244,0.00587874078901221,0.05434782608696764,1
0.5583575123217762,0.6609631004916747,0.7702155043942762,0.5466531692821166,0.00587874078901221,0.054347826086942774,1
0.5576967605555647,0.6600056840077317,0.7739080255701082,0.493238175347564,0.005878740789012377,0.05434782608698363,1
0.5542766327109734,0.6608962068036732,0.7681851357570975,0.5133913752568745,0.005878740789012141,0.054347826086962314,1
0.5600501585261712,0.6600434550975154,0.774553867493684,0.5682232569893525,0.006413437599211716,0.054347826086951656,1
0.5588495739905346,0.6608405981831066,0.7659408223871658,0.5024894091129729,0.005344461710696108,0.05434782608696942,1
0.5571932106522572,0.660197303039211,0.7779823142178495,0.4906876055382248,0.0058787407890121685,0.054347826086962314,1
0.5524180629505779,0.6598228437673763,0.7730438539094419,0.5402151735523213,0.004810182632379256,0.054347826086951656,1
0.5531809252522949,0.6563688525583358,0.7909997791336922,0.579178256081089,0.0053444617106961495,0.05434782608696942,1
0.5551189923596267,0.6759903059374326,0.7707973879767391,0.4978429898668588,0.006413437599211411,0.05434782608695343,1
0.5143753622617322,0.6761723843039534,0.795101482091026,0.4841114198586973,0.005878740789012113,0.054347826086951656,1
0.513888618264079,0.6812439067829232,0.7759656931224675,0.576021183810117,0.006413437599211605,0.05434782608697475,1
0.5282567196826344,0.6904900003622717,0.8242409600410782,0.6101249267376767,0.0069477166775282345,0.054347826086951656,1
0.4772930156084767,0.6650732539072527,0.8015382275485192,0.49640630428857435,0.00801669256604401,0.05434782608698008,1
0.4988569126460749,0.6077678692287293,0.8293489343302406,0.5324942543253101,0.007482413487727324,0.054347826086956985,1
0.5094680899487706,0.6117605661338307,0.8332669223873586,0.638072211114066,0.007482413487727491,0.05434782608696942,1
0.47255907810963294,0.5731088820044156,0.8456637128661677,0.5442681615546042,0.00801669256604362,0.06521739130434767,1
0.4895821413449004,0.5835742892030132,0.8443015022515293,0.4901973608169573,0.008016692566043274,0.06521739130433346,1
0.43488965424844295,0.5645194134327733,0.8714286188415559,0.5003917963502662,0.007482413487727449,0.06521739130435478,1
0.6891198406262099,0.5858965622095917,0.6507573885037055,0.49358590288200627,0.008550971644360056,0.06521739130434767,1
0.7942111014115569,0.589491232704193,0.4889238483912911,0.517583367469367,0.004275485822180375,0.054347826086956985,1
0.7473519470496538,0.5781821625870243,0.5467447000885535,0.4114771088964503,0.0032065099336646002,0.05434782608697475,1
0.7819630598112559,0.5889538085330754,0.5182357496107676,0.5107326945243269,0.0010689758885159412,0.05434782608696409,1
0.7409848695072131,0.5830746512705925,0.569677651727946,0.5202920156900959,0.001068975888516302,0.05434782608698008,1
0.7548578669131882,0.5896200557848787,0.5688543844094275,0.6653339480865978,0.0010689758885160244,0.05434782608697475,1
0.7366835555985621,0.5776112879868496,0.5993669190140472,0.5707976999576746,0.0005342790783165047,0.054347826086951656,1
0.7256806736905764,0.5894947813245306,0.6223766686972165,0.46864771986068815,0.0010689758885159828,0.05434782608695876,1
0.7091462755782582,0.5887346357575358,0.6359975793708519,0.4563675112611387,0.0010689758885158718,0.054347826086956985,1
0.7226661372303821,0.5909534090076088,0.6301613251361828,0.4741082750395161,0.0016032549668320156,0.05434782608697475,1
0.7031814393796606,0.5885194445981414,0.6464119400894477,0.6057031363754631,0.00106897588851608,0.05434782608695876,1
0.7064918481075251,0.5941483155004005,0.651224027157774,0.4323022756631286,0.002137951777031896,0.054347826086962314,1
0.699099170445367,0.5954609991694153,0.6522933894580697,0.37369346519606766,0.0021379517770319656,0.054347826086956985,1
0.70385391595228,0.5964881790848053,0.6571295566042,0.5129630173082479,0.002137951777031341,0.054347826086951656,1
0.6906892793647003,0.5927930677244405,0.6625045947984627,0.6084061652251861,0.002672230855347721,0.05434782608696764,1
0.69759275792534,0.5970558733437146,0.6599176744410586,0.5324083863311996,0.0026722308553481927,0.05434782608696764,1
0.6898073493526363,0.596481859555556,0.6618575912472672,0.5578750361266798,0.0026722308553483037,0.054347826086976525,1
0.6969417935407641,0.596183613094963,0.6600999721819742,0.5733006782385519,0.0032065099336646974,0.043478260869568075,1
0.6887782950249262,0.5971246802704687,0.6672514278627686,0.5083737731150464,0.0032065099336647668,0.04347826086957873,1
0.6969385457650963,0.5970268546597406,0.6709720656518796,0.5796741673189124,0.0032065099336643504,0.04347826086956452,1
0.6888302236217163,0.5943215441807753,0.6699279548009869,0.5527759069406696,0.0005342790783166712,0.0434782608695663,1
0.6968911916944434,0.5950541676284231,0.6719991144168009,0.5115134727485033,0.001603254966832321,0.04347826086958406,1
0.6881656533721104,0.5915902512134821,0.6692507557897307,0.5743199458831088,0.002672230855348165,0.043478260869553864,1
0.6951288845492141,0.597860413386074,0.6737529311713335,0.5563790601245537,0.0021379517770319934,0.04347826086957163,1
0.6841652409288979,0.5945634490774618,0.673878365880253,0.4978605945663642,0.003206509933664503,0.04347826086958406,1
0.6885452025028452,0.5992604950052025,0.6792067946638505,0.5639488253887872,0.0026722308553481927,0.03260869565218805,1
0.6826551821821999,0.5955020115532632,0.6767515427374962,0.5671528066264092,0.003206509933664878,0.032608695652204034,1
0.6862426961779431,0.5983557632487501,0.6825601254074727,0.513010174713282,0.0021379517770315215,0.032608695652193376,1
0.6834200766598928,0.5859270237224078,0.674919297630806,0.5172823316151113,0.0026722308553480956,0.032608695652173836,1
0.6710748777903522,0.5945579332041484,0.6866606972281319,0.5765028522652855,0.003206509933664392,0.04347826086955742,1
0.7305537449877425,0.5656118219843393,0.6492048533060429,0.5260212511227625,0.003741206743863662,0.04347826086957163,1
0.7580228926086656,0.5604191774051004,0.5484169213630992,0.4975988280164744,0.002672230855347818,0.04347826086956097,1
0.8623431654180315,0.6778144592629224,0.36994043173084096,0.535135770945972,0.001603254966832321,0.043478260869568075,1
0.7467755995087966,0.7493572129975179,0.41872612450901153,0.5693780274929714,0.0005342790783164769,0.0434782608695663,1
0.5178277091211991,0.7950883938828062,0.5138400973250664,0.5234663657311065,0.0005342790783167545,0.04347826086957163,1
0.6497576133997244,0.8553784780624989,0.4537145827437845,0.5919770397902828,0.0,0.043478260869568075,1
0.5056885101675224,0.8504770809750164,0.39430871774033216,0.422084786211204,0.0005342790783169626,0.04347826086958939,1
0.6528928435824448,0.7378299016776029,0.5765964501586172,0.5175729537168124,2.0816681711721685e-16,0.04347826086957163,1
0.44170292644120357,0.5558361446412088,0.9519835033637303,0.4912396998231231,0.0010689758885158857,0.04347826086957163,1
0.5139982508863238,0.5937177561055127,0.7822298292824319,0.4768145358834823,0.005344461710695608,0.04347826086957163,1
0.7688730983033245,0.5960206922308449,0.573616421855723,0.631087466667185,0.004810182632379811,0.04347826086958406,1
0.8057337791084913,0.5576309503076995,0.3936904319032014,0.7848171150607862,0.0026722308553478596,0.043478260869543206,1
0.7713128277409361,0.6383043210789048,0.28335767957652597,0.8199974941194623,0.0016032549668323903,0.04347826086957163,1
0.8174557421713424,0.6165315983419586,0.241362710121502,0.16156888498847738,5.273559366969494e-16,0.04347826086957873,1
0.7299501347366485,0.6602156364643028,0.45019694662504084,0.3001536426594976,0.001603254966832765,0.04347826086958406,1
0.47937290610551253,0.5946140619341259,0.8325609321663747,0.46540501629729536,0.002672230855348026,0.032608695652193376,1
0.5306511752424448,0.5348662194815554,0.8713360983499567,0.5339786126984787,0.004810182632379478,0.03260869565218805,1
0.512778054330882,0.5722121400628073,0.8237449125550745,0.5567026242090894,0.004810182632379201,0.03260869565218805,1
0.5413888769374476,0.5649598554097228,0.8290784340960555,0.6774223250014574,0.004810182632379742,0.03260869565217561,1
0.549537682839626,0.5766403171504354,0.8029081947361193,0.6342807162529811,0.0048101826323795754,0.03260869565218805,1
0.6111763292434382,0.5774578494037701,0.7739606444470768,0.5012072663684929,0.0032065099336644337,0.032608695652173836,1
0.5988347954529539,0.5784431861098078,0.7615910930065821,0.46543207532026454,0.0032065099336642533,0.03260869565217028,1
0.6166372709789131,0.586826409048369,0.7619157091106263,0.5128085859702356,0.0032065099336645586,0.032608695652179165,1
0.6278799238391295,0.5940217996167654,0.7381684400738058,0.5593391615112374,0.0026722308553478458,0.02173913043477249,1
0.6267993245654474,0.5921500368268375,0.7489553336036436,0.5750354689275614,0.002137951777031716,0.021739130434795584,1
0.5900671416541622,0.5925291975567897,0.7683286940518121,0.44827646955190364,0.0037412067438637314,0.021739130434795584,1
0.6017560155572562,0.5925475606894866,0.7719562417220243,0.47473691487088204,0.0037412067438634955,0.021739130434800913,1
0.5775996611647974,0.5925594829265177,0.7749893105000191,0.4488387374878561,0.003741206743863565,0.03260869565218627,1
0.5853670535825816,0.5884387598452259,0.7778209707027339,0.5370363367757639,0.004275485822180444,0.032608695652198705,1
0.6321039098939926,0.5959615743869934,0.7384987425775436,0.5142763794304533,0.003741206743863801,0.032608695652184494,1
0.6301463327319399,0.5930930536859894,0.7388323599957123,0.477405103670843,0.0026722308553478596,0.032608695652184494,1
0.6363990329333508,0.596413399751549,0.7307929697989253,0.49068773824408674,0.0032065099336642117,0.03260869565218094,1
0.6289270664462081,0.5864789735386541,0.7437561614623187,0.5917180823207723,0.001603254966832321,0.032608695652179165,1
0.6367516829621765,0.5932021942246036,0.7362602576109336,0.5051766637512076,0.0026722308553479984,0.03260869565217028,1
0.6216723370569788,0.5841656444358305,0.7513192366773818,0.449388218576041,0.0037412067438634955,0.03260869565217028,1
0.6274232727087165,0.5946505924819104,0.7373276303715695,0.5776535194693874,0.0010689758885162326,0.021739130434793807,1
0.6204988675227828,0.5687158262980494,0.8216875313137054,0.6163039913600173,0.0026722308553484425,0.021739130434813347,1
0.6208559303155509,0.6829788462349025,0.8439828820502795,0.5361094589060406,0.0016032549668322238,0.021739130434795584,1
0.3552778219659259,0.8793554195919171,0.5638140557606881,0.4807956650097321,0.0037412067438640784,0.02173913043480269,1
0.19550079711328316,0.9050116758042879,0.5845191437698849,0.5657227660541432,0.00320650993366442,0.02173913043478315,1
0.21488293421467297,0.9396790558125798,0.6231230366294889,0.5648116030274825,0.004810182632379742,0.021739130434800913,1
0.22351484376151243,0.9495275515218466,0.6197313370310069,0.42423033606724,0.0074824134877271575,0.021739130434793807,1
0.20449850009777523,0.94763850978252,0.6042408910881891,0.5159703336526132,0.006947716677528096,0.021739130434795584,1
0.22978379237879806,0.9486861063119779,0.625245559435657,0.6575717616936138,0.009619947532875942,0.021739130434765386,1
0.15296080308013182,0.8795195887663603,0.5532624856334543,0.6518137820573492,0.008016692566043856,0.021739130434795584,1
0.6067897966941832,0.762499477113179,0.6519255875108863,0.5606477096343527,0.0058787407890121685,0.02173913043480269,1
0.5572328335749803,0.6257959375278471,0.8988673161857075,0.4778996473407069,0.002137951777031577,0.02173913043478848,1
0.5088426180298585,0.5781131542896653,0.8377507564324098,0.5922381781512871,0.005344461710696108,0.032608695652179165,1
0.5708965791852991,0.5920893311146026,0.8085353120843838,0.5877955917880312,0.0042754858221800696,0.03260869565219515,1
0.543796468645913,0.5785118808374488,0.8020958160717495,0.5069644927149222,0.00641343759921148,0.03260869565218094,1
0.5355010327475749,0.5847731036845801,0.8259385293458568,0.6713803252744261,0.006413437599211827,0.032608695652193376,1
0.5031429160095755,0.575639968708285,0.8268653914108873,0.4496839949546492,0.006947716677528082,0.021739130434795584,1
0.5487903488684782,0.5982524441584632,0.8195534616518805,0.38549115729549954,0.00748241348772738,0.02173913043478315,1
0.5335261129256916,0.5929178400460944,0.8071288829309906,0.5361705098697583,0.00694771667752829,0.02173913043480269,1
0.5525539104946873,0.600033446772649,0.8102399434802254,0.5424367230286659,0.006413437599211716,0.021739130434770715,1
0.5323796243415188,0.5915300108040515,0.8086643342813218,0.506109985491939,0.006413437599211577,0.021739130434795584,1
0.5374048017252877,0.5903887136970093,0.821285984702655,0.4512258721974531,0.006947716677528054,0.02173913043478848,1
0.5110232957832445,0.5839709681255917,0.825410110047692,0.543447026574551,0.006413437599211272,0.021739130434770715,1
0.5412223433862964,0.591927016674965,0.819249633635693,0.5306761388291285,0.007482413487727255,0.021739130434790255,1
0.5397432159837556,0.5905242475063863,0.8080744789671644,0.5069832733035341,0.007482413487727421,0.02173913043478315,1
0.5612603139218776,0.5966342553434154,0.8027671672556711,0.5483505504171645,0.006947716677527874,0.02173913043480802,1
0.5556144551764557,0.5930214465680634,0.7957180743947456,0.5998816550974244,0.007482413487727491,0.02173913043480802,1
0.566193541980196,0.5963204154912652,0.8000707856529824,0.5860004551360644,0.004275485822180541,0.021739130434793807,1
0.5563778774639938,0.5939939852420406,0.7958901582390048,0.44018622677646374,0.005878740789011697,0.010869565217387134,1
0.5662896026894997,0.5985585983219259,0.7984736752484547,0.4781200405580385,0.006413437599211577,0.010869565217404897,1
0.5567485835323807,0.5958856633238313,0.7953797558836865,0.48717237568476734,0.006947716677527804,0.010869565217378252,1
0.566060421366414,0.5988327127991696,0.79984475707203,0.5361151344624985,0.0069477166775281235,0.01086956521738891,1
0.559117781395423,0.595887023997486,0.7962465513337147,0.5043793898032434,0.003741206743863898,0.02173913043478848,1
0.5603407364173404,0.5988269456472961,0.7996933929559205,0.5222356258669113,0.006413437599211619,0.021739130434784926,1
0.5541854745921011,0.59584705222409,0.7963632078792932,0.5390530528307442,0.007482413487727116,0.021739130434793807,1
0.5575364287726149,0.5990098487099816,0.7995249513633182,0.5440458100594991,0.006947716677528054,0.02173913043478315,1
0.5540064212891759,0.5944354761417755,0.7973056933667098,0.48155335080251704,0.00694771667752829,0.03260869565217561,1
0.5615731388852049,0.5978865494808474,0.8000564599456693,0.5307603126010372,0.007482413487727074,0.03260869565218094,1
0.5534608610585147,0.5941062054970052,0.7961324662285303,0.5815065386490571,0.006413437599211827,0.03260869565218805,1
0.5604706725878247,0.5964535005175774,0.7998320391105107,0.554422490275257,0.006947716677527818,0.032608695652184494,1
0.5546953584051567,0.5950865075189818,0.7961153285140338,0.4885276772502936,0.006947716677527804,0.03260869565217561,1
0.5562687586313292,0.5940903954816683,0.800464274346372,0.5185072440522727,0.008016692566043787,0.03260869565217028,1
0.5512616558497033,0.5889960459802585,0.7992792117596375,0.5870948477128113,0.005878740789012113,0.03260869565217561,1
0.5557447883926502,0.5912858438072581,0.8068135166082164,0.5526124950871699,0.006947716677528193,0.03260869565219515,1
0.5500162861249683,0.5884830329075431,0.8051765529543213,0.5191703584621115,0.00587874078901196,0.043478260869543206,1
0.5555820215638971,0.5904062155117286,0.807646091090021,0.4773696334448229,0.006947716677527957,0.04347826086955742,1
0.5494969176117712,0.5885330613548055,0.8062981342376421,0.5693507279781221,0.006947716677527943,0.0434782608695663,1
0.5556380636908671,0.5904647931441444,0.8069306898857609,0.5566705397821046,0.006413437599211716,0.04347826086957163,1
0.5524618853819786,0.5877174077449926,0.8009694788336189,0.544026663632403,0.006413437599211577,0.04347826086957696,1
0.553997474129175,0.5871329056154136,0.8080234104458992,0.4761487015214238,0.006947716677528096,0.04347826086957873,1
0.5514230584377203,0.5875728037682572,0.8048831008353791,0.5295627304866458,0.007482413487727532,0.04347826086957696,1
0.554734974247917,0.5886043131162288,0.8063049939129407,0.550568489842918,0.006947716677528165,0.04347826086958939,1
0.5545147248224018,0.5883905604891833,0.7999925449037941,0.5599636505348798,0.006947716677527915,0.043478260869568075,1
0.5592797876223075,0.5904088552106618,0.8004044628836187,0.5123900635760462,0.006413437599211674,0.04347826086958406,1
0.5553227411152136,0.5885889661519964,0.7966820780754075,0.5106888340615203,0.007482413487727088,0.0434782608695663,1
0.5580513313957675,0.5903004332354378,0.7994528239432174,0.5575050495057405,0.005878740789012141,0.0434782608695663,1
0.5535395867519896,0.5886780214999046,0.7967253874751448,0.5474315361783353,0.006947716677528026,0.04347826086956097,1
0.5542291706019339,0.590201119955968,0.8057269408597274,0.5188190492553904,0.00748241348772738,0.04347826086957163,1
0.5512114381088555,0.5888500838939089,0.8032934473588499,0.5174890620173545,0.006947716677527735,0.04347826086956097,1
0.5543470340090125,0.5911049847102873,0.8088221491059222,0.5515648000507221,0.008016692566044079,0.04347826086958584,1
0.551231405938079,0.5889773106138555,0.8025159638590995,0.5315924874682182,0.008016692566043343,0.043478260869568075,1
0.5542929358467432,0.5911388010943328,0.8010068399474504,0.4890626428909366,0.008016692566044106,0.04347826086958406,1
0.5512979415200446,0.5883801636408915,0.8032442072848265,0.5224914939451155,0.0053444617106961495,0.04347826086958939,1
0.5542197876726965,0.5904554331559001,0.8061526489592261,0.5634768790532692,0.00801669256604344,0.043478260869568075,1
0.5513770905019607,0.5885194444057206,0.8022329308711782,0.5310535741227231,0.007482413487727449,0.0434782608695663,1
0.5541318553344234,0.5903981469344585,0.8052304758905453,0.48726936676758603,0.007482413487727282,0.04347826086957163,1
0.5514821023496431,0.5885390135413711,0.8054936579256043,0.5249938403478698,0.006413437599211674,0.04347826086957163,1
0.5539838261605777,0.5904100666154696,0.8032406380898354,0.5654735022904891,0.00801669256604394,0.043478260869573404,1
0.5518181397953228,0.5884819631428942,0.8032212057715289,0.5294152778599363,0.0053444617106960385,0.04347826086956097,1
0.555206379259994,0.5905791907920009,0.8061918073654946,0.4913479254538006,0.008016692566043454,0.043478260869553864,1
0.5512835360288498,0.5870872157274043,0.8029015974202488,0.5271793305379692,0.007482413487727491,0.04347826086957873,1
0.5541414733686421,0.5894948265547807,0.8084555473342979,0.5651365585297513,0.006947716677528443,0.04347826086957873,1
0.5514497449474802,0.5889393176290969,0.8044837608964371,0.5239799050106705,0.008016692566043829,0.06521739130436544,1
0.5561611093561766,0.5901304554302739,0.8045090020523784,0.49510210445045,0.007482413487727518,0.06521739130435833,1
0.558522025702365,0.5886547411569569,0.796693559099442,0.5321683182325467,0.00748241348772731,0.06521739130434412,1
0.5643939524410643,0.5926134408468362,0.7993815416185474,0.5504968921387123,0.00748241348772738,0.06521739130434057,1
0.5615978959516639,0.5956518017718068,0.7966270840038507,0.4991331028574459,0.007482413487727227,0.043478260869568075,1
0.560855538094819,0.5963745718315004,0.7993593747643685,0.5340477492708239,0.006413437599211827,0.04347826086956097,1
0.5564354456389106,0.592258576805966,0.7966451169731011,0.5797678310436075,0.006947716677528151,0.04347826086956097,1
0.557538603453595,0.5960006492371673,0.7993439924116504,0.5217490723243049,0.006947716677528054,0.0434782608695663,1
0.5539102478642817,0.5915273746035355,0.7966685569870967,0.49816106972049506,0.0069477166775280125,0.06521739130434767,1
0.5551558534474116,0.5902807671079483,0.799258851277237,0.5557072403378981,0.007482413487727657,0.06521739130437965,1
0.553608232620099,0.5886467717051965,0.7983487018917579,0.5388480165186297,0.0074824134877277265,0.06521739130436188,1
0.5535091059330881,0.5909225088979925,0.8014383121381348,0.4757274908561719,0.006947716677527638,0.06521739130434412,1
0.5518723221391023,0.5913320697731763,0.7976662437427879,0.528388123110457,0.006947716677528165,0.06521739130436544,1
0.5537347154720121,0.5897282766077688,0.799839570926951,0.5811380913320928,0.008550971644359986,0.06521739130435833,1
0.5518060481773016,0.5890905035971485,0.7997652080872593,0.5426894156637051,0.004275485822180347,0.06521739130435478,1
0.5537485362236352,0.5898890609780142,0.8029184441338458,0.4889955481658095,0.006947716677527749,0.06521739130433701,1
0.5518174869399979,0.58902501085281,0.8018927052650471,0.4903493724204748,0.005878740789012182,0.05434782608696409,1
0.5537206030112594,0.5899185627226451,0.8025057712891543,0.5918419227226942,0.007482413487727518,0.05434782608695343,1
0.5518605655018203,0.5890163835713685,0.7998193265339981,0.549802241466052,0.0069477166775282345,0.05434782608697475,1
0.5536575883613042,0.5899091701084856,0.8014195766354922,0.5474506941143201,0.0069477166775277766,0.054347826086956985,1
0.5519604123849188,0.5890507268836253,0.7990978510754347,0.4612301515634518,0.0069477166775277766,0.054347826086962314,1
0.5534558520316425,0.589813456115776,0.8024424467600871,0.5379437210840412,0.006947716677528151,0.05434782608696409,1
0.5531054907951117,0.5896345660593025,0.7984199207104383,0.5645663785876003,0.00694771667752761,0.054347826086962314,1
0.5553318382564879,0.590879893062465,0.8016650311607355,0.5554717094137112,0.006947716677528026,0.05434782608696764,1
0.5515359406521609,0.5898594690772727,0.7974886182725496,0.49300570613624434,0.007482413487727255,0.06521739130434767,1
0.5538815917925916,0.5916357645657103,0.8037687075171785,0.5122423040402486,0.006947716677528026,0.06521739130435833,1
0.5517429253129663,0.5908305903810938,0.7989706344722303,0.5566666914606857,0.006947716677527735,0.06521739130434412,1
0.5537620499416622,0.5923514687708933,0.8038651865274207,0.5500666183785001,0.005344461710695761,0.06521739130435833,1
0.5530934994963724,0.5895214037396644,0.7974146422382097,0.4892031943884152,0.00694771667752829,0.054347826086951656,1
0.5536479116834171,0.5923059305995391,0.8017031961468943,0.5179693613409645,0.007482413487727255,0.05434782608696409,1
0.552090013865078,0.5922191844343336,0.7962806877264377,0.5592502555822136,0.006413437599211383,0.05434782608696764,1
0.5577672646011748,0.5948231633280611,0.7997471214454452,0.5473289913671991,0.00748241348772738,0.054347826086951656,1
0.5568719075842925,0.5938730638550015,0.7962401569526887,0.4871177083631099,0.006947716677528443,0.06521739130436544,1
0.5580820731722276,0.595846135768221,0.7997610456065881,0.510653373953819,0.006947716677528151,0.06521739130436544,1
0.5540189694140671,0.5964856982639479,0.7962397149720799,0.5713985240703245,0.006413437599211758,0.06521739130434767,1
0.5545596685973523,0.5954489459040035,0.7997162125667201,0.549406031836422,0.007482413487727532,0.06521739130434767,1
0.5548530626408514,0.5940403495928417,0.7967097409103675,0.5032851104458353,0.007482413487727463,0.07608695652173836,1
0.5541663189435204,0.5901110083514911,0.8045665472229409,0.49386999298920126,0.007482413487727282,0.07608695652174546,1
0.5516430726529757,0.5890207488713548,0.8001329402083207,0.5624930515809001,0.005878740789012252,0.07608695652173836,1
0.5538437767015149,0.5903324149211674,0.80287174380027,0.5474315932941258,0.006947716677527888,0.07608695652175257,1
0.5517616344847505,0.5913224915883726,0.8003267541540546,0.5028590036449965,0.00694771667752829,0.0652173913043761,1
0.5537396255733318,0.5909283722841652,0.8046363879375625,0.5042117483463495,0.007482413487727185,0.06521739130435478,1
0.5518946037359225,0.5910693583466486,0.802430801495974,0.5662991325327749,0.006947716677527943,0.06521739130437254,1
0.5535143449043507,0.5951779050081821,0.8032361843039746,0.5310539279361882,0.006947716677528359,0.06521739130434767,1
0.5524348361730776,0.5907887760924186,0.8031518809535355,0.5037293906096485,0.006947716677527957,0.06521739130435478,1
0.5483724223482475,0.5898843971436765,0.8095263323759515,0.5345112405367076,0.007482413487727282,0.06521739130434412,1
0.542839234395479,0.5894552949545634,0.805487111279403,0.5601191944324049,0.007482413487727352,0.06521739130435833,1
0.5481655094057196,0.5907347359972047,0.8115194403317595,0.49355175389712497,0.006947716677528193,0.06521739130436544,1
0.5418191384897403,0.5886056785747126,0.8042252643552412,0.5003648491830393,0.006947716677527804,0.07608695652174546,1
0.5437130015485,0.5903210069792955,0.8098685803074346,0.5363863809493725,0.006413437599211619,0.07608695652175257,1
0.544658096920787,0.5874300377346456,0.8042282214102106,0.5583450488000098,0.005878740789012321,0.07608695652173836,1
0.5531775829585955,0.5869264950285386,0.8102264010405082,0.5179662376893968,0.00748241348772756,0.0760869565217277,1
0.5501875531087679,0.5826837118893313,0.8038213208156821,0.5098071391315138,0.006413437599211688,0.06521739130436188,1
0.5636692567405858,0.5861168369615106,0.8002713935293508,0.5674301345334651,0.006413437599211855,0.06521739130436188,1
0.5547986993792218,0.5874630678116816,0.8007692580050569,0.5598227305318212,0.00748241348772774,0.06521739130435833,1
0.5533463226253444,0.5903751296868441,0.8068757396618327,0.5270891741169035,0.006947716677527735,0.06521739130436544,1
0.5517282666208467,0.5886621490390926,0.8006341238347063,0.5014171183046795,0.0069477166775282345,0.06521739130434767,1
0.5546150658261743,0.590244112927359,0.805685804423345,0.5756120514245979,0.0069477166775280125,0.06521739130436188,1
0.5531016516722944,0.5886966092488943,0.7949486211533043,0.5014322151961162,0.006947716677528151,0.06521739130436899,1
0.5544839294392806,0.5902482742759129,0.8028351585138196,0.4705883858871264,0.006947716677527888,0.06521739130435478,1
0.5512568447984595,0.5886421310557508,0.7963516379712419,0.521389384971094,0.006413437599211577,0.06521739130435478,1
0.5543428076363031,0.5907361291085311,0.8047253138399899,0.5763542591751749,0.006947716677528026,0.06521739130433701,1
0.5511319773609036,0.5906887890404797,0.7986408307816061,0.517008920522015,0.006947716677528193,0.06521739130436188,1
0.5545239361461257,0.5909096142557685,0.8097621051680913,0.48615621526266567,0.006947716677527679,0.06521739130435478,1
0.5509131609677781,0.5884201115313498,0.8033406971877142,0.5498670815076838,0.007482413487727255,0.06521739130436188,1
0.5547823704287841,0.5904715137865291,0.8113173653615107,0.5800935742902705,0.00748241348772781,0.06521739130436544,1
0.5506077479123374,0.5884616740309465,0.8025838574452864,0.509439518966316,0.006413437599211577,0.06521739130436188,1
0.5551414913381041,0.5904685024485299,0.8120890534632303,0.49778202536413585,0.006947716677528429,0.06521739130436544,1
0.5502245311670949,0.58862106548492,0.8016831110467697,0.5636674985423685,0.007482413487727255,0.06521739130435478,1
0.5570988440506915,0.5926947771428785,0.8132042962739328,0.5667804703687044,0.006947716677527541,0.06521739130434767,1
0.5490098431794485,0.587880554370582,0.80023597226624,0.503361822443735,0.006947716677527818,0.06521739130434767,1
0.5573461298466169,0.5961156962916815,0.8130349828435256,0.49935850750526295,0.005344461710695844,0.06521739130434767,1
0.5449089554909975,0.589290498944867,0.7920768276403908,0.5536963246539283,0.006947716677528193,0.06521739130433701,1
0.5580915831807831,0.5936848286036895,0.8270347649255537,0.5517095673330923,0.006947716677528165,0.06521739130436188,1
0.595734296427014,0.5576086425109238,0.7791937573680721,0.4863612063431856,0.006413437599211369,0.06521739130436544,1
0.7212719079847588,0.590477094547521,0.5195269820257349,0.5349107822909718,0.006413437599211813,0.06521739130437965,1
0.8140277622544734,0.6347491040572107,0.4690602024556422,0.5606303251675961,0.004810182632379714,0.07608695652176323,1
0.8307896641605214,0.609894572032555,0.6766698100506426,0.5340944474342847,0.00267223085534829,0.07608695652175257,1
0.5468952949418988,0.6849563898862394,0.5318811841235236,0.45608778492186486,0.002137951777031924,0.07608695652176323,1
0.6031610916507688,0.6864105322179809,0.7461435671241041,0.5100509760891131,0.0026722308553484286,0.07608695652174546,1
0.618252857475902,0.6278206162815139,0.8247916587270481,0.5239131240217132,0.004275485822179834,0.07608695652173836,1
0.4384066375566128,0.6675166948680434,0.813541947763396,0.46624869166485683,0.003741206743863898,0.07608695652175257,1
0.37561630370619037,0.63525622175831,0.8832039855667262,0.5085769799031744,0.005344461710695844,0.07608695652175967,1
0.41130583053248926,0.610846888629577,0.8602435514342712,0.7218283321594898,0.008016692566043718,0.07608695652174546,1
0.4600917732665756,0.6081695770868224,0.8710925049783005,0.7850968291696714,0.00801669256604344,0.0760869565217277,1
0.4872044333997667,0.603599002783221,0.8370825426891704,0.4937962776583923,0.008550971644359917,0.07608695652177389,1
0.48597098272270145,0.6163307999581579,0.8461844535055429,0.5358176089037483,0.007482413487727227,0.07608695652176323,1
0.4823082079806289,0.6054453979934873,0.8402947433487284,0.5133908341308199,0.007482413487727796,0.07608695652175257,1
0.4893454228685372,0.5958462810024104,0.850458065824963,0.35604996630273616,0.00801669256604369,0.07608695652175257,1
0.49848357059827,0.5897201583100239,0.8359179151134168,0.4462709928015199,0.008016692566043718,0.07608695652174546,1
0.49852995561570723,0.5855047987152613,0.8433044832467625,0.5039201141507039,0.008016692566043648,0.07608695652173836,1
0.4908602907635936,0.5860078975391626,0.8395406393202848,0.5171691716421718,0.008016692566043787,0.07608695652174546,1
0.48343372110053406,0.5854878165500678,0.8500880242436488,0.5499389695265136,0.007482413487727116,0.07608695652173836,1
0.47005248629301266,0.5824935121150676,0.856162432193228,0.5308141294862231,0.0069477166775281235,0.07608695652175257,1
0.5162650285293782,0.5954088739420832,0.8290219185921466,0.5796020013201951,0.006947716677527527,0.07608695652171704,1
0.5809101887292712,0.6061456095098365,0.7741149045267401,0.5091553211555184,0.00748241348772738,0.07608695652174902,1
0.5001301109546835,0.5895563326923178,0.837350972540934,0.493783329281506,0.006413437599211716,0.07608695652175967,1
0.530667713369394,0.5931777457797432,0.8173334138851083,0.5149454258466546,0.006947716677527804,0.07608695652175612,1
0.5444362174442676,0.5985032374502283,0.8146338626373448,0.5553955897403882,0.006947716677528193,0.07608695652175257,1
0.5434161088220261,0.6050118156548562,0.8054385575764773,0.4968868653099211,0.004810182632379367,0.07608695652173836,1
0.5508330524194095,0.6138165113777208,0.803040823508959,0.5363290819871296,0.003741206743863773,0.07608695652175612,1
0.5546387498615016,0.6166582036035599,0.7941255618318924,0.5328500790938431,0.004810182632379506,0.07608695652173836,1
0.5556041179385471,0.6165760067314668,0.7922980737067412,0.5447033786863015,0.003741206743863662,0.07608695652175257,1
0.5563311403318577,0.6130973835572725,0.7947402306856357,0.48168382073357097,0.0037412067438637314,0.07608695652175257,1
0.5507228677433664,0.6083979547178218,0.8023674492404157,0.520266411852825,0.0032065099336644615,0.06521739130435478,1
0.5309018648262783,0.5937625922566743,0.8180238637289874,0.5730089786094676,0.0037412067438636204,0.06521739130433346,1
0.5060297887025119,0.5747515735440099,0.8376559240470902,0.5285763514379416,0.004275485822180514,0.06521739130436899,1
0.5155024345811619,0.5727436444149052,0.8298303293190029,0.4938314829676049,0.004275485822180097,0.06521739130434767,1
0.5245492614473855,0.5776146027427109,0.8290661801235915,0.5742763325629808,0.004275485822180347,0.07608695652175967,1
0.5335011733605771,0.584025179699184,0.8169269313225426,0.5821881682109171,0.004810182632379881,0.07608695652175257,1
0.5320962797182723,0.5884997066849895,0.8191343843229808,0.5381148852910526,0.004810182632379548,0.07608695652176678,1
0.5265291681320097,0.5873992856060981,0.8227102588538633,0.47522315238493207,0.004810182632379714,0.07608695652173836,1
0.5230455439179515,0.5881833511596263,0.8253547950446474,0.47463746811029167,0.005344461710695941,0.07608695652174546,1
